Wavelength	A00039.asd
325	 4.85092662072814E-02 
326	 5.09949970609983E-02 
327	 5.79520131156555E-02 
328	 0.058273650417525 
329	 5.57053146155574E-02 
330	 5.30276066098328E-02 
331	 5.65303989849345E-02 
332	 0.060456148085588 
333	 5.89774659048186E-02 
334	 0.057183253502091 
335	 5.61413044113629E-02 
336	 5.58566406320824E-02 
337	 5.70425924248963E-02 
338	 5.88055354636508E-02 
339	 5.67371159799921E-02 
340	 5.33723286283422E-02 
341	 5.13168915132288E-02 
342	 5.41713994077676E-02 
343	 0.059041093116565 
344	 6.03232563341516E-02 
345	 5.77121667356291E-02 
346	 5.33876397512453E-02 
347	 0.055698093181405 
348	 5.93622382770678E-02 
349	 6.05372422823259E-02 
350	 5.97744417282803E-02 
351	 5.75874430631396E-02 
352	 5.44897366690732E-02 
353	 5.25384301685215E-02 
354	 5.27657640760927E-02 
355	 5.67970231832756E-02 
356	 5.87586277554989E-02 
357	 5.58791440049817E-02 
358	 5.59699665236469E-02 
359	 5.79913760003505E-02 
360	 5.89975768304009E-02 
361	 5.79384018678937E-02 
362	 5.59111326047006E-02 
363	 5.76705438069864E-02 
364	 5.85212117450629E-02 
365	 0.056537685843768 
366	 5.65361084034922E-02 
367	 5.74970009395503E-02 
368	 5.74063259558494E-02 
369	 5.83941310844682E-02 
370	 5.97194211175079E-02 
371	 5.72435062271715E-02 
372	 5.56432178438329E-02 
373	 5.72179416923284E-02 
374	 5.84094697496502E-02 
375	 5.93391412991671E-02 
376	 6.07095331136387E-02 
377	 6.06724643967069E-02 
378	 5.94285855169892E-02 
379	 5.90358529496564E-02 
380	 5.86891049095721E-02 
381	 5.82374587755196E-02 
382	 5.90844305579773E-02 
383	 6.04783510348341E-02 
384	 6.12734288786215E-02 
385	 6.20715829186184E-02 
386	 6.23776459996264E-02 
387	 6.04128019140298E-02 
388	 5.90679918306025E-02 
389	 5.94027629385969E-02 
390	 5.89500866045314E-02 
391	 5.90380437203363E-02 
392	 6.13442899049136E-02 
393	 6.09438632797129E-02 
394	 5.87603511521906E-02 
395	 6.07637394114343E-02 
396	 6.13442063962014E-02 
397	 5.88708252727025E-02 
398	 5.78305295939833E-02 
399	 5.75630272108236E-02 
400	 5.70049242724199E-02 
401	 5.74217948443207E-02 
402	 0.058679972009057 
403	 6.02151914186398E-02 
404	 0.061043642305435 
405	 6.08692607472766E-02 
406	 6.08101151864789E-02 
407	 6.08948355965949E-02 
408	 6.10109145716604E-02 
409	 6.04834370715664E-02 
410	 5.96435472965278E-02 
411	 0.05982115139199 
412	 6.00942008104548E-02 
413	 6.00805771093638E-02 
414	 6.04076497069906E-02 
415	 6.06130240275957E-02 
416	 6.00466168000832E-02 
417	 6.02428578590249E-02 
418	 6.10753870156843E-02 
419	 0.060979093076826 
420	 6.08329886104219E-02 
421	 6.10988682310392E-02 
422	 6.14383907021314E-02 
423	 6.18616296811094E-02 
424	 6.24489099014408E-02 
425	 6.27009915030208E-02 
426	 6.26483320647099E-02 
427	 6.29095974231188E-02 
428	 6.31410791603298E-02 
429	 6.31440457630607E-02 
430	 6.32636821008689E-02 
431	 6.33371627401456E-02 
432	 0.063038355030076 
433	 6.25296877369296E-02 
434	 6.21407848399183E-02 
435	 6.27791924940385E-02 
436	 0.063447001221614 
437	 6.35169170175587E-02 
438	 6.37513280113408E-02 
439	 6.41022956746174E-02 
440	 6.43073241479333E-02 
441	 0.064308944123811 
442	 0.064224586943132 
443	 6.46346570198864E-02 
444	 6.50373061094313E-02 
445	 6.50401221685686E-02 
446	 6.51159656928338E-02 
447	 6.53280323103215E-02 
448	 6.56349394643047E-02 
449	 0.065980400309111 
450	 6.62994859769348E-02 
451	 6.64236190336559E-02 
452	 6.65738722417748E-02 
453	 6.69578761948447E-02 
454	 6.71456367327598E-02 
455	 6.71197301820327E-02 
456	 0.067061384069265 
457	 6.70535135376739E-02 
458	 6.71759008763964E-02 
459	 6.76152476377466E-02 
460	 6.79051769721557E-02 
461	 6.75068903809258E-02 
462	 6.73348881329005E-02 
463	 6.74394245717743E-02 
464	 6.72301785269061E-02 
465	 6.71834030077985E-02 
466	 6.75128839016506E-02 
467	 6.79201325484456E-02 
468	 6.81197955307016E-02 
469	 0.067759475341306 
470	 6.79185099785457E-02 
471	 6.86608620397661E-02 
472	 6.92047124115473E-02 
473	 6.93002741362786E-02 
474	 6.88670508152714E-02 
475	 6.86433360758289E-02 
476	 0.068705919821565 
477	 6.90086266915878E-02 
478	 6.88748754240867E-02 
479	 6.84290985835083E-02 
480	 6.90785205593453E-02 
481	 6.99095024610905E-02 
482	 7.01404116201667E-02 
483	 6.99340198565726E-02 
484	 6.95927234973962E-02 
485	 6.98093198809706E-02 
486	 6.97734823779853E-02 
487	 6.94106250389193E-02 
488	 6.99792020199842E-02 
489	 7.04445328725364E-02 
490	 0.069766308055748 
491	 6.94163969674406E-02 
492	 6.97114066015659E-02 
493	 0.070806379787997 
494	 7.12696460143677E-02 
495	 7.06463387931068E-02 
496	 7.05255095078857E-02 
497	 7.08622698188811E-02 
498	 7.13892839753545E-02 
499	 7.16969693157853E-02 
500	 7.16597589103046E-02 
501	 7.12643086155474E-02 
502	 7.11551760351886E-02 
503	 7.16539801085215E-02 
504	 7.19312080252373E-02 
505	 7.20042975835534E-02 
506	 7.20832971624324E-02 
507	 7.23691550513409E-02 
508	 7.27691621992943E-02 
509	 7.26270130651597E-02 
510	 7.24787751482642E-02 
511	 7.27446170145181E-02 
512	 7.29763282444709E-02 
513	 0.073125807169746 
514	 0.073245556502182 
515	 7.34646354662054E-02 
516	 7.37501802252941E-02 
517	 7.36391799988233E-02 
518	 7.34975454930843E-02 
519	 7.37344184799045E-02 
520	 7.37726755776567E-02 
521	 7.37473357381197E-02 
522	 7.43628828618988E-02 
523	 7.48896998894773E-02 
524	 7.50370279909811E-02 
525	 7.53569846239767E-02 
526	 7.55459124678704E-02 
527	 0.07509383989034 
528	 7.50096324517784E-02 
529	 7.54009299686379E-02 
530	 0.075625713283402 
531	 7.58811897806153E-02 
532	 7.62911958981837E-02 
533	 7.68173407339617E-02 
534	 0.077137960907339 
535	 0.076593821450655 
536	 0.076502241954273 
537	 7.71140202613261E-02 
538	 0.077405431758135 
539	 7.75030702399579E-02 
540	 0.077580569788114 
541	 7.77144394648691E-02 
542	 7.78250251883572E-02 
543	 7.75750861795918E-02 
544	 7.76591907401503E-02 
545	 7.82370464047673E-02 
546	 7.83245260261613E-02 
547	 0.078187898641426 
548	 7.82930792308218E-02 
549	 0.078386299361634 
550	 7.84973907986729E-02 
551	 7.89351264225099E-02 
552	 7.92661387638338E-02 
553	 0.079235328766879 
554	 7.91862720471513E-02 
555	 7.92413386119556E-02 
556	 7.95467432251713E-02 
557	 7.96394693063387E-02 
558	 0.079504661785279 
559	 7.98261508388909E-02 
560	 0.080254144908011 
561	 8.04304655460699E-02 
562	 0.080328404342374 
563	 8.01205649015286E-02 
564	 8.02488367428128E-02 
565	 0.08048500668007 
566	 8.06707822901802E-02 
567	 8.04453574322131E-02 
568	 8.01343118445318E-02 
569	 8.01894131088192E-02 
570	 8.05615886085344E-02 
571	 8.11147279294179E-02 
572	 8.15143339964683E-02 
573	 8.15304982828572E-02 
574	 8.11453864944519E-02 
575	 8.15208944509344E-02 
576	 0.082108611931746 
577	 0.081592494644805 
578	 8.12431329933105E-02 
579	 8.13379179001892E-02 
580	 8.11810104413375E-02 
581	 8.11108782643898E-02 
582	 8.14252829484515E-02 
583	 8.18129476870205E-02 
584	 8.20953902112511E-02 
585	 8.19536923657206E-02 
586	 8.20112554428501E-02 
587	 8.23649129254164E-02 
588	 8.18640445354263E-02 
589	 8.12414519624041E-02 
590	 8.15792048708996E-02 
591	 8.16714835645942E-02 
592	 8.14366080446641E-02 
593	 8.15609842974017E-02 
594	 0.081886941720004 
595	 8.22703958121009E-02 
596	 8.23065886220623E-02 
597	 8.21937984487828E-02 
598	 8.23876289506702E-02 
599	 8.25278977662395E-02 
600	 8.24831292366589E-02 
601	 8.21503375365377E-02 
602	 8.19333324186737E-02 
603	 8.21625926872978E-02 
604	 8.23136771708922E-02 
605	 0.082321639349718 
606	 8.22582897444543E-02 
607	 8.23146755837514E-02 
608	 8.25598841797563E-02 
609	 8.28830852914279E-02 
610	 8.29791801794118E-02 
611	 8.25011023052152E-02 
612	 8.24744151984531E-02 
613	 8.29026097172778E-02 
614	 8.29320010715735E-02 
615	 8.26375960426241E-02 
616	 8.21524992080619E-02 
617	 8.22186453719228E-02 
618	 8.25299838703052E-02 
619	 0.082360194697116 
620	 8.23319689251783E-02 
621	 8.25578242861544E-02 
622	 8.27836793630387E-02 
623	 8.26878648551301E-02 
624	 8.20585844738881E-02 
625	 8.19839356151883E-02 
626	 8.23271536004071E-02 
627	 8.21182060167194E-02 
628	 8.21687207935944E-02 
629	 8.26702950456131E-02 
630	 8.28439710793761E-02 
631	 8.27273246244617E-02 
632	 8.24648882541888E-02 
633	 8.27699723910659E-02 
634	 8.33730736652996E-02 
635	 8.27454477217501E-02 
636	 0.082304173029928 
637	 8.27855373987739E-02 
638	 8.27980381952647E-02 
639	 8.25829371546135E-02 
640	 8.29099681255643E-02 
641	 8.30477373272019E-02 
642	 8.28697835472978E-02 
643	 8.27979918464833E-02 
644	 8.30077280393508E-02 
645	 8.35816081630505E-02 
646	 8.36381606886094E-02 
647	 8.32373209965686E-02 
648	 8.29544332406097E-02 
649	 8.29663394523325E-02 
650	 8.32485465906803E-02 
651	 8.30089157330329E-02 
652	 8.27342123776391E-02 
653	 8.30703201229188E-02 
654	 8.33512699236597E-02 
655	 8.33747144189345E-02 
656	 8.30265156893076E-02 
657	 8.27347689898359E-02 
658	 8.26841026562855E-02 
659	 8.20626700624238E-02 
660	 8.13153881731805E-02 
661	 8.13039821807677E-02 
662	 0.081116950682997 
663	 8.06803931209706E-02 
664	 8.08175159065224E-02 
665	 8.11256623301305E-02 
666	 0.081189963489128 
667	 8.03668812577238E-02 
668	 7.93278096655892E-02 
669	 8.00453162117052E-02 
670	 8.03638066766776E-02 
671	 7.97557472417826E-02 
672	 8.00864652369021E-02 
673	 8.05800669576372E-02 
674	 8.02199686821021E-02 
675	 8.01252408793015E-02 
676	 8.03576565002608E-02 
677	 8.03158139475719E-02 
678	 8.02200863540314E-02 
679	 8.02278618212878E-02 
680	 8.05698346531713E-02 
681	 8.11180798856473E-02 
682	 0.081648262410733 
683	 0.081849154885247 
684	 8.17703455015001E-02 
685	 8.20168133565428E-02 
686	 8.24381996694601E-02 
687	 8.28844302649759E-02 
688	 8.32999969478714E-02 
689	 8.36373487883164E-02 
690	 8.39221324120508E-02 
691	 8.42390386792809E-02 
692	 8.46374204966488E-02 
693	 8.51353075169042E-02 
694	 8.56691476151871E-02 
695	 8.61475659555354E-02 
696	 8.66086187010935E-02 
697	 8.69001182579654E-02 
698	 8.65085069784303E-02 
699	 8.64796579160259E-02 
700	 8.72007227028237E-02 
701	 8.74451783708616E-02 
702	 8.74519525753061E-02 
703	 8.77404710925103E-02 
704	 0.088081557045263 
705	 8.83703360787423E-02 
706	 8.84694167499902E-02 
707	 8.83501788488003E-02 
708	 8.80169988353017E-02 
709	 8.75882740128921E-02 
710	 8.73727579169986E-02 
711	 8.78671318357049E-02 
712	 8.85311756268773E-02 
713	 8.90438000063729E-02 
714	 8.89348071509464E-02 
715	 8.86766901847681E-02 
716	 8.87333466530812E-02 
717	 8.90502802534529E-02 
718	 8.95484764177821E-02 
719	 8.99394630028642E-02 
720	 8.99716497405598E-02 
721	 0.089680269150424 
722	 8.95458708259256E-02 
723	 8.94982145954298E-02 
724	 8.94403011526508E-02 
725	 8.92947809945743E-02 
726	 8.91930698552968E-02 
727	 0.089546693655664 
728	 8.99969976753532E-02 
729	 9.02933935045901E-02 
730	 0.090096666622748 
731	 8.99239172087909E-02 
732	 9.05180635650665E-02 
733	 9.06506452366396E-02 
734	 9.03100973893329E-02 
735	 9.04340912443135E-02 
736	 9.07251506097639E-02 
737	 9.09588625806877E-02 
738	 9.10353042353001E-02 
739	 9.10237726152514E-02 
740	 9.10810874965635E-02 
741	 9.11955701396816E-02 
742	 9.13812957128095E-02 
743	 9.17593037738795E-02 
744	 9.18288393200699E-02 
745	 9.12548241140297E-02 
746	 9.13078796239402E-02 
747	 9.18249741061366E-02 
748	 0.091907394240226 
749	 9.16877396634054E-02 
750	 9.13044961336758E-02 
751	 9.13377580989443E-02 
752	 9.16423680469996E-02 
753	 9.19940753311438E-02 
754	 9.20326911772326E-02 
755	 9.18646043006492E-02 
756	 9.20357475049572E-02 
757	 9.22456178982683E-02 
758	 9.23604285971373E-02 
759	 9.22120396138071E-02 
760	 0.092223770435823 
761	 9.35706371229939E-02 
762	 9.41109004729282E-02 
763	 9.35923028116844E-02 
764	 9.28743709126705E-02 
765	 9.25336497208413E-02 
766	 9.27126505350885E-02 
767	 9.29777702631107E-02 
768	 9.32736794042558E-02 
769	 9.36132701399703E-02 
770	 9.34802888650026E-02 
771	 9.29634433801669E-02 
772	 9.28076445761852E-02 
773	 9.30683663741833E-02 
774	 9.36797769404474E-02 
775	 9.37174329371441E-02 
776	 9.34803823166258E-02 
777	 9.37668747499424E-02 
778	 0.094064376138144 
779	 9.41187862413831E-02 
780	 9.34550778556641E-02 
781	 9.31555986214704E-02 
782	 9.39827395270311E-02 
783	 9.43796204540646E-02 
784	 9.43385600022046E-02 
785	 9.44615828841864E-02 
786	 9.41978493770792E-02 
787	 9.36481711036565E-02 
788	 9.40557878670645E-02 
789	 9.47010832183044E-02 
790	 9.48610659327606E-02 
791	 9.49683565916605E-02 
792	 9.50680695919827E-02 
793	 9.51275097054302E-02 
794	 9.49799356838386E-02 
795	 9.46610450849363E-02 
796	 9.46241939164985E-02 
797	 0.094783135425413 
798	 9.50130675072991E-02 
799	 9.52824501017917E-02 
800	 9.54537311459621E-02 
801	 9.51316650635546E-02 
802	 9.52107983630384E-02 
803	 9.58737070074089E-02 
804	 9.59878138101628E-02 
805	 9.58045718406376E-02 
806	 9.56893942652291E-02 
807	 9.54886262613325E-02 
808	 9.52751353892042E-02 
809	 9.52853642246081E-02 
810	 9.53975697887679E-02 
811	 9.55442354620378E-02 
812	 0.095615462571847 
813	 0.095804241464981 
814	 9.63639874858335E-02 
815	 9.68867177891806E-02 
816	 9.72190533899888E-02 
817	 9.74120060666051E-02 
818	 9.70383605196079E-02 
819	 9.61577892233728E-02 
820	 9.59024839049291E-02 
821	 9.61868841024567E-02 
822	 9.67795391155369E-02 
823	 9.64581319641245E-02 
824	 9.56027776518625E-02 
825	 9.61411071460358E-02 
826	 0.096553308896796 
827	 9.63886101512498E-02 
828	 9.71434831743034E-02 
829	 9.75451052332581E-02 
830	 9.60024985356683E-02 
831	 9.57602558754999E-02 
832	 9.68410711709011E-02 
833	 9.71436218867556E-02 
834	 9.72619302549352E-02 
835	 9.74126492441497E-02 
836	 9.76438278483529E-02 
837	 9.77183715974972E-02 
838	 9.73835428899765E-02 
839	 9.72384439232661E-02 
840	 9.73213516563128E-02 
841	 9.72820545760971E-02 
842	 0.097557638469104 
843	 9.81279172888748E-02 
844	 9.78147465854076E-02 
845	 9.72509907669663E-02 
846	 0.09725240731707 
847	 9.76333481730881E-02 
848	 9.79966222571304E-02 
849	 9.71560957044931E-02 
850	 9.72789309421883E-02 
851	 9.87357986678333E-02 
852	 9.80413086040934E-02 
853	 9.67966692062753E-02 
854	 9.69954584516346E-02 
855	 9.75118478927406E-02 
856	 9.77838422784641E-02 
857	 0.096834489341464 
858	 9.66579699320132E-02 
859	 9.76708639465728E-02 
860	 9.82070765932954E-02 
861	 9.82166276316977E-02 
862	 9.77776505052387E-02 
863	 9.73222030478835E-02 
864	 9.73205349838411E-02 
865	 0.098693767673146 
866	 9.93672881925356E-02 
867	 9.88578983376245E-02 
868	 9.87790172389632E-02 
869	 9.87994395113889E-02 
870	 9.86618647637829E-02 
871	 9.91653087505204E-02 
872	 9.96613916003208E-02 
873	 9.86516171016296E-02 
874	 9.82982200382793E-02 
875	 9.87733473896945E-02 
876	 0.097863180374659 
877	 0.096870792263631 
878	 9.68359520216748E-02 
879	 9.80728535254206E-02 
880	 9.95310978991187E-02 
881	 9.95071442076292E-02 
882	 9.85240606745596E-02 
883	 9.72034784134164E-02 
884	 0.097114917841099 
885	 9.73417746969846E-02 
886	 9.73948459441163E-02 
887	 9.76866427372859E-02 
888	 9.83075189175091E-02 
889	 9.93050941584587E-02 
890	 9.92262743865374E-02 
891	 0.098236173515065 
892	 9.80286728539932E-02 
893	 9.76988337124565E-02 
894	 9.71496330353719E-02 
895	 9.81618770727855E-02 
896	 9.97020262810914E-02 
897	 0.100303377053838 
898	 0.099689233981508 
899	 9.86876528533426E-02 
900	 0.099547047234276 
901	 0.100085912917712 
902	 9.97513285262032E-02 
903	 9.95482559320248E-02 
904	 9.93410233645438E-02 
905	 9.90074327992166E-02 
906	 9.84847060221877E-02 
907	 9.82248046895805E-02 
908	 9.90616183691083E-02 
909	 9.90858297615363E-02 
910	 9.81741511868615E-02 
911	 0.098158689787764 
912	 9.83932694659432E-02 
913	 9.88169816252705E-02 
914	 0.101764371149391 
915	 0.10419693978299 
916	 0.102367827497493 
917	 0.100820212567555 
918	 0.100091647044509 
919	 9.83398217398341E-02 
920	 9.91004318949619E-02 
921	 0.102135310537005 
922	 9.97038526117966E-02 
923	 9.70277163684918E-02 
924	 0.098812266335249 
925	 9.87322838730564E-02 
926	 9.77319518716578E-02 
927	 0.100326946217776 
928	 0.100856102501421 
929	 9.80873151551239E-02 
930	 0.096748171863673 
931	 0.098073154042547 
932	 0.10174302386763 
933	 0.094807172513679 
934	 0.088133410215861 
935	 9.95015691342071E-02 
936	 0.10646958832213 
937	 0.104831612854616 
938	 9.88399320267178E-02 
939	 9.42966347691179E-02 
940	 9.42313362109455E-02 
941	 0.102020925814085 
942	 0.104073449609014 
943	 9.30464794528242E-02 
944	 0.095769923070697 
945	 0.104721958827343 
946	 0.102558459939718 
947	 0.104075502396091 
948	 0.110903833810509 
949	 0.118184460453887 
950	 0.114887266988618 
951	 0.100671283702541 
952	 0.10173315787938 
953	 0.105881843874774 
954	 0.10114856449979 
955	 0.100445879344155 
956	 0.104126765066654 
957	 0.109540261780586 
958	 0.108088040225053 
959	 0.100524144787115 
960	 9.62088500419987E-02 
961	 9.80098193253357E-02 
962	 0.105087480901259 
963	 0.105398357905626 
964	 0.103837073975082 
965	 0.105585808211826 
966	 0.103191795356106 
967	 9.88100900064146E-02 
968	 9.87959964004829E-02 
969	 9.79156483901406E-02 
970	 9.62108981286144E-02 
971	 9.93246604633454E-02 
972	 0.102007342846374 
973	 0.101762721006024 
974	 0.102295157196109 
975	 0.104558076685229 
976	 0.10855408915977 
977	 0.103737062670985 
978	 9.48791633382213E-02 
979	 9.65877597286357E-02 
980	 9.98759679588397E-02 
981	 0.101943176872261 
982	 0.102816884473118 
983	 0.103215612881167 
984	 0.103754723358857 
985	 0.105201908582833 
986	 0.107694408678731 
987	 0.110778825379907 
988	 0.107140281912381 
989	 0.100463167947899 
990	 0.100822589152147 
991	 9.80551225392947E-02 
992	 9.30436347004352E-02 
993	 9.96484273314114E-02 
994	 0.104406587735991 
995	 0.101268019806326 
996	 9.81924947055987E-02 
997	 9.69415661416717E-02 
998	 9.86526561374856E-02 
999	 0.102257889244409 
1000	 0.105379222480761 
1001	 0.104636139073575 
1002	 0.10003233511007 
1003	 9.47945363586492E-02 
1004	 9.89458446336213E-02 
1005	 0.104011939171469 
1006	 0.105836502828708 
1007	 0.103291094328146 
1008	 0.100347504386385 
1009	 0.100104136053741 
1010	 9.97540831483521E-02 
1011	 9.77040977826872E-02 
1012	 9.26272862134446E-02 
1013	 9.40165219732866E-02 
1014	 0.099887825800066 
1015	 0.100461518836773 
1016	 0.100442302856993 
1017	 0.101437902547832 
1018	 0.104494720504828 
1019	 0.10631679749481 
1020	 0.105252532249029 
1021	 0.103112809836379 
1022	 0.102091401750969 
1023	 0.103774118107647 
1024	 0.103771278354368 
1025	 0.104459819305925 
1026	 0.110852837075925 
1027	 0.10833053143312 
1028	 9.79001740057375E-02 
1029	 9.41099987154857E-02 
1030	 9.02797760866523E-02 
1031	 8.81857909777532E-02 
1032	 0.105038265987361 
1033	 0.114977278332261 
1034	 0.104667558250281 
1035	 0.106403037104835 
1036	 0.11385361422066 
1037	 0.117256961460111 
1038	 0.114290448185733 
1039	 0.10841695466673 
1040	 0.106626894932529 
1041	 0.115023983345926 
1042	 0.127195770539334 
1043	 0.122840142925826 
1044	 0.113827136446122 
1045	 0.108242576429051 
1046	 0.120453104317908 
1047	 0.117078712172262 
1048	 8.47947526855381E-02 
1049	 7.89826732417888E-02 
1050	 9.32649221503146E-02 
1051	 0.113117551440159 
1052	 0.113131752701619 
1053	 9.72934296873953E-02 
1054	 8.11815458679816E-02 
1055	 9.52838596294077E-02 
1056	 0.12674322940609 
1057	 0.131790441550371 
1058	 0.107846029084889 
1059	 6.98026158004735E-02 
1060	 9.60816186966409E-02 
1061	 0.101011430307631 
1062	 6.30913614117139E-02 
1063	 9.16247741993459E-02 
1064	 0.109117031095439 
1065	 7.00526238308407E-02 
1066	 9.51529037644587E-02 
1067	 0.134221673928917 
1068	 0.124938844654884 
1069	 0.102989893637818 
1070	 9.10591278312924E-02 
1071	 0.115031398823131 
1072	 0.125094809601026 
1073	 0.107572839754449 
1074	 5.69990045354749E-02 
1075	 4.89671434139747E-02 
