Wavelength	A00000.asd
325	 3.88667584544789E-02 
326	 3.10855908446396E-02 
327	 0.030563748485298 
328	 4.16855868268897E-02 
329	 4.67063259777563E-02 
330	 4.12626475892851E-02 
331	 4.07605643052558E-02 
332	 4.38102623199847E-02 
333	 4.76841914212721E-02 
334	 4.71426467266139E-02 
335	 4.36984481809052E-02 
336	 4.27846278637323E-02 
337	 4.12325126569187E-02 
338	 0.039224538067322 
339	 4.19708660775659E-02 
340	 4.31067734082834E-02 
341	 3.80426756748405E-02 
342	 3.60403861209048E-02 
343	 3.64884494751608E-02 
344	 3.51494393576037E-02 
345	 3.66553939566745E-02 
346	 4.04878990037845E-02 
347	 4.03860973333003E-02 
348	 0.040129037435554 
349	 4.20489165313803E-02 
350	 4.26157775923584E-02 
351	 4.25104621930449E-02 
352	 4.35734513292648E-02 
353	 4.32830077062773E-02 
354	 4.14712234963006E-02 
355	 3.96807212832749E-02 
356	 0.038468533164217 
357	 3.81189812785953E-02 
358	 3.78600844568372E-02 
359	 3.81704013163869E-02 
360	 3.99420477661441E-02 
361	 4.01653457903096E-02 
362	 3.89862024674568E-02 
363	 3.96439734582192E-02 
364	 3.98104868123173E-02 
365	 3.85447536730378E-02 
366	 3.81665104339868E-02 
367	 3.84425845635689E-02 
368	 3.87554793520259E-02 
369	 3.86335701710292E-02 
370	 3.81383200913994E-02 
371	 3.80102448874703E-02 
372	 3.73462455306825E-02 
373	 3.62897072294235E-02 
374	 3.93070240034704E-02 
375	 0.042653260188851 
376	 4.08493677909234E-02 
377	 3.87451280326916E-02 
378	 3.75255713998569E-02 
379	 3.68497559263165E-02 
380	 3.64874957209393E-02 
381	 3.64681860969307E-02 
382	 3.79721427843066E-02 
383	 3.94220901376707E-02 
384	 3.87411676430127E-02 
385	 3.79792742301917E-02 
386	 3.77146470398714E-02 
387	 0.037888197410261 
388	 3.86510260767761E-02 
389	 3.98085149192788E-02 
390	 4.02217706638196E-02 
391	 3.96148922361533E-02 
392	 3.78840569285355E-02 
393	 3.81758714495591E-02 
394	 3.99608851328866E-02 
395	 3.97265333362379E-02 
396	 3.96197829467978E-02 
397	 4.03830827892571E-02 
398	 4.10476455968176E-02 
399	 4.10945996981787E-02 
400	 4.01764109393653E-02 
401	 3.91456383894456E-02 
402	 3.84066576679509E-02 
403	 3.84110303938102E-02 
404	 3.86259187960583E-02 
405	 3.87634758601922E-02 
406	 3.86415519239081E-02 
407	 3.83165374069056E-02 
408	 3.78894268118262E-02 
409	 0.037989101451825 
410	 3.85707126898636E-02 
411	 0.039207961079267 
412	 3.91724602075748E-02 
413	 3.83558254501047E-02 
414	 3.84162878642378E-02 
415	 3.89223250986331E-02 
416	 3.91062760200638E-02 
417	 3.92334389618228E-02 
418	 3.92461795255367E-02 
419	 3.87105118252754E-02 
420	 3.87690905229177E-02 
421	 3.97894653908827E-02 
422	 3.96649605542297E-02 
423	 3.90027823249892E-02 
424	 3.90224840917723E-02 
425	 3.90333282253561E-02 
426	 3.89247344280232E-02 
427	 3.88633107242052E-02 
428	 3.88902215432748E-02 
429	 3.90116142905956E-02 
430	 0.039025476372444 
431	 3.90550627177187E-02 
432	 3.93447788472891E-02 
433	 3.96691984071719E-02 
434	 3.98835545721763E-02 
435	 3.97218133398727E-02 
436	 3.96536048827139E-02 
437	 0.039958974273732 
438	 4.02156135469551E-02 
439	 4.02605985921992E-02 
440	 3.98874814145344E-02 
441	 3.97746168354363E-02 
442	 0.03997648731317 
443	 3.97223903555353E-02 
444	 3.94553949160621E-02 
445	 3.95546095300798E-02 
446	 3.99503967165552E-02 
447	 0.040308213061479 
448	 3.98844396230809E-02 
449	 3.97075221803975E-02 
450	 4.00841687769423E-02 
451	 4.06357821496191E-02 
452	 4.09885986984761E-02 
453	 0.040830795417578 
454	 4.08525349556555E-02 
455	 4.10420195581108E-02 
456	 4.09712006314257E-02 
457	 4.07979540858347E-02 
458	 4.06295530241884E-02 
459	 4.06604839255715E-02 
460	 4.08628367956613E-02 
461	 4.11719778971286E-02 
462	 4.13277526157768E-02 
463	 4.12558166853213E-02 
464	 4.09100555324095E-02 
465	 4.07576101840422E-02 
466	 4.10566746127685E-02 
467	 4.16832463031557E-02 
468	 4.21299231473243E-02 
469	 4.17068940024219E-02 
470	 4.16357430341181E-02 
471	 0.041952346498394 
472	 4.15249758243731E-02 
473	 4.11603101852808E-02 
474	 4.13242024056338E-02 
475	 4.12862038378936E-02 
476	 4.12086381919389E-02 
477	 4.15457860686695E-02 
478	 4.18598379482331E-02 
479	 4.20343511028383E-02 
480	 4.22024662965512E-02 
481	 4.23090187838781E-02 
482	 4.23119877819035E-02 
483	 0.042273453456778 
484	 4.22187456594568E-02 
485	 4.21507982414072E-02 
486	 4.22408287403305E-02 
487	 4.24591918570502E-02 
488	 4.22521758687939E-02 
489	 4.21643508082581E-02 
490	 4.27255588827613E-02 
491	 4.27476400610877E-02 
492	 4.23342671884409E-02 
493	 4.23434740268986E-02 
494	 0.042696297425553 
495	 0.043239717495397 
496	 4.31541030961399E-02 
497	 0.042907994725165 
498	 4.32028286995782E-02 
499	 0.043552657064568 
500	 4.38144368717893E-02 
501	 4.38976891070999E-02 
502	 4.40927889149058E-02 
503	 4.45370582672215E-02 
504	 0.044865296384196 
505	 4.49810376317027E-02 
506	 4.47978150623826E-02 
507	 4.48302603463561E-02 
508	 4.51635812738201E-02 
509	 0.045430602414081 
510	 4.56985775235215E-02 
511	 4.60312737580647E-02 
512	 4.64777713461747E-02 
513	 0.046918788045249 
514	 4.70588886546077E-02 
515	 4.71754925888404E-02 
516	 4.74487531140363E-02 
517	 4.81872500313653E-02 
518	 4.90410517267525E-02 
519	 4.95996299238045E-02 
520	 4.99622602106485E-02 
521	 5.02419315300991E-02 
522	 5.06822116380012E-02 
523	 5.11544284331942E-02 
524	 5.15897317123939E-02 
525	 0.051885438954903 
526	 5.22327027427965E-02 
527	 0.052908225740876 
528	 5.35568749898578E-02 
529	 0.053976081534046 
530	 5.38135145072586E-02 
531	 5.38626018995826E-02 
532	 5.45734177113744E-02 
533	 5.48557817588452E-02 
534	 5.48774212329624E-02 
535	 5.53081105424494E-02 
536	 5.55690137170299E-02 
537	 5.55476054963174E-02 
538	 5.55309464168724E-02 
539	 5.57327188159999E-02 
540	 5.63232434256061E-02 
541	 5.69330513716967E-02 
542	 5.73708243661001E-02 
543	 5.73560585724262E-02 
544	 5.74947465029481E-02 
545	 0.057944549463012 
546	 5.79018884146006E-02 
547	 5.77084962228596E-02 
548	 5.78947422470335E-02 
549	 5.83474197598014E-02 
550	 5.89004736499104E-02 
551	 5.90916892875838E-02 
552	 5.92770247419058E-02 
553	 5.96348051964965E-02 
554	 5.96608241680402E-02 
555	 5.95116371213255E-02 
556	 5.95774346877626E-02 
557	 5.98794674554312E-02 
558	 6.02971392445077E-02 
559	 6.02330178319676E-02 
560	 6.00249080964447E-02 
561	 6.00031398879084E-02 
562	 5.98989129755682E-02 
563	 5.98015796662996E-02 
564	 6.00888016249361E-02 
565	 6.02259034459996E-02 
566	 6.00127562363233E-02 
567	 5.97026720085029E-02 
568	 5.95730077197295E-02 
569	 5.99333568706012E-02 
570	 5.99190567978727E-02 
571	 5.94719805196816E-02 
572	 5.92246567273361E-02 
573	 5.89156732788464E-02 
574	 5.84521886699301E-02 
575	 5.83537128775372E-02 
576	 5.85187282799454E-02 
577	 5.86384910233998E-02 
578	 5.87545405315689E-02 
579	 5.87767611494333E-02 
580	 0.058378115652952 
581	 5.79061222642304E-02 
582	 5.76836693572653E-02 
583	 5.76146243145501E-02 
584	 5.76505154077728E-02 
585	 5.77196789865749E-02 
586	 5.77680739172305E-02 
587	 5.77628804673534E-02 
588	 5.77325190333681E-02 
589	 5.76608341983793E-02 
590	 5.75276541454545E-02 
591	 5.72632911924356E-02 
592	 5.69927318270619E-02 
593	 5.70989338179351E-02 
594	 5.73831387752758E-02 
595	 5.76830072018872E-02 
596	 5.77797053036528E-02 
597	 5.76268172736612E-02 
598	 0.057176786073622 
599	 5.70724960765177E-02 
600	 5.73746884376296E-02 
601	 5.73479699812164E-02 
602	 5.71670151192285E-02 
603	 5.70210954259727E-02 
604	 5.70034745449818E-02 
605	 5.69996737122214E-02 
606	 5.66203158691072E-02 
607	 5.64595875778296E-02 
608	 5.66541438901369E-02 
609	 5.64313921799451E-02 
610	 5.61378849955746E-02 
611	 5.62874347165155E-02 
612	 5.64064204588829E-02 
613	 0.056300319455741 
614	 5.57046482462638E-02 
615	 5.52910956905512E-02 
616	 5.53978969366243E-02 
617	 5.50281887613402E-02 
618	 0.054587450216284 
619	 5.50251672533231E-02 
620	 5.52311036639219E-02 
621	 5.49893215495808E-02 
622	 5.49508434373177E-02 
623	 5.48744416174154E-02 
624	 5.45518863934423E-02 
625	 5.43732469388254E-02 
626	 5.44119833607346E-02 
627	 5.47091707495255E-02 
628	 5.47304085466184E-02 
629	 5.43570495194038E-02 
630	 5.43862673978084E-02 
631	 5.45588601324909E-02 
632	 5.44689574813639E-02 
633	 5.43678441686504E-02 
634	 5.42438320787918E-02 
635	 0.053818202536397 
636	 5.36593795360446E-02 
637	 5.40249726309158E-02 
638	 5.40699722742298E-02 
639	 5.38332671838199E-02 
640	 5.36108676023272E-02 
641	 5.31602428592498E-02 
642	 5.25952427648259E-02 
643	 5.26675167273006E-02 
644	 0.05266346653944 
645	 0.051993008063125 
646	 5.17916989487452E-02 
647	 5.19761580795741E-02 
648	 5.17803838539722E-02 
649	 5.14336456470386E-02 
650	 0.051101285744542 
651	 5.12811463592378E-02 
652	 5.14627060021853E-02 
653	 5.10015392426651E-02 
654	 5.06631292930999E-02 
655	 5.06124004897883E-02 
656	 5.08028273503703E-02 
657	 5.07468693612398E-02 
658	 5.02193303838313E-02 
659	 4.97786239502475E-02 
660	 4.95648213153848E-02 
661	 4.97418540757172E-02 
662	 4.93223603325364E-02 
663	 4.82467070546102E-02 
664	 4.74973947318568E-02 
665	 4.73280638955902E-02 
666	 0.047832110583444 
667	 4.77815725646457E-02 
668	 4.72953605946014E-02 
669	 4.72691208907178E-02 
670	 4.71318023231849E-02 
671	 4.67958356719999E-02 
672	 4.68660717970536E-02 
673	 4.70767599840101E-02 
674	 0.047073973650671 
675	 4.70023467350797E-02 
676	 0.046968913308069 
677	 4.72016739886597E-02 
678	 4.74932845379365E-02 
679	 4.76887662449077E-02 
680	 4.74907732300294E-02 
681	 4.74453136486385E-02 
682	 4.84734780483083E-02 
683	 4.91053243839026E-02 
684	 4.91673438574108E-02 
685	 4.98067827513019E-02 
686	 5.06369444526005E-02 
687	 5.13421907811852E-02 
688	 5.26075493097836E-02 
689	 5.41034816072842E-02 
690	 5.51150976604622E-02 
691	 5.61283157788226E-02 
692	 5.73733485049737E-02 
693	 5.90465402561432E-02 
694	 6.08236070800719E-02 
695	 6.23060799651664E-02 
696	 6.42207252399673E-02 
697	 6.64117532922809E-02 
698	 6.80827279115878E-02 
699	 7.00294458516963E-02 
700	 7.24830938022419E-02 
701	 7.44760315259249E-02 
702	 7.61934612468736E-02 
703	 7.80546837864796E-02 
704	 8.00479324059454E-02 
705	 8.20504313529823E-02 
706	 0.083513095411613 
707	 0.085041393478935 
708	 8.69558120737805E-02 
709	 8.84201505755848E-02 
710	 8.96977672250384E-02 
711	 9.14920544722473E-02 
712	 9.32525223548693E-02 
713	 0.094744061612366 
714	 9.57674302855538E-02 
715	 9.67592627401338E-02 
716	 9.81691708448449E-02 
717	 9.92118504573573E-02 
718	 0.100081235811879 
719	 0.101873690682527 
720	 0.103044111825347 
721	 0.103241795527793 
722	 0.103668818412726 
723	 0.104361316653574 
724	 0.105244919231824 
725	 0.105870653974316 
726	 0.106366354054109 
727	 0.107747483605785 
728	 0.108590771011449 
729	 0.108323927973325 
730	 0.10836938290944 
731	 0.108816898867878 
732	 0.109524427194819 
733	 0.110250820073938 
734	 0.110875644152784 
735	 0.11126675134381 
736	 0.111468667236219 
737	 0.111572492206189 
738	 0.112191651388354 
739	 0.112971529554406 
740	 0.113094720797087 
741	 0.113108460646531 
742	 0.113204950518544 
743	 0.113422634965978 
744	 0.113730112030948 
745	 0.114078848183945 
746	 0.114211281294759 
747	 0.114262902731854 
748	 0.114655379018048 
749	 0.115208558101082 
750	 0.115719919075598 
751	 0.115537367783069 
752	 0.115189481818749 
753	 0.115283451874092 
754	 0.11559351540116 
755	 0.115996927214482 
756	 0.116314209113962 
757	 0.116451953000029 
758	 0.116418025493493 
759	 0.116727625065124 
760	 0.117402667827772 
761	 0.117588009009933 
762	 0.117645491964239 
763	 0.117624056326542 
764	 0.117242915186719 
765	 0.116889176155676 
766	 0.116778068817301 
767	 0.117165854989702 
768	 0.117750337146667 
769	 0.118208426209504 
770	 0.118361659479875 
771	 0.118298238411638 
772	 0.118563681822433 
773	 0.118844669815762 
774	 0.118953533356207 
775	 0.119259080393981 
776	 0.11950362066159 
777	 0.119127704798654 
778	 0.118924246582202 
779	 0.11912934856969 
780	 0.119598031568726 
781	 0.119940598094852 
782	 0.119888496168282 
783	 0.119993452896381 
784	 0.120315600921578 
785	 0.120840753649372 
786	 0.12079918103243 
787	 0.120202442480388 
788	 0.120468242165255 
789	 0.121005851605262 
790	 0.121215208009553 
791	 0.121610107999602 
792	 0.121973746557417 
793	 0.121577989602883 
794	 0.121211229111544 
795	 0.121155871655711 
796	 0.121181340546175 
797	 0.121307167760008 
798	 0.121546444452704 
799	 0.121650099599453 
800	 0.121627911086327 
801	 0.121626573366006 
802	 0.121797708571218 
803	 0.122099825385075 
804	 0.121905207516534 
805	 0.121660416243172 
806	 0.121892466304576 
807	 0.122483404979469 
808	 0.123219237248996 
809	 0.12361856498815 
810	 0.123784985640795 
811	 0.123745824620783 
812	 0.12342067783634 
813	 0.123349528378561 
814	 0.124209113427653 
815	 0.12467738516623 
816	 0.124587629293907 
817	 0.124724019883054 
818	 0.124384932725147 
819	 0.123576768807847 
820	 0.123895423407117 
821	 0.12447410006817 
822	 0.124184608578142 
823	 0.124529113452053 
824	 0.125469427970966 
825	 0.126097456821745 
826	 0.126177374722269 
827	 0.125730234886584 
828	 0.12570789630733 
829	 0.125950246613422 
830	 0.12613347361986 
831	 0.126277213372456 
832	 0.1262919777845 
833	 0.125860928797487 
834	 0.125903995100004 
835	 0.126689925837958 
836	 0.12734325817436 
837	 0.127396099085139 
838	 0.126471915626896 
839	 0.126047097642445 
840	 0.126317145977149 
841	 0.126764672532094 
842	 0.127488428073094 
843	 0.128256080959606 
844	 0.127817368738553 
845	 0.127049945797649 
846	 0.127049562243468 
847	 0.127468866689868 
848	 0.128003644419392 
849	 0.127935399686627 
850	 0.128154990526798 
851	 0.128806966955125 
852	 0.12851064137591 
853	 0.127914213415046 
854	 0.127843210684749 
855	 0.12834122404695 
856	 0.128865428473007 
857	 0.127961960649529 
858	 0.127542711049148 
859	 0.128078862006698 
860	 0.1283104257671 
861	 0.128365497679863 
862	 0.128402030629177 
863	 0.127951119554584 
864	 0.127453355338819 
865	 0.128059973138742 
866	 0.129178727911772 
867	 0.130169489318611 
868	 0.129283233114808 
869	 0.128231653905705 
870	 0.128432322048661 
871	 0.128735260014393 
872	 0.129028453721842 
873	 0.129419494151312 
874	 0.130076598528152 
875	 0.130839239841348 
876	 0.130986958153639 
877	 0.130749079688717 
878	 0.130342460287599 
879	 0.129932223649241 
880	 0.129784662022236 
881	 0.130225290635129 
882	 0.131251464047736 
883	 0.132448328238657 
884	 0.132593203146044 
885	 0.132184501534504 
886	 0.131741584550947 
887	 0.132595943064244 
888	 0.133879810028333 
889	 0.134230416271523 
890	 0.133208488023076 
891	 0.131624825726061 
892	 0.13237410493812 
893	 0.133293794108713 
894	 0.133360444280321 
895	 0.13301540660513 
896	 0.13286223512186 
897	 0.133522061024658 
898	 0.133637992440396 
899	 0.133535316481567 
900	 0.134935755315933 
901	 0.134667699624561 
902	 0.132668798289641 
903	 0.133556269652701 
904	 0.134660675227664 
905	 0.133942937142323 
906	 0.133729076677764 
907	 0.134166615813511 
908	 0.134926412067445 
909	 0.135494449008767 
910	 0.135814478572267 
911	 0.136615268604323 
912	 0.136693822026214 
913	 0.135583842419598 
914	 0.134856550868745 
915	 0.135213207751501 
916	 0.137122649357505 
917	 0.137461467883852 
918	 0.136540077552895 
919	 0.137162110909198 
920	 0.13759169879155 
921	 0.137301409854238 
922	 0.136527310339795 
923	 0.136573261630125 
924	 0.138506740549235 
925	 0.140722471733776 
926	 0.141790038222758 
927	 0.139012230866475 
928	 0.140132704501265 
929	 0.145869251681339 
930	 0.144653131152901 
931	 0.139753310250099 
932	 0.134577045958276 
933	 0.132498901034606 
934	 0.135493326100995 
935	 0.143917503094459 
936	 0.14232025436103 
937	 0.134773574969349 
938	 0.142133576912316 
939	 0.143590269871832 
940	 0.136218340472671 
941	 0.137517332353513 
942	 0.138676736565473 
943	 0.133738302321827 
944	 0.132528125031941 
945	 0.134717203552725 
946	 0.137602288758897 
947	 0.138661841703059 
948	 0.136924254698094 
949	 0.131355892085604 
950	 0.131402165762965 
951	 0.139077749312918 
952	 0.142241014962027 
953	 0.142506505632101 
954	 0.141979520876922 
955	 0.138851217381907 
956	 0.134912108572936 
957	 0.133178060918789 
958	 0.134210750889865 
959	 0.136968942984371 
960	 0.137401029972221 
961	 0.138099044230204 
962	 0.139948896536242 
963	 0.141286858527826 
964	 0.140102685105913 
965	 0.135170359872224 
966	 0.134641059925849 
967	 0.136553841764748 
968	 0.134141259949643 
969	 0.132939784358941 
970	 0.134152472235315 
971	 0.136664642387891 
972	 0.137878907466203 
973	 0.136979814697405 
974	 0.139460815459838 
975	 0.140946172758659 
976	 0.136614701666658 
977	 0.136859564855428 
978	 0.139421884985446 
979	 0.134815147521478 
980	 0.13292083149616 
981	 0.135816635303048 
982	 0.140372524994832 
983	 0.142001356343991 
984	 0.139100878609915 
985	 0.138258097715867 
986	 0.139432364708541 
987	 0.141469806766107 
988	 0.137783976485157 
989	 0.133229381382686 
990	 0.139844990665421 
991	 0.143559374348482 
992	 0.141257412427589 
993	 0.137780825268624 
994	 0.133843513683953 
995	 0.13101943587305 
996	 0.134664018606149 
997	 0.139942376624037 
998	 0.141845748028624 
999	 0.140617904814599 
1000	 0.138216125657051 
1001	 0.137909474866261 
1002	 0.141276849133025 
1003	 0.146398358695385 
1004	 0.146403574171561 
1005	 0.144423299995897 
1006	 0.142680247568254 
1007	 0.145752340954761 
1008	 0.145938772654394 
1009	 0.138910563883358 
1010	 0.142619401972072 
1011	 0.149727278355083 
1012	 0.147174446018967 
1013	 0.142828609349456 
1014	 0.140863363338039 
1015	 0.146790461566106 
1016	 0.152758654508899 
1017	 0.154453826000598 
1018	 0.146506664746559 
1019	 0.141891191414788 
1020	 0.146636836729731 
1021	 0.148329993188467 
1022	 0.146932228065568 
1023	 0.143839567374121 
1024	 0.143670741538434 
1025	 0.144542086192842 
1026	 0.142030321969233 
1027	 0.143127588432064 
1028	 0.146051584401241 
1029	 0.140601338510086 
1030	 0.133868171625619 
1031	 0.131814132860045 
1032	 0.147419290156741 
1033	 0.156884083103273 
1034	 0.14720646526278 
1035	 0.137163800912533 
1036	 0.13634122019414 
1037	 0.15059721755023 
1038	 0.154929872361964 
1039	 0.150361513475883 
1040	 0.147521408730392 
1041	 0.146413797852509 
1042	 0.147636516668414 
1043	 0.152331627205537 
1044	 0.151965633191029 
1045	 0.147003254839899 
1046	 0.155273639371447 
1047	 0.15688012197721 
1048	 0.144104296161068 
1049	 0.14709317650359 
1050	 0.152741167201875 
1051	 0.146750734018712 
1052	 0.139948976584799 
1053	 0.133617724333098 
1054	 0.127016976443486 
1055	 0.14475906715732 
1056	 0.172401276599693 
1057	 0.166623225161517 
1058	 0.161913427432337 
1059	 0.165205871208454 
1060	 0.162951025415469 
1061	 0.146658254158017 
1062	 0.121702302069814 
1063	 0.12955962194963 
1064	 0.146805326576582 
1065	 0.152689395286004 
1066	 0.148122447769564 
1067	 0.150550044493284 
1068	 0.171915952765712 
1069	 0.143190355022416 
1070	 0.100903475085301 
1071	 0.134543846275701 
1072	 0.146317871271343 
1073	 0.131924839931277 
1074	 0.136999267395897 
1075	 0.15714368947345 
