Wavelength	A00001.asd
325	 2.82386993550293E-02 
326	 0.029401590901617 
327	 4.31870678644291E-02 
328	 4.49394544875421E-02 
329	 4.65286548089172E-02 
330	 5.03464441370524E-02 
331	 4.60439205295528E-02 
332	 4.21541592926976E-02 
333	 4.66622864434297E-02 
334	 4.64243791574662E-02 
335	 4.20742092002662E-02 
336	 3.99780303145945E-02 
337	 3.77106998186205E-02 
338	 3.51665105343399E-02 
339	 3.35688060670102E-02 
340	 3.56973240631885E-02 
341	 0.042554086854817 
342	 4.05179383278945E-02 
343	 3.48967405846575E-02 
344	 3.99348502915695E-02 
345	 4.06883546232004E-02 
346	 3.63230626769294E-02 
347	 3.94230077049531E-02 
348	 4.28138984061819E-02 
349	 4.18041449279781E-02 
350	 4.11006229748199E-02 
351	 4.10437771958757E-02 
352	 4.12237093042843E-02 
353	 4.10265101209351E-02 
354	 3.99918805735046E-02 
355	 3.67118619301389E-02 
356	 3.58198307814882E-02 
357	 3.91542098782598E-02 
358	 3.78995480468019E-02 
359	 3.55340708720258E-02 
360	 3.87835024294044E-02 
361	 3.90123977481057E-02 
362	 3.61407883017382E-02 
363	 3.68679227399628E-02 
364	 3.90029422410492E-02 
365	 4.08193298244819E-02 
366	 0.039614517251273 
367	 3.76434455475223E-02 
368	 3.82267845281988E-02 
369	 3.76217118719019E-02 
370	 3.59533857984287E-02 
371	 0.036356628998108 
372	 3.73360562873211E-02 
373	 3.81712626818878E-02 
374	 3.98085737543617E-02 
375	 4.10862716585684E-02 
376	 4.04308769689895E-02 
377	 3.82978685117818E-02 
378	 3.57889391289537E-02 
379	 3.57179057712396E-02 
380	 3.63312197128868E-02 
381	 3.68623121906594E-02 
382	 0.03880051562748 
383	 4.04353772336699E-02 
384	 3.95027591585058E-02 
385	 3.77385763318681E-02 
386	 3.67921012589985E-02 
387	 4.02705651184846E-02 
388	 4.21150558455775E-02 
389	 3.99888851952503E-02 
390	 3.79012866544401E-02 
391	 3.69380130550444E-02 
392	 3.77691791319987E-02 
393	 3.79252006347358E-02 
394	 3.76117457176942E-02 
395	 0.039135893663075 
396	 4.01744428415946E-02 
397	 3.99423938288995E-02 
398	 4.00667613673304E-02 
399	 0.039916358032846 
400	 3.87774513805105E-02 
401	 3.82491397141751E-02 
402	 3.83091370377293E-02 
403	 3.80977758885739E-02 
404	 3.81267914858345E-02 
405	 3.85391666573085E-02 
406	 3.89735451694923E-02 
407	 3.92362487293061E-02 
408	 3.91486360826508E-02 
409	 3.89978391447222E-02 
410	 3.89958623113003E-02 
411	 0.039667451745828 
412	 3.95478617160619E-02 
413	 3.83023689930923E-02 
414	 3.84737897719232E-02 
415	 3.92544841105351E-02 
416	 3.92975721960161E-02 
417	 3.94061674519409E-02 
418	 3.95512746976765E-02 
419	 3.90792260827213E-02 
420	 3.88048963699632E-02 
421	 3.91188909423304E-02 
422	 3.93761791217656E-02 
423	 3.95003111997817E-02 
424	 3.95108544169657E-02 
425	 3.91851631963823E-02 
426	 3.86712870340584E-02 
427	 0.038614054762987 
428	 3.88512431488312E-02 
429	 3.92245297237116E-02 
430	 3.94044107710935E-02 
431	 0.039473468714221 
432	 0.039655631137831 
433	 3.98743080367442E-02 
434	 4.00236963309864E-02 
435	 3.97846835625959E-02 
436	 3.96237262641455E-02 
437	 3.98294590934894E-02 
438	 4.00734171305975E-02 
439	 4.01760212439035E-02 
440	 3.98842081704508E-02 
441	 3.97716949106224E-02 
442	 3.99392720348223E-02 
443	 3.99585764992742E-02 
444	 4.00186779334777E-02 
445	 4.02576759384127E-02 
446	 4.03645673835497E-02 
447	 0.040280943839202 
448	 3.99621869149559E-02 
449	 3.98144132959715E-02 
450	 0.039973251394912 
451	 4.02692424427697E-02 
452	 4.05484245703407E-02 
453	 4.06731988251058E-02 
454	 4.07619138668027E-02 
455	 4.07737475996999E-02 
456	 4.04865317350674E-02 
457	 4.04262799122891E-02 
458	 0.040733002689422 
459	 4.07313174663322E-02 
460	 4.08334916651701E-02 
461	 4.15602395464887E-02 
462	 4.16750867641482E-02 
463	 0.041215249541256 
464	 4.12074280036709E-02 
465	 4.12366581874847E-02 
466	 4.11554206209236E-02 
467	 4.13452890023283E-02 
468	 4.16945574739367E-02 
469	 4.19867535220692E-02 
470	 4.20901216995191E-02 
471	 0.042011296724067 
472	 0.041934631175715 
473	 4.18803319546811E-02 
474	 4.18589110708343E-02 
475	 4.18298788070107E-02 
476	 4.17171666857233E-02 
477	 4.13507271918952E-02 
478	 4.16540340785003E-02 
479	 4.25471176797549E-02 
480	 4.25167668704201E-02 
481	 4.23673381798721E-02 
482	 4.27234104338588E-02 
483	 4.25811144407543E-02 
484	 4.21627008510466E-02 
485	 0.042381473465309 
486	 4.26160811263655E-02 
487	 4.26444842130024E-02 
488	 4.24855509290908E-02 
489	 4.25403160476643E-02 
490	 4.31547968780481E-02 
491	 4.31898483353009E-02 
492	 4.27953261199959E-02 
493	 0.042976393827777 
494	 4.33053730133296E-02 
495	 4.35103082698985E-02 
496	 4.29800346277647E-02 
497	 4.26591446182119E-02 
498	 4.38157750043943E-02 
499	 4.44601582573526E-02 
500	 4.43065985985811E-02 
501	 4.42180989557669E-02 
502	 4.42079776974005E-02 
503	 0.044335594041249 
504	 4.48565438865222E-02 
505	 4.53661599463913E-02 
506	 4.51549458370366E-02 
507	 4.50798030793682E-02 
508	 4.53493162926779E-02 
509	 4.57261251465521E-02 
510	 4.60169350163457E-02 
511	 4.61000876407223E-02 
512	 4.63922715542963E-02 
513	 4.68170691549385E-02 
514	 4.70030709346098E-02 
515	 4.73464572116315E-02 
516	 4.79337824299735E-02 
517	 4.83852358557471E-02 
518	 4.89028197167995E-02 
519	 4.97017234083169E-02 
520	 5.02148917671697E-02 
521	 5.04628708169135E-02 
522	 5.08097760984339E-02 
523	 5.12968147353979E-02 
524	 5.18860835030941E-02 
525	 5.20713820737207E-02 
526	 5.22331226767705E-02 
527	 5.29731747394423E-02 
528	 5.36716112221142E-02 
529	 5.40675992974625E-02 
530	 5.38398404011991E-02 
531	 5.38843745657322E-02 
532	 5.47047430284422E-02 
533	 5.50363704381248E-02 
534	 5.50417707351698E-02 
535	 5.54356052223678E-02 
536	 0.055624661541979 
537	 5.55717000541414E-02 
538	 5.59543041418215E-02 
539	 5.63770934146534E-02 
540	 0.056454906299128 
541	 5.68356076795372E-02 
542	 5.73868302469661E-02 
543	 5.74163343238697E-02 
544	 5.75140788130924E-02 
545	 5.78582015062773E-02 
546	 5.79097591501053E-02 
547	 5.79099897178249E-02 
548	 5.82279207145235E-02 
549	 5.85148196862007E-02 
550	 5.87288150103233E-02 
551	 5.90370659473923E-02 
552	 5.93690986718532E-02 
553	 5.96468710091846E-02 
554	 5.96156033330422E-02 
555	 5.95036137656357E-02 
556	 5.97941406209362E-02 
557	 6.00805630551389E-02 
558	 0.060229420707638 
559	 6.02735238441873E-02 
560	 6.03075375668501E-02 
561	 6.04016079491222E-02 
562	 6.02383928442698E-02 
563	 5.99688741714944E-02 
564	 6.01127926961063E-02 
565	 0.060373565868991 
566	 6.05598658316922E-02 
567	 6.03270811734791E-02 
568	 5.99541653750457E-02 
569	 5.98369720929544E-02 
570	 5.97909929811672E-02 
571	 5.96870503206491E-02 
572	 5.92154489179229E-02 
573	 0.05884312080587 
574	 5.88331342994006E-02 
575	 5.87750097455166E-02 
576	 5.87497964051744E-02 
577	 5.90352573486885E-02 
578	 5.90372894492008E-02 
579	 5.86944826391342E-02 
580	 5.87086447455748E-02 
581	 5.85418411431925E-02 
582	 5.77623835224271E-02 
583	 5.73313965059905E-02 
584	 5.73513414414255E-02 
585	 5.76444868396382E-02 
586	 0.057755908556989 
587	 5.75541329800868E-02 
588	 5.77036411623683E-02 
589	 5.79112371714573E-02 
590	 5.77209897480751E-02 
591	 5.74543164924057E-02 
592	 0.057239704951625 
593	 5.71780366897337E-02 
594	 5.72032298736891E-02 
595	 5.72663729471329E-02 
596	 5.73292943210703E-02 
597	 5.73560186252209E-02 
598	 5.72861274678207E-02 
599	 5.74058983962676E-02 
600	 5.76845832128556E-02 
601	 5.76181385481572E-02 
602	 5.73181156291463E-02 
603	 0.056931815133357 
604	 5.67476764137455E-02 
605	 5.67750337811492E-02 
606	 5.69289705417623E-02 
607	 5.68360685830858E-02 
608	 5.64199474468951E-02 
609	 5.63067859312147E-02 
610	 0.056359542053887 
611	 5.63308285212913E-02 
612	 5.63661730906502E-02 
613	 5.64099063715911E-02 
614	 5.62688858016361E-02 
615	 5.57406540055428E-02 
616	 5.48620980556627E-02 
617	 5.48967703339631E-02 
618	 5.54579543443784E-02 
619	 5.55876466726253E-02 
620	 5.54880427399764E-02 
621	 5.52121589364555E-02 
622	 5.48404172614802E-02 
623	 5.45551955151677E-02 
624	 5.45243815148836E-02 
625	 5.47855466663979E-02 
626	 5.50859935286594E-02 
627	 5.47627971487484E-02 
628	 5.45491621009267E-02 
629	 5.47008192222668E-02 
630	 5.48450045111137E-02 
631	 0.054829276827881 
632	 5.45163154616385E-02 
633	 5.43384644840664E-02 
634	 5.43588665966587E-02 
635	 5.43983296243666E-02 
636	 5.43988318094901E-02 
637	 5.43237535832315E-02 
638	 5.42510898703742E-02 
639	 5.41351485277795E-02 
640	 5.38792524974004E-02 
641	 5.35683540085979E-02 
642	 5.32712634245432E-02 
643	 5.31717015989659E-02 
644	 5.28717222535303E-02 
645	 5.20928372294902E-02 
646	 5.21331708720273E-02 
647	 0.052643912022157 
648	 0.052026553218495 
649	 5.15698399846673E-02 
650	 0.051659870891756 
651	 5.14152444942211E-02 
652	 5.10730025632534E-02 
653	 5.09919261392745E-02 
654	 5.11164917767131E-02 
655	 5.12421676488333E-02 
656	 5.06802905118281E-02 
657	 5.02332392626261E-02 
658	 5.02703739853824E-02 
659	 0.049584047171571 
660	 4.87629646894301E-02 
661	 4.89666500571642E-02 
662	 4.91364042228932E-02 
663	 0.048940493846164 
664	 0.048359900843343 
665	 4.78735700415485E-02 
666	 0.047860218489134 
667	 4.77708425311702E-02 
668	 4.76380945947514E-02 
669	 4.78741317027395E-02 
670	 4.76669975571114E-02 
671	 4.69128762548357E-02 
672	 4.68412007490338E-02 
673	 0.047073188825667 
674	 4.70628089639126E-02 
675	 4.70407451780999E-02 
676	 4.71281176371634E-02 
677	 0.047668125480193 
678	 4.77342628161112E-02 
679	 4.70048391813657E-02 
680	 4.70396701449048E-02 
681	 4.76907881989701E-02 
682	 4.84198781058197E-02 
683	 4.89831892698751E-02 
684	 4.94232623131282E-02 
685	 5.04328386100686E-02 
686	 0.051318650459609 
687	 5.15366739452887E-02 
688	 5.27549166623998E-02 
689	 5.45220694772764E-02 
690	 5.54122026755777E-02 
691	 0.05626235769357 
692	 5.74145816069853E-02 
693	 5.90765261935265E-02 
694	 6.09576264755345E-02 
695	 6.26684034707209E-02 
696	 6.44933630843957E-02 
697	 6.64196224942132E-02 
698	 6.83187827940343E-02 
699	 7.02969574222699E-02 
700	 7.24048942876162E-02 
701	 7.48664480237287E-02 
702	 0.077145127967337 
703	 0.078515723676599 
704	 8.01703435380281E-02 
705	 8.21654644085544E-02 
706	 8.34613579796366E-02 
707	 8.48528247242281E-02 
708	 8.67965300974725E-02 
709	 0.088555618637023 
710	 9.01123847585007E-02 
711	 9.16449413972635E-02 
712	 9.30607439999659E-02 
713	 9.43383742377093E-02 
714	 9.55309241798087E-02 
715	 9.66034777810207E-02 
716	 9.75843229162214E-02 
717	 9.86275045576813E-02 
718	 9.98274697029377E-02 
719	 0.101205462761036 
720	 0.102121574773726 
721	 0.102505734270122 
722	 0.103228118523112 
723	 0.104199913083577 
724	 0.105206178056529 
725	 0.105743736196494 
726	 0.106041063942489 
727	 0.107422623912284 
728	 0.108358521601927 
729	 0.108219001093517 
730	 0.108430108557499 
731	 0.108924337847076 
732	 0.109364709426636 
733	 0.10988470013866 
734	 0.110443214356312 
735	 0.110800434511952 
736	 0.111197623645292 
737	 0.111728893427908 
738	 0.111787902280238 
739	 0.111782607531376 
740	 0.112642851183582 
741	 0.113196481036578 
742	 0.113225630626875 
743	 0.11348632479527 
744	 0.113785410841374 
745	 0.113928416473423 
746	 0.113757782458303 
747	 0.11356185839033 
748	 0.114050518500603 
749	 0.114829023085001 
750	 0.115533552205342 
751	 0.115137901552049 
752	 0.114594518323884 
753	 0.114958782081256 
754	 0.11522221659817 
755	 0.115372732748311 
756	 0.115996928506663 
757	 0.116571096181252 
758	 0.116884192203002 
759	 0.11707517984189 
760	 0.117073761089606 
761	 0.116657244369108 
762	 0.116572938510505 
763	 0.116788735353011 
764	 0.116718157153352 
765	 0.116537742661651 
766	 0.116455795971919 
767	 0.117218771779676 
768	 0.118068862160129 
769	 0.118071830279746 
770	 0.118162479148682 
771	 0.118427698926981 
772	 0.118343797200151 
773	 0.118224827451013 
774	 0.118299648519228 
775	 0.118610872624073 
776	 0.118903825849836 
777	 0.118718394546558 
778	 0.118490817019784 
779	 0.118513678979411 
780	 0.119417124585564 
781	 0.120032751686047 
782	 0.119524232164033 
783	 0.119435744699478 
784	 0.119760449700311 
785	 0.119944314789951 
786	 0.11985077896917 
787	 0.11958293046891 
788	 0.119906168626452 
789	 0.120548670033248 
790	 0.121188322014105 
791	 0.121661776761327 
792	 0.12179603220167 
793	 0.121248292901058 
794	 0.120972640364763 
795	 0.121173947617504 
796	 0.120828414922926 
797	 0.120398891725587 
798	 0.12040912996834 
799	 0.12082804584441 
800	 0.121327464291463 
801	 0.121007246007154 
802	 0.120953435776334 
803	 0.121392162866936 
804	 0.120923476101354 
805	 0.120702010038767 
806	 0.121985850507257 
807	 0.122850167080937 
808	 0.122997902247253 
809	 0.122819268258396 
810	 0.12256193168585 
811	 0.122396527020203 
812	 0.122281843906191 
813	 0.122439215877 
814	 0.123144147580982 
815	 0.124023344723495 
816	 0.124677924462693 
817	 0.124434443122754 
818	 0.123685327153239 
819	 0.122940491922408 
820	 0.12370118289038 
821	 0.124624442997336 
822	 0.124032675750501 
823	 0.123729883301012 
824	 0.124133238350462 
825	 0.125308523560566 
826	 0.125852712837352 
827	 0.125271940321332 
828	 0.124630580523478 
829	 0.12465011534926 
830	 0.12599119284158 
831	 0.126631058729938 
832	 0.126256640384419 
833	 0.125309115338912 
834	 0.125053109543545 
835	 0.125867947410092 
836	 0.12623024517832 
837	 0.12614077235303 
838	 0.125793748722335 
839	 0.126369168687023 
840	 0.127406255885018 
841	 0.126723740795344 
842	 0.126681626147293 
843	 0.1278690877308 
844	 0.127420808641778 
845	 0.126622465926386 
846	 0.127115864354124 
847	 0.127194066545294 
848	 0.12683230644092 
849	 0.126918949265324 
850	 0.127375181362822 
851	 0.127996796795203 
852	 0.127759616011781 
853	 0.127180369818009 
854	 0.126937600194139 
855	 0.127324792601846 
856	 0.127827668132787 
857	 0.126915317214198 
858	 0.12655384805629 
859	 0.127215698390747 
860	 0.127575432775437 
861	 0.127718257060405 
862	 0.127777734421616 
863	 0.127451663755577 
864	 0.12719178796686 
865	 0.128223579006583 
866	 0.128639588694369 
867	 0.128040162676817 
868	 0.127870525153695 
869	 0.12806155389126 
870	 0.128511831764346 
871	 0.129357588246143 
872	 0.130100298554062 
873	 0.12979041360576 
874	 0.129544312167534 
875	 0.129624250674784 
876	 0.129532008230709 
877	 0.129457758363139 
878	 0.129575171678456 
879	 0.130142957098163 
880	 0.130706828495369 
881	 0.13048586275935 
882	 0.130885808233488 
883	 0.131949715975444 
884	 0.132522710450607 
885	 0.132517504941743 
886	 0.131972051943449 
887	 0.131387194718233 
888	 0.131706740092051 
889	 0.133970363997856 
890	 0.133880579887643 
891	 0.131917759111569 
892	 0.133253655628122 
893	 0.13355440288292 
894	 0.131454120351344 
895	 0.131847009473863 
896	 0.133205932076758 
897	 0.133254174651703 
898	 0.132933188023622 
899	 0.132751025873142 
900	 0.133577893530182 
901	 0.133870169384229 
902	 0.133504369194569 
903	 0.134425917638588 
904	 0.135289449819831 
905	 0.135045593240374 
906	 0.134506949632816 
907	 0.134323892578865 
908	 0.135439475273507 
909	 0.135390719443206 
910	 0.134254354435276 
911	 0.135289295375145 
912	 0.136619008792109 
913	 0.136952565350178 
914	 0.13561412685902 
915	 0.134404409240295 
916	 0.135451714649549 
917	 0.135518302534504 
918	 0.134811260419226 
919	 0.135748835963627 
920	 0.13686086660477 
921	 0.137593007263314 
922	 0.137991019971122 
923	 0.137960593375125 
924	 0.137559506730701 
925	 0.13847417559827 
926	 0.140054574359227 
927	 0.140146548423405 
928	 0.139847639594701 
929	 0.139371039326951 
930	 0.138272369789546 
931	 0.136126549200988 
932	 0.133048840281344 
933	 0.131634065156782 
934	 0.134196574244186 
935	 0.142133404917387 
936	 0.138528844682679 
937	 0.128957101032234 
938	 0.13815603693877 
939	 0.144981456172202 
940	 0.143483353453856 
941	 0.139573076874674 
942	 0.136430774376697 
943	 0.135949167757123 
944	 0.133333708799616 
945	 0.13185617435175 
946	 0.137597339020798 
947	 0.138554451157841 
948	 0.134672995479519 
949	 0.136551511093506 
950	 0.138602454901042 
951	 0.138484640563917 
952	 0.136916448942566 
953	 0.136125739867699 
954	 0.137808296927387 
955	 0.138219807881622 
956	 0.136490994009781 
957	 0.132065806336573 
958	 0.132076287255278 
959	 0.136082307624258 
960	 0.135953325776129 
961	 0.133708836156611 
962	 0.13150712067449 
963	 0.135443629174572 
964	 0.138753918224751 
965	 0.13517188125192 
966	 0.136075110450442 
967	 0.139245809496756 
968	 0.136547953331378 
969	 0.134446339857354 
970	 0.134577774241739 
971	 0.136014185055626 
972	 0.13720020862295 
973	 0.137631132715531 
974	 0.140956862660275 
975	 0.142529218762041 
976	 0.137448196328052 
977	 0.13527857676605 
978	 0.136622544269735 
979	 0.138381538588829 
980	 0.140191681718749 
981	 0.140964165284769 
982	 0.137955240183498 
983	 0.13448794396979 
984	 0.133001937213119 
985	 0.135631383824611 
986	 0.139397239992604 
987	 0.140935169516563 
988	 0.141638914300733 
989	 0.141552643524837 
990	 0.140314074872931 
991	 0.140257915831698 
992	 0.141319562891411 
993	 0.140859949368307 
994	 0.138479017505754 
995	 0.134618681898564 
996	 0.133069243209131 
997	 0.13381273223873 
998	 0.136234669986116 
999	 0.138151719640758 
1000	 0.139857714908563 
1001	 0.14282270613637 
1002	 0.145427001887583 
1003	 0.146103530658308 
1004	 0.140981920109881 
1005	 0.140895711785233 
1006	 0.147089136963066 
1007	 0.140953373745808 
1008	 0.134029471685039 
1009	 0.135602560931286 
1010	 0.139397963279261 
1011	 0.140845396077254 
1012	 0.135538686745192 
1013	 0.139370576191718 
1014	 0.148709467245432 
1015	 0.146512306567152 
1016	 0.147784304056797 
1017	 0.152529204740514 
1018	 0.14054037152066 
1019	 0.133322450352728 
1020	 0.141042691886522 
1021	 0.145842223812623 
1022	 0.143628940649287 
1023	 0.133337967069056 
1024	 0.132231781094736 
1025	 0.137913694974232 
1026	 0.141456057721897 
1027	 0.139388300152309 
1028	 0.133760496353684 
1029	 0.132907337377168 
1030	 0.13805988430157 
1031	 0.147691714681034 
1032	 0.152951417825295 
1033	 0.155358448760051 
1034	 0.155205541234751 
1035	 0.146087922088223 
1036	 0.14087039316408 
1037	 0.151343177935877 
1038	 0.148389344713732 
1039	 0.13622635548636 
1040	 0.13212904292658 
1041	 0.144508059240459 
1042	 0.16638564256628 
1043	 0.170964962754621 
1044	 0.165516019304469 
1045	 0.153733320191414 
1046	 0.141103684634423 
1047	 0.140011645166751 
1048	 0.153911774589934 
1049	 0.158657415356192 
1050	 0.155821782319541 
1051	 0.149884772232513 
1052	 0.150234152009363 
1053	 0.147989054118536 
1054	 0.128609716060183 
1055	 0.12546369202769 
1056	 0.137630638392644 
1057	 0.145393287546974 
1058	 0.15158737864264 
1059	 0.154020246336619 
1060	 0.145285168285535 
1061	 0.140964688466938 
1062	 0.147770510280757 
1063	 0.159940862336756 
1064	 0.158091831277179 
1065	 0.134277199094647 
1066	 0.150562941576377 
1067	 0.175440403883557 
1068	 0.168560789362802 
1069	 0.137611490018011 
1070	 0.105509286917819 
1071	 0.11870596527935 
1072	 0.136191155628061 
1073	 0.149998422358704 
1074	 0.152612245414324 
1075	 0.155754513394239 
