Wavelength	A00020.asd
325	 4.86099544892945E-02 
326	 5.48499709190648E-02 
327	 6.35045895887763E-02 
328	 5.50958440172477E-02 
329	 5.06230184309619E-02 
330	 5.59710315924524E-02 
331	 5.85897379861408E-02 
332	 5.88047133830929E-02 
333	 5.78794705232734E-02 
334	 5.72530702326148E-02 
335	 5.82931498576968E-02 
336	 6.44472589329168E-02 
337	 6.45487995088725E-02 
338	 5.79855005324135E-02 
339	 0.059250271376411 
340	 6.08055357802938E-02 
341	 5.66282787503993E-02 
342	 5.53113326607374E-02 
343	 5.79825578036662E-02 
344	 0.065292800515952 
345	 6.39943799482116E-02 
346	 5.50674164358485E-02 
347	 5.69038236699404E-02 
348	 6.13503042110636E-02 
349	 6.24350729551814E-02 
350	 6.11742184838662E-02 
351	 5.89622998766078E-02 
352	 0.05774374904519 
353	 5.60195307239937E-02 
354	 5.48088865001451E-02 
355	 5.90899587332295E-02 
356	 6.18108883107613E-02 
357	 5.95103609827452E-02 
358	 6.08508370439218E-02 
359	 6.36802151825543E-02 
360	 6.33418200102701E-02 
361	 6.12946793749808E-02 
362	 5.92112970306606E-02 
363	 6.14542238233038E-02 
364	 0.062429470371248 
365	 5.99137326142301E-02 
366	 0.060252046012566 
367	 6.17734060941337E-02 
368	 0.061421024701478 
369	 6.10353191880292E-02 
370	 6.08475822598475E-02 
371	 6.00170786037155E-02 
372	 6.03937522307021E-02 
373	 6.25787211476437E-02 
374	 6.32677564537621E-02 
375	 6.30170614676909E-02 
376	 0.063113154123552 
377	 6.31724531725729E-02 
378	 0.063267292896835 
379	 6.38073872747444E-02 
380	 0.064179842033156 
381	 6.39985163856837E-02 
382	 6.28674758607817E-02 
383	 6.21741359068649E-02 
384	 6.37226005456138E-02 
385	 6.56150914326256E-02 
386	 6.65265509409793E-02 
387	 6.44097106152849E-02 
388	 0.06224225374936 
389	 6.14473020642895E-02 
390	 6.11035574476725E-02 
391	 6.18970451407276E-02 
392	 6.45972967650882E-02 
393	 6.47854767289157E-02 
394	 6.30197565349749E-02 
395	 6.38784046097457E-02 
396	 6.41679732865538E-02 
397	 6.29454053387588E-02 
398	 6.26079175493356E-02 
399	 6.24964871389534E-02 
400	 0.061779664121993 
401	 6.17526142264529E-02 
402	 6.23147749357886E-02 
403	 6.28191007723245E-02 
404	 6.26722415087332E-02 
405	 6.19318972054117E-02 
406	 6.26332207045967E-02 
407	 6.39323570647458E-02 
408	 6.45676448441782E-02 
409	 6.38277478595893E-02 
410	 6.24542516834578E-02 
411	 6.29536287606774E-02 
412	 6.37048888335556E-02 
413	 6.39029269842772E-02 
414	 6.37248772073522E-02 
415	 6.34495612989851E-02 
416	 6.34072975800348E-02 
417	 6.37558200926978E-02 
418	 6.43227259080577E-02 
419	 6.44580647120712E-02 
420	 6.45749997406211E-02 
421	 6.48839470234544E-02 
422	 6.52200511837986E-02 
423	 6.54516651489008E-02 
424	 6.54242637139533E-02 
425	 6.53365149548218E-02 
426	 6.53363855384487E-02 
427	 6.57244481338366E-02 
428	 6.60869321842058E-02 
429	 6.61604553910308E-02 
430	 6.61886230376544E-02 
431	 6.62920998518443E-02 
432	 6.66313947788103E-02 
433	 6.65242120546151E-02 
434	 6.60455736390898E-02 
435	 6.61002926514174E-02 
436	 6.62784134972387E-02 
437	 6.63515040174176E-02 
438	 6.69907612928169E-02 
439	 6.76426828709179E-02 
440	 6.70966078478769E-02 
441	 6.70303320357914E-02 
442	 6.77240464377949E-02 
443	 6.80313757247323E-02 
444	 0.06823808749839 
445	 0.068593289766372 
446	 6.88870815201757E-02 
447	 6.90601856830333E-02 
448	 6.90476723062579E-02 
449	 6.90328650709832E-02 
450	 6.91046094948444E-02 
451	 0.069276619082684 
452	 6.95691188828562E-02 
453	 0.069993184874925 
454	 7.04695679834375E-02 
455	 7.07979989777828E-02 
456	 7.04974542158184E-02 
457	 7.02070468138954E-02 
458	 7.02455960688364E-02 
459	 7.07153323494971E-02 
460	 7.10398591911722E-02 
461	 7.05589747897729E-02 
462	 7.02948883758702E-02 
463	 7.03465444929298E-02 
464	 7.01739585490639E-02 
465	 7.02312076961551E-02 
466	 7.07334990665259E-02 
467	 7.15031464886473E-02 
468	 7.20232043484644E-02 
469	 7.16107130351273E-02 
470	 7.13287239445169E-02 
471	 7.13975073410704E-02 
472	 7.14593532787006E-02 
473	 7.15100013288868E-02 
474	 7.15449257860669E-02 
475	 7.15394633820373E-02 
476	 7.17154416704333E-02 
477	 7.25202332799487E-02 
478	 7.24902594502498E-02 
479	 7.16312574707171E-02 
480	 7.18597372826845E-02 
481	 0.072396086940052 
482	 7.25775964514576E-02 
483	 7.27434303472673E-02 
484	 7.29821144954949E-02 
485	 7.35189592903065E-02 
486	 7.31741820345904E-02 
487	 7.20031761474171E-02 
488	 7.27375701223035E-02 
489	 7.37003589356308E-02 
490	 7.30990243097795E-02 
491	 0.072679796163555 
492	 7.27828665270844E-02 
493	 7.34226965824798E-02 
494	 7.38640755128328E-02 
495	 0.073797765673176 
496	 7.36523478175686E-02 
497	 7.36224390583982E-02 
498	 7.38951555159997E-02 
499	 7.42667564221477E-02 
500	 7.45939389487934E-02 
501	 7.46277297371093E-02 
502	 7.45818834162238E-02 
503	 7.46246927011614E-02 
504	 7.49499420942366E-02 
505	 7.53245989036815E-02 
506	 7.53298917965802E-02 
507	 7.52855501803844E-02 
508	 0.075338847930804 
509	 7.57247134105004E-02 
510	 7.59033892054502E-02 
511	 7.55253722319525E-02 
512	 7.57812159651841E-02 
513	 7.64448701666486E-02 
514	 7.64909170279782E-02 
515	 7.67134084939459E-02 
516	 0.077231328432115 
517	 7.71920998187884E-02 
518	 7.69313320667122E-02 
519	 7.68785957460897E-02 
520	 7.68622389692376E-02 
521	 7.69104232394464E-02 
522	 7.71401423436308E-02 
523	 0.077523262727153 
524	 7.80065678897773E-02 
525	 7.83958020716045E-02 
526	 7.85730571792733E-02 
527	 7.84099884225123E-02 
528	 7.83401010584564E-02 
529	 7.85033208208805E-02 
530	 7.89280756209339E-02 
531	 7.92611757980876E-02 
532	 7.92874898682985E-02 
533	 7.93705146081992E-02 
534	 7.95005395647916E-02 
535	 7.95489463949325E-02 
536	 7.95522109404011E-02 
537	 7.95927017649525E-02 
538	 8.00006833679327E-02 
539	 8.03729812197155E-02 
540	 8.03232550462072E-02 
541	 0.080345269181908 
542	 8.04518442073329E-02 
543	 8.03358862495283E-02 
544	 8.05788452840426E-02 
545	 8.12518106154579E-02 
546	 8.11812684528804E-02 
547	 8.09050595001124E-02 
548	 8.12570244643195E-02 
549	 8.15145769739587E-02 
550	 8.16120680848175E-02 
551	 8.19439164770503E-02 
552	 8.23168548131485E-02 
553	 0.082561214090739 
554	 0.0823208346605 
555	 0.082017321735989 
556	 8.25295389833265E-02 
557	 8.28839405443021E-02 
558	 8.28326637021981E-02 
559	 8.27936427992407E-02 
560	 8.28588942819612E-02 
561	 8.30811027691271E-02 
562	 8.31656507408541E-02 
563	 8.31875984267236E-02 
564	 8.35597703492587E-02 
565	 8.36013456182593E-02 
566	 0.08317108676819 
567	 8.32719663611064E-02 
568	 8.35433894080428E-02 
569	 8.34139462705085E-02 
570	 8.36791201581314E-02 
571	 8.42876805970724E-02 
572	 8.44793328126854E-02 
573	 8.43094278605487E-02 
574	 8.39060559861792E-02 
575	 8.40673118941145E-02 
576	 8.44924064019537E-02 
577	 8.44294579156998E-02 
578	 8.41915274037627E-02 
579	 8.39284653618072E-02 
580	 8.38643383649547E-02 
581	 8.38964231733739E-02 
582	 8.39306930459767E-02 
583	 0.084082755069625 
584	 8.43631699672215E-02 
585	 8.48076084539866E-02 
586	 8.50656234317114E-02 
587	 8.49909924912827E-02 
588	 8.47967037024447E-02 
589	 8.44968595887603E-02 
590	 8.40984019683892E-02 
591	 8.40467231922994E-02 
592	 0.084301353786206 
593	 8.43628381151725E-02 
594	 8.43768965843754E-02 
595	 8.44583029057963E-02 
596	 8.48902932945881E-02 
597	 8.53377888760262E-02 
598	 8.51745914133447E-02 
599	 8.47425925199739E-02 
600	 8.43265162009187E-02 
601	 8.46165917728169E-02 
602	 8.50372135808664E-02 
603	 8.50610421573221E-02 
604	 8.50316610688459E-02 
605	 8.50319444492467E-02 
606	 8.51119527745382E-02 
607	 0.085245550832674 
608	 8.54039099396082E-02 
609	 8.55290043380766E-02 
610	 8.54877956064969E-02 
611	 0.085133593464191 
612	 0.084983104231723 
613	 8.51127543552376E-02 
614	 8.53201182180146E-02 
615	 8.53661039937587E-02 
616	 8.51401376696753E-02 
617	 8.51253399608122E-02 
618	 8.51708057472292E-02 
619	 0.084874101225481 
620	 8.48383300712218E-02 
621	 8.51307035598952E-02 
622	 0.085289180940025 
623	 8.50415677242137E-02 
624	 8.42636070551842E-02 
625	 0.084546789870431 
626	 8.54585883680605E-02 
627	 8.50648936411844E-02 
628	 0.084762855571094 
629	 8.49908109924737E-02 
630	 8.49233142604053E-02 
631	 8.48062744987985E-02 
632	 8.50198266528575E-02 
633	 8.55212668818101E-02 
634	 8.59904426235318E-02 
635	 0.085437872121113 
636	 8.49460711919577E-02 
637	 8.51348749479226E-02 
638	 8.53220899498226E-02 
639	 8.54362125922433E-02 
640	 8.54954286657846E-02 
641	 8.58150958591618E-02 
642	 8.62730462813189E-02 
643	 0.085901753118118 
644	 8.55502881713731E-02 
645	 8.59380313968827E-02 
646	 8.59381406064072E-02 
647	 8.56384459684649E-02 
648	 8.58533087511555E-02 
649	 8.59414006566528E-02 
650	 8.57260033735963E-02 
651	 0.085679049714078 
652	 8.57934565347698E-02 
653	 8.60105987827412E-02 
654	 8.60410072588156E-02 
655	 8.58503928923128E-02 
656	 8.56577029104779E-02 
657	 8.53780348592344E-02 
658	 8.50179239134277E-02 
659	 0.084820534568425 
660	 8.47219534374458E-02 
661	 8.45984869486939E-02 
662	 8.42909544919764E-02 
663	 8.38582205641528E-02 
664	 8.37544217050253E-02 
665	 8.37776787982799E-02 
666	 8.37336259960445E-02 
667	 8.35369053589951E-02 
668	 8.32989166693141E-02 
669	 0.083427560598345 
670	 0.083006506113943 
671	 8.20451783012369E-02 
672	 8.26242356483872E-02 
673	 8.34610943114263E-02 
674	 0.082950234673956 
675	 8.28459987848554E-02 
676	 8.32748018485838E-02 
677	 8.34269982952726E-02 
678	 8.33420438184019E-02 
679	 8.31175339119796E-02 
680	 0.083407184226294 
681	 8.38946112911094E-02 
682	 8.39370271580856E-02 
683	 8.43998532165402E-02 
684	 8.52034199459523E-02 
685	 8.50414837364904E-02 
686	 8.49096332802293E-02 
687	 8.56484908864627E-02 
688	 8.59516949057824E-02 
689	 8.59277032918092E-02 
690	 8.63978852639075E-02 
691	 0.086937440214323 
692	 8.74698905988018E-02 
693	 0.088308770851545 
694	 8.87807599067562E-02 
695	 8.82426943136732E-02 
696	 8.86982817398619E-02 
697	 8.98854430219685E-02 
698	 9.00446878279425E-02 
699	 8.98325794054487E-02 
700	 8.95999893247314E-02 
701	 8.96607100166189E-02 
702	 9.00244099951204E-02 
703	 9.06291779242356E-02 
704	 9.08814568403938E-02 
705	 9.07308314789217E-02 
706	 9.05843135704427E-02 
707	 9.04752234828027E-02 
708	 9.04184438757212E-02 
709	 9.02057231867067E-02 
710	 9.01181743435925E-02 
711	 9.07456158788316E-02 
712	 9.11387148639211E-02 
713	 9.10971927391467E-02 
714	 9.12145340804647E-02 
715	 9.14174537809153E-02 
716	 9.16212003915147E-02 
717	 9.16363279855843E-02 
718	 9.15878316669815E-02 
719	 9.20596410679941E-02 
720	 9.22330768867531E-02 
721	 9.19676569307399E-02 
722	 9.21037186517644E-02 
723	 9.21777021253511E-02 
724	 9.16205616216405E-02 
725	 0.091594174591783 
726	 9.21903925527841E-02 
727	 9.28427693939582E-02 
728	 9.31125738864554E-02 
729	 9.27932285243445E-02 
730	 9.23180761539764E-02 
731	 9.21005347217056E-02 
732	 9.25952855690018E-02 
733	 9.25585688360585E-02 
734	 9.21270058952896E-02 
735	 9.28359528712123E-02 
736	 9.36001618474297E-02 
737	 9.36611354113427E-02 
738	 9.33063189798563E-02 
739	 9.29782964616645E-02 
740	 9.34148970236237E-02 
741	 9.38044675466402E-02 
742	 9.38980527677163E-02 
743	 9.38688704053222E-02 
744	 9.36901086268539E-02 
745	 9.33815897577727E-02 
746	 9.34948112380613E-02 
747	 9.38984628097025E-02 
748	 9.40509865525852E-02 
749	 9.41909738042218E-02 
750	 9.43038644100323E-02 
751	 9.38875501625277E-02 
752	 0.093704405509004 
753	 9.45171632561702E-02 
754	 9.45467434068195E-02 
755	 9.39627092719438E-02 
756	 9.43719176144426E-02 
757	 9.46367382811625E-02 
758	 9.43619259976534E-02 
759	 9.47482140507045E-02 
760	 9.56313612699255E-02 
761	 9.52477898977561E-02 
762	 9.52796308059801E-02 
763	 9.57870223226259E-02 
764	 9.55795972896575E-02 
765	 0.095810054773533 
766	 9.65924540103697E-02 
767	 9.65264814592119E-02 
768	 9.59403546660954E-02 
769	 9.52294667085854E-02 
770	 9.53679092500797E-02 
771	 9.61081148660257E-02 
772	 9.54679474643711E-02 
773	 9.50549214620344E-02 
774	 9.58163205020481E-02 
775	 9.59953876303448E-02 
776	 0.095770628759479 
777	 9.59244415269214E-02 
778	 9.60358387840536E-02 
779	 9.60449062714052E-02 
780	 9.61666008543344E-02 
781	 9.63665836270567E-02 
782	 0.096593418574194 
783	 9.66954577477668E-02 
784	 9.66133665856028E-02 
785	 0.096248249617455 
786	 9.61301700859826E-02 
787	 9.64091911761572E-02 
788	 9.68260719578588E-02 
789	 9.70250589632996E-02 
790	 9.67350392431797E-02 
791	 9.67388285337421E-02 
792	 9.70421368444979E-02 
793	 9.73186583591304E-02 
794	 9.72917586406931E-02 
795	 9.70057100233763E-02 
796	 9.73168369216182E-02 
797	 9.77624622319867E-02 
798	 9.78291428395726E-02 
799	 9.76714169477707E-02 
800	 9.74585868201441E-02 
801	 9.75079800432727E-02 
802	 9.79256634215945E-02 
803	 9.85602937384627E-02 
804	 9.83355802596014E-02 
805	 9.79770261303034E-02 
806	 9.83165130291497E-02 
807	 9.83200008135325E-02 
808	 9.80324713764643E-02 
809	 9.81943493817038E-02 
810	 9.83403618819273E-02 
811	 9.83000023021318E-02 
812	 9.82644028947399E-02 
813	 9.84336664877177E-02 
814	 9.90272483775423E-02 
815	 9.93082913583816E-02 
816	 9.91884737895334E-02 
817	 9.91360935368175E-02 
818	 9.89018848045225E-02 
819	 9.85315083233109E-02 
820	 9.87334997760226E-02 
821	 0.099096001298083 
822	 9.90780556546349E-02 
823	 9.89007003301946E-02 
824	 9.87909810580834E-02 
825	 9.93004690823653E-02 
826	 9.93894500253149E-02 
827	 0.098841405225376 
828	 9.93367919686113E-02 
829	 0.099924674997628 
830	 9.93072470521403E-02 
831	 9.92082042567295E-02 
832	 9.96829002666323E-02 
833	 9.98655613631816E-02 
834	 9.94066685121134E-02 
835	 0.098476899026788 
836	 9.91004763366559E-02 
837	 9.99220798872934E-02 
838	 9.92859043849456E-02 
839	 9.90045417376619E-02 
840	 9.92443724530169E-02 
841	 9.93318906140559E-02 
842	 9.95213688145396E-02 
843	 0.099819651829653 
844	 9.98132746658835E-02 
845	 9.94751099441746E-02 
846	 9.88663908802592E-02 
847	 9.91777037342779E-02 
848	 0.100003410099159 
849	 9.93926422788053E-02 
850	 9.89192205709976E-02 
851	 9.91964717907838E-02 
852	 0.099839682830905 
853	 0.100032164974166 
854	 9.90577883415719E-02 
855	 9.94009425881204E-02 
856	 0.100426391022369 
857	 9.91385161456144E-02 
858	 9.87966052761951E-02 
859	 9.99585127028198E-02 
860	 9.94199637306629E-02 
861	 9.88609611514205E-02 
862	 9.98923929678313E-02 
863	 9.98830202585534E-02 
864	 9.91914190186212E-02 
865	 9.98202919702316E-02 
866	 0.100343156343534 
867	 0.100413142781723 
868	 0.100773029116427 
869	 0.101080073508526 
870	 0.101068551105926 
871	 0.101095640273644 
872	 0.101248038966374 
873	 0.101610286928907 
874	 0.101605543060377 
875	 0.100985739448227 
876	 9.94141225008658E-02 
877	 0.098728936877008 
878	 9.99978427909148E-02 
879	 0.100553096303827 
880	 0.100714839078861 
881	 0.10168786394856 
882	 0.100710390751364 
883	 9.83409535613598E-02 
884	 9.91664258386897E-02 
885	 0.100182176339444 
886	 9.97523157712279E-02 
887	 9.90901735155789E-02 
888	 9.90790053486747E-02 
889	 0.100658319642108 
890	 0.102233253585161 
891	 0.102803002168098 
892	 0.100453637196019 
893	 9.89966166264362E-02 
894	 0.100162308456157 
895	 0.101414679070633 
896	 0.102735585997123 
897	 0.104180554109285 
898	 0.103905890196634 
899	 0.102473809093266 
900	 0.10245343353229 
901	 0.101044108346845 
902	 9.85015839285664E-02 
903	 9.98152629906433E-02 
904	 0.101593577977223 
905	 0.101284941431609 
906	 0.102110783114941 
907	 0.10324026680272 
908	 0.102400521514513 
909	 0.102088289041804 
910	 0.102534078321974 
911	 0.101526186103491 
912	 0.10122671818065 
913	 0.102664370111538 
914	 0.103914273724365 
915	 0.104411323303193 
916	 0.103824055345469 
917	 0.104162190030988 
918	 0.104391307520507 
919	 0.100089741863777 
920	 9.84021938568509E-02 
921	 0.100838920745809 
922	 0.100535512868569 
923	 0.100528711914956 
924	 0.103279683518422 
925	 0.10108434937647 
926	 0.096834635952283 
927	 9.98881831228742E-02 
928	 0.102531077664167 
929	 0.102170667837979 
930	 9.99182089782927E-02 
931	 0.100533656739526 
932	 0.106442598608576 
933	 0.100826375267757 
934	 9.38858979555718E-02 
935	 0.10365325163055 
936	 0.112958806687828 
937	 0.115256280977808 
938	 0.105809732260741 
939	 9.77959887868648E-02 
940	 9.59669483824825E-02 
941	 0.099529632123314 
942	 0.1014340899422 
943	 0.097721705580079 
944	 0.100798633594302 
945	 0.106911520084532 
946	 0.107891562865889 
947	 0.105519291417899 
948	 0.102433241165744 
949	 0.105830817230939 
950	 0.10774917100132 
951	 0.10567613713046 
952	 0.106599996077638 
953	 0.107130409423279 
954	 0.103974373571631 
955	 9.92650074188954E-02 
956	 9.63282502923952E-02 
957	 0.100455405185194 
958	 0.100208499234695 
959	 9.49838682718823E-02 
960	 9.23548497038625E-02 
961	 9.49909623906808E-02 
962	 0.102642215291145 
963	 0.107991673106329 
964	 0.108692013073992 
965	 0.103791521304828 
966	 0.101658687574216 
967	 0.102175188639621 
968	 0.101994317735573 
969	 9.99477190414764E-02 
970	 9.73496155537802E-02 
971	 0.100782759997658 
972	 0.103700377133653 
973	 0.102965354275972 
974	 0.102954447523746 
975	 0.105518090398955 
976	 0.111507825459689 
977	 0.110154113243201 
978	 0.104076182193874 
979	 0.103508766222676 
980	 0.104024240742859 
981	 0.104288079534047 
982	 0.103776657802941 
983	 0.103681156029837 
984	 0.104294561587906 
985	 0.102503196771315 
986	 0.103047601481603 
987	 0.110000743112278 
988	 0.105179830375532 
989	 9.58385327073724E-02 
990	 0.103193785674467 
991	 0.10574705776985 
992	 0.101053671614807 
993	 0.103447381583091 
994	 0.107195998871584 
995	 0.108937085788842 
996	 0.107229461058208 
997	 0.104489041033951 
998	 0.103476818996947 
999	 0.104976757022484 
1000	 0.107794486899294 
1001	 0.109682266217284 
1002	 0.107959405559377 
1003	 0.1034846777142 
1004	 0.101493755607892 
1005	 0.10189193792912 
1006	 0.10260434815882 
1007	 0.091897207156977 
1008	 8.85512968963827E-02 
1009	 0.103953809133751 
1010	 0.10349165794402 
1011	 9.47368018913851E-02 
1012	 0.094313592155003 
1013	 9.51638378098403E-02 
1014	 9.63844620085206E-02 
1015	 9.90441421026355E-02 
1016	 9.97613981363686E-02 
1017	 9.95346696194272E-02 
1018	 0.10783338515112 
1019	 0.111708732262265 
1020	 0.105596233013361 
1021	 0.102226115444461 
1022	 0.103817926421972 
1023	 0.110299352990601 
1024	 0.112845519766874 
1025	 0.109191476384431 
1026	 9.85655766994992E-02 
1027	 0.101267260803163 
1028	 0.113151933658353 
1029	 0.104325309884035 
1030	 0.100340105863007 
1031	 0.10624769904259 
1032	 0.102358436992409 
1033	 9.83100969425001E-02 
1034	 0.100083438425801 
1035	 0.101716553818914 
1036	 0.101969382340773 
1037	 0.100542974780021 
1038	 0.102045641008084 
1039	 0.108281525811252 
1040	 0.120558947454407 
1041	 0.113080351594281 
1042	 9.43301042209456E-02 
1043	 0.106346227205114 
1044	 0.111131222091126 
1045	 0.101505758409982 
1046	 0.111882807207042 
1047	 0.112111933321634 
1048	 9.04781141854556E-02 
1049	 0.096935459231813 
1050	 0.11482106049585 
1051	 0.123807470191938 
1052	 0.117911133181022 
1053	 0.104534502964034 
1054	 9.82412498490775E-02 
1055	 0.115950189166916 
1056	 0.144381595743212 
1057	 0.147110851653522 
1058	 0.12530200468081 
1059	 9.19222328614217E-02 
1060	 0.109944350066306 
1061	 0.113423431160956 
1062	 0.083206826397994 
1063	 0.090564315276429 
1064	 0.095551320097181 
1065	 7.47432566645448E-02 
1066	 9.62127380157104E-02 
1067	 0.126198666698299 
1068	 0.12413897156956 
1069	 0.111008926440459 
1070	 9.47304023365192E-02 
1071	 8.36968314497335E-02 
1072	 8.64131187050653E-02 
1073	 8.99603265013116E-02 
1074	 5.49361771939927E-02 
1075	 6.32038242487063E-02 
