Wavelength	A00052.asd
325	 6.18164365063872E-02 
326	 6.35362526265112E-02 
327	 6.04375817438841E-02 
328	 6.26841079027917E-02 
329	 6.45807021791061E-02 
330	 0.063828028922587 
331	 5.89794793703595E-02 
332	 5.74642244939506E-02 
333	 6.57668393623811E-02 
334	 6.93342689892291E-02 
335	 6.74725290842419E-02 
336	 6.41295594560463E-02 
337	 0.062834668587871 
338	 6.45242955693467E-02 
339	 6.73826982535771E-02 
340	 6.71731035143683E-02 
341	 0.061403982418599 
342	 5.98408137485433E-02 
343	 6.21126992077251E-02 
344	 6.50094328160944E-02 
345	 6.43936193421502E-02 
346	 6.06420291603344E-02 
347	 0.059973125142172 
348	 6.12619404747377E-02 
349	 6.32418535584606E-02 
350	 6.34229453265432E-02 
351	 6.26323375165499E-02 
352	 6.27388013257951E-02 
353	 6.19641269832744E-02 
354	 6.12492103615494E-02 
355	 6.60623887910632E-02 
356	 6.72267055230508E-02 
357	 6.08868804584258E-02 
358	 6.27600986323059E-02 
359	 6.83416634738939E-02 
360	 6.82254623936151E-02 
361	 0.06625135122012 
362	 6.40287455266467E-02 
363	 6.37115563577627E-02 
364	 6.38701889403742E-02 
365	 6.37627602641557E-02 
366	 6.41154843478577E-02 
367	 6.42896541748322E-02 
368	 6.33807339834875E-02 
369	 0.063088791681414 
370	 6.36041452210936E-02 
371	 6.41066836136154E-02 
372	 6.46422601102255E-02 
373	 6.51097618780795E-02 
374	 6.48103544538878E-02 
375	 6.46697616507686E-02 
376	 6.59817585210185E-02 
377	 6.64271799274935E-02 
378	 6.56006919761178E-02 
379	 6.39477305634341E-02 
380	 6.32907283201373E-02 
381	 6.44501795665022E-02 
382	 6.60310349840402E-02 
383	 6.67680341950993E-02 
384	 6.52759465072689E-02 
385	 0.064857822992627 
386	 6.57539773389647E-02 
387	 6.59846695304447E-02 
388	 6.61289413629599E-02 
389	 6.62880596491863E-02 
390	 6.55202616535438E-02 
391	 0.06513326066407 
392	 6.66326637498385E-02 
393	 6.69225608859937E-02 
394	 6.59559585324325E-02 
395	 6.56722731140812E-02 
396	 6.51175894534311E-02 
397	 6.42009344528993E-02 
398	 6.46277014822947E-02 
399	 6.45897909391696E-02 
400	 6.23130645883787E-02 
401	 6.19013941758255E-02 
402	 0.063431068100548 
403	 6.55235010563066E-02 
404	 6.66095129290726E-02 
405	 6.61685836218986E-02 
406	 6.57732094286308E-02 
407	 6.56638641915026E-02 
408	 6.59157309628812E-02 
409	 0.06649163653563 
410	 6.69202230630437E-02 
411	 6.58058181363014E-02 
412	 6.54642418954521E-02 
413	 6.66750734553201E-02 
414	 0.06687450732076 
415	 6.64894968174917E-02 
416	 6.63995315550617E-02 
417	 6.62186303689291E-02 
418	 6.60854139322269E-02 
419	 6.66833593897482E-02 
420	 6.69900682149746E-02 
421	 6.66240498309767E-02 
422	 6.71366877177932E-02 
423	 6.79759494024795E-02 
424	 6.81095110978795E-02 
425	 6.82114544666247E-02 
426	 6.84617163467173E-02 
427	 6.89257267814699E-02 
428	 6.91764814988753E-02 
429	 6.89988029306906E-02 
430	 6.91240702983435E-02 
431	 6.92790838923958E-02 
432	 6.88617800831835E-02 
433	 6.82782683271924E-02 
434	 6.78851053603961E-02 
435	 6.84373546958448E-02 
436	 6.90315053509784E-02 
437	 6.91181120518772E-02 
438	 6.96010644689262E-02 
439	 7.01599062265879E-02 
440	 6.99738296672307E-02 
441	 6.99222989463674E-02 
442	 0.070177766829594 
443	 7.02252804567717E-02 
444	 7.03300356347712E-02 
445	 0.070721798170897 
446	 0.071427780895073 
447	 0.072059030307583 
448	 7.17433597299012E-02 
449	 7.15713392928637E-02 
450	 7.18468831855998E-02 
451	 7.19788665266223E-02 
452	 7.22469199752656E-02 
453	 7.29066315390421E-02 
454	 7.29477461060282E-02 
455	 7.25699287578176E-02 
456	 7.29372501640804E-02 
457	 7.30381441789609E-02 
458	 7.26402971744578E-02 
459	 7.28838907405687E-02 
460	 7.32801615420188E-02 
461	 7.31588500024239E-02 
462	 7.32683232325286E-02 
463	 7.35631626382385E-02 
464	 7.33207400078618E-02 
465	 7.33784650445065E-02 
466	 7.40560403369921E-02 
467	 0.074348205210897 
468	 7.42764658916834E-02 
469	 7.40474607283797E-02 
470	 7.42233771048138E-02 
471	 7.46818565297424E-02 
472	 7.43471505007783E-02 
473	 7.42273451649547E-02 
474	 7.48187951026884E-02 
475	 7.45449632599276E-02 
476	 7.40145818645531E-02 
477	 7.46681437390935E-02 
478	 7.50166903078404E-02 
479	 7.48593569492781E-02 
480	 7.52896881157319E-02 
481	 7.57392114525941E-02 
482	 7.57433583263645E-02 
483	 7.56612466321784E-02 
484	 7.56284837544027E-02 
485	 7.58652048862761E-02 
486	 7.57390712287666E-02 
487	 7.52416949382262E-02 
488	 7.56680004002269E-02 
489	 7.60826376908217E-02 
490	 7.55214618337536E-02 
491	 7.51638536070159E-02 
492	 7.53494110603739E-02 
493	 7.64105186014933E-02 
494	 7.71256806514093E-02 
495	 0.077016331344068 
496	 7.69737662721251E-02 
497	 7.69915493976032E-02 
498	 7.69451143380026E-02 
499	 7.71608095604016E-02 
500	 7.75328137988914E-02 
501	 7.73922917707146E-02 
502	 7.74212592138573E-02 
503	 7.79564198356093E-02 
504	 7.82225137656234E-02 
505	 7.82356334137953E-02 
506	 7.81865729046622E-02 
507	 7.82623320345845E-02 
508	 7.84918679709306E-02 
509	 7.86883326394671E-02 
510	 7.89064628226271E-02 
511	 7.91735328673097E-02 
512	 7.92147459348118E-02 
513	 7.92229981184479E-02 
514	 7.97982852683933E-02 
515	 8.01359915216785E-02 
516	 8.00047938791169E-02 
517	 7.98913401592792E-02 
518	 7.99681740821565E-02 
519	 8.03462804450298E-02 
520	 8.02503386811281E-02 
521	 7.99235551618759E-02 
522	 8.04831216720309E-02 
523	 8.09181317554223E-02 
524	 8.08483469331302E-02 
525	 8.10357295200737E-02 
526	 8.13838922236371E-02 
527	 8.16457704835763E-02 
528	 8.18097924763291E-02 
529	 0.081899859041216 
530	 8.20249529032887E-02 
531	 8.22114132845487E-02 
532	 0.082473819278926 
533	 8.27854186097926E-02 
534	 8.30250337941765E-02 
535	 8.29518287772681E-02 
536	 8.30590619837253E-02 
537	 0.083427007638021 
538	 8.36002254869403E-02 
539	 8.37559398834758E-02 
540	 8.40563888139155E-02 
541	 0.083922104964637 
542	 8.35648148967778E-02 
543	 0.08379314086448 
544	 8.42405169018514E-02 
545	 8.47000597009642E-02 
546	 8.49134227045607E-02 
547	 8.49441740081429E-02 
548	 8.49145580002698E-02 
549	 8.50279208045635E-02 
550	 8.52829573555522E-02 
551	 8.54626326485797E-02 
552	 8.56159534007113E-02 
553	 8.57469376584117E-02 
554	 8.56063166226867E-02 
555	 0.085476087064677 
556	 8.59353257255724E-02 
557	 8.63834918048848E-02 
558	 8.66410662630622E-02 
559	 0.086902813561169 
560	 8.70675278740912E-02 
561	 8.70513491027612E-02 
562	 8.70443006093845E-02 
563	 8.70676360126325E-02 
564	 8.70302718010461E-02 
565	 8.71840889259101E-02 
566	 8.75320621089181E-02 
567	 8.74227324392917E-02 
568	 8.71742302621118E-02 
569	 8.72634525697092E-02 
570	 0.0875326083433 
571	 8.78919135898135E-02 
572	 8.82136710971422E-02 
573	 0.08829522786856 
574	 8.80895236260658E-02 
575	 8.83405877735393E-02 
576	 0.088727540338795 
577	 8.84657996501877E-02 
578	 8.82717097122894E-02 
579	 8.83027123772137E-02 
580	 8.81767015647709E-02 
581	 8.80934581525532E-02 
582	 8.82373006345722E-02 
583	 8.85448079722855E-02 
584	 8.88776233103983E-02 
585	 8.89467216229712E-02 
586	 8.89302920505622E-02 
587	 8.88856623493072E-02 
588	 8.87155205125372E-02 
589	 8.85424873099478E-02 
590	 8.85350265372848E-02 
591	 8.86459755244286E-02 
592	 8.87686802529338E-02 
593	 8.85807758678119E-02 
594	 8.85895632883177E-02 
595	 8.90251351517632E-02 
596	 8.91401041621543E-02 
597	 8.91089988385081E-02 
598	 8.94499742020907E-02 
599	 8.93895314388324E-02 
600	 8.89092073288374E-02 
601	 8.90280301537211E-02 
602	 8.91432459354268E-02 
603	 8.87587973533925E-02 
604	 8.90279672099067E-02 
605	 8.96465553718194E-02 
606	 8.93123340160978E-02 
607	 8.90607796628773E-02 
608	 8.92596265458477E-02 
609	 8.95148546461206E-02 
610	 8.96015989177834E-02 
611	 0.089292262184354 
612	 0.089217180525801 
613	 0.089387555061301 
614	 8.92801543893698E-02 
615	 0.089080986665575 
616	 8.89285698549652E-02 
617	 8.89664098067437E-02 
618	 0.089110264222556 
619	 8.91709022378548E-02 
620	 8.93434215554504E-02 
621	 8.95803580591276E-02 
622	 8.94706298745791E-02 
623	 8.92324120506802E-02 
624	 0.089078074812323 
625	 8.88986198927249E-02 
626	 8.88139883897355E-02 
627	 8.91613411547704E-02 
628	 8.95329975203145E-02 
629	 8.97611970542683E-02 
630	 9.00407444427154E-02 
631	 9.01191647225936E-02 
632	 0.089685782678641 
633	 8.96454457478336E-02 
634	 8.99452629624077E-02 
635	 8.96028939915917E-02 
636	 8.93758756428556E-02 
637	 8.96590825320652E-02 
638	 8.97923088396961E-02 
639	 8.97329373442519E-02 
640	 8.95352391953646E-02 
641	 8.97011598512848E-02 
642	 9.02371868723397E-02 
643	 9.04627983022456E-02 
644	 0.090366180084133 
645	 9.00068869036005E-02 
646	 9.00975122348668E-02 
647	 9.04405532137139E-02 
648	 9.01218207568082E-02 
649	 8.98323933850188E-02 
650	 8.98053969094521E-02 
651	 8.97273332750731E-02 
652	 8.95454929737302E-02 
653	 0.089230057188388 
654	 8.94651867275807E-02 
655	 9.00659370383415E-02 
656	 8.97060139594418E-02 
657	 8.93593519932398E-02 
658	 8.94882362180757E-02 
659	 8.88059345853036E-02 
660	 8.80165402602236E-02 
661	 0.088495739363975 
662	 8.85187386824508E-02 
663	 8.78393811318886E-02 
664	 8.76630206601968E-02 
665	 8.76487149467755E-02 
666	 0.087477202092881 
667	 8.71324661729296E-02 
668	 8.68571012664009E-02 
669	 8.73638051839139E-02 
670	 0.087296655614445 
671	 8.64507523701007E-02 
672	 8.68061528859844E-02 
673	 0.087351997764898 
674	 8.67917455030849E-02 
675	 8.63960345521795E-02 
676	 8.64426776304168E-02 
677	 8.68687458838985E-02 
678	 8.72413200629707E-02 
679	 8.73516709960859E-02 
680	 8.76568728251812E-02 
681	 0.088042369772583 
682	 8.82432262465109E-02 
683	 8.84907109395374E-02 
684	 8.88465224573843E-02 
685	 8.93661503005463E-02 
686	 8.96551295356064E-02 
687	 8.93925458324396E-02 
688	 8.94519168657476E-02 
689	 8.99402010415885E-02 
690	 9.06861685014178E-02 
691	 9.15292199655373E-02 
692	 9.22727309873577E-02 
693	 9.23071076630871E-02 
694	 9.23303897971798E-02 
695	 9.30555733850557E-02 
696	 9.34508178701603E-02 
697	 9.35324222978231E-02 
698	 9.39579838148753E-02 
699	 9.42144802630442E-02 
700	 9.41121070407898E-02 
701	 9.41184350172794E-02 
702	 9.42947812764718E-02 
703	 9.46410125812066E-02 
704	 9.49642556415829E-02 
705	 9.51894882269792E-02 
706	 9.52946648053432E-02 
707	 9.52822181446312E-02 
708	 9.51646797330323E-02 
709	 9.49690247116979E-02 
710	 9.48919599923436E-02 
711	 9.52703108293329E-02 
712	 9.56958015781995E-02 
713	 9.59744917235802E-02 
714	 9.59270963944282E-02 
715	 9.58725442466692E-02 
716	 9.60991046271342E-02 
717	 0.096011113097951 
718	 9.58613857687308E-02 
719	 9.69281667718895E-02 
720	 9.73782759900223E-02 
721	 9.67821539724091E-02 
722	 9.64823012409534E-02 
723	 9.62059340208091E-02 
724	 9.56062515936046E-02 
725	 9.60682207891526E-02 
726	 9.72812492533888E-02 
727	 9.73877948528744E-02 
728	 9.72851048425414E-02 
729	 9.73873474486833E-02 
730	 9.73478434961473E-02 
731	 9.74010859548774E-02 
732	 9.79006991353129E-02 
733	 9.78982995130568E-02 
734	 9.74200005885689E-02 
735	 9.72812523339769E-02 
736	 0.097368724029723 
737	 9.75971583049417E-02 
738	 9.78418875672323E-02 
739	 9.80736300544462E-02 
740	 9.82978737598432E-02 
741	 9.84505114342772E-02 
742	 9.85096909944028E-02 
743	 9.84885591132127E-02 
744	 9.84476113670172E-02 
745	 9.84363732674366E-02 
746	 9.83795168734014E-02 
747	 9.83869188463502E-02 
748	 9.87971516913084E-02 
749	 9.89478292373649E-02 
750	 9.86689201844753E-02 
751	 0.098469560611152 
752	 9.85450520137589E-02 
753	 9.90200694257595E-02 
754	 9.90062489938105E-02 
755	 9.86646192381739E-02 
756	 9.90537840209182E-02 
757	 9.92776245401538E-02 
758	 9.89662122533248E-02 
759	 9.85054770403789E-02 
760	 9.84200321126415E-02 
761	 0.100127489735684 
762	 0.100930300594299 
763	 0.100576615652186 
764	 0.100455742319113 
765	 0.100704314939763 
766	 0.101169709594609 
767	 0.100815359815899 
768	 0.100388733840503 
769	 0.100860418978524 
770	 0.100900552841863 
771	 0.100380565829061 
772	 0.100014346485155 
773	 9.99803010344919E-02 
774	 0.100343992884151 
775	 0.100516650942679 
776	 0.100534446909525 
777	 0.100648460704851 
778	 0.10063228466257 
779	 0.100490359779539 
780	 0.10042775046411 
781	 0.100744164823719 
782	 0.101558138017235 
783	 0.101598886049053 
784	 0.101136628247435 
785	 0.101197728568186 
786	 0.101349618601736 
787	 0.101480747883834 
788	 0.101663647194043 
789	 0.10175553199853 
790	 0.101647847185293 
791	 0.101675399214568 
792	 0.101956566555886 
793	 0.102706334605306 
794	 0.102867877828791 
795	 0.102256067558343 
796	 0.102132709239444 
797	 0.102264982841204 
798	 0.102329139093624 
799	 0.102218802934837 
800	 0.102036897120254 
801	 0.102119550670127 
802	 0.102345085648116 
803	 0.102632152714711 
804	 0.102848582188837 
805	 0.10285476141294 
806	 0.102543392300069 
807	 0.102375939239209 
808	 0.1025248925187 
809	 0.103224051034922 
810	 0.103625936593356 
811	 0.103427701551637 
812	 0.103504437596536 
813	 0.103608858996298 
814	 0.103336986101238 
815	 0.103407189162428 
816	 0.103792181525615 
817	 0.103768485462734 
818	 0.103905834370359 
819	 0.104298083895404 
820	 0.104106371806505 
821	 0.103658669974803 
822	 0.103414562124676 
823	 0.103377734020193 
824	 0.103541802509859 
825	 0.103830447499818 
826	 0.104183454069779 
827	 0.104485020337367 
828	 0.10432715213973 
829	 0.103710483875378 
830	 0.102749107411479 
831	 0.102797197849829 
832	 0.103652788913805 
833	 0.103816221184456 
834	 0.103937974117373 
835	 0.104247615803292 
836	 0.104564241450959 
837	 0.104759583730173 
838	 0.10471492804431 
839	 0.104672746620129 
840	 0.104619633653388 
841	 0.104222479473249 
842	 0.104489337258195 
843	 0.105568935439815 
844	 0.10565086426361 
845	 0.105186319714263 
846	 0.104876554728492 
847	 0.104996214365249 
848	 0.105275169624677 
849	 0.104672174130601 
850	 0.10424897772998 
851	 0.104411815954213 
852	 0.104797351096279 
853	 0.104792469805148 
854	 0.103890801263646 
855	 0.104200225882437 
856	 0.10543033068471 
857	 0.105907530471329 
858	 0.105734091452487 
859	 0.105060801693548 
860	 0.1046395361072 
861	 0.10471548610133 
862	 0.105388714554004 
863	 0.105300947280656 
864	 0.104971015926168 
865	 0.106434278249262 
866	 0.106343725184778 
867	 0.104445234436814 
868	 0.1052219957765 
869	 0.106543246574058 
870	 0.106551476619546 
871	 0.106087787919647 
872	 0.105837444494435 
873	 0.10690838112639 
874	 0.107675262962674 
875	 0.107427790003839 
876	 0.105505400210412 
877	 0.104182080883216 
878	 0.104944065521963 
879	 0.105717966187054 
880	 0.10622404669139 
881	 0.106537743628993 
882	 0.106086228110121 
883	 0.105113905277728 
884	 0.104920297633184 
885	 0.105127802590358 
886	 0.10542012292638 
887	 0.105080766254795 
888	 0.104944633928257 
889	 0.10617190581295 
890	 0.10695627453069 
891	 0.106885558010316 
892	 0.10606927749424 
893	 0.105610686582555 
894	 0.105937743440111 
895	 0.105509320297209 
896	 0.105711087153996 
897	 0.108023648231933 
898	 0.10753494103061 
899	 0.105157977388878 
900	 0.106014292760515 
901	 0.105716039492192 
902	 0.103849985382272 
903	 0.104739878125354 
904	 0.107280685486249 
905	 0.109904308561031 
906	 0.107473853055738 
907	 0.103225868065695 
908	 0.10423827242047 
909	 0.106205030584635 
910	 0.107716233722956 
911	 0.108320068207095 
912	 0.108357204150413 
913	 0.108126126222675 
914	 0.108034825583643 
915	 0.107756576596857 
916	 0.106913625558307 
917	 0.10858261436875 
918	 0.110913413024444 
919	 0.107034841087403 
920	 0.105400806464093 
921	 0.107693120455558 
922	 0.105529368270253 
923	 0.104135838170349 
924	 0.107965075624064 
925	 0.107739904592137 
926	 0.105271236116824 
927	 0.108245079143433 
928	 0.108324067743603 
929	 0.104109264414323 
930	 0.104496073861618 
931	 0.10555092225808 
932	 0.104159605343372 
933	 0.102602820788581 
934	 0.103806370212207 
935	 0.110761341341427 
936	 0.111779910139373 
937	 0.107345447803922 
938	 0.106603675644389 
939	 0.104368303960515 
940	 0.101359913578628 
941	 0.10753580862726 
942	 0.111690114644062 
943	 0.106828578862847 
944	 0.108201032530316 
945	 0.111309791598895 
946	 0.105956142701971 
947	 0.10933458476833 
948	 0.119723763921392 
949	 0.11817629005493 
950	 0.111695937335987 
951	 0.10545164280453 
952	 0.109921806276449 
953	 0.113768600449541 
954	 0.107445069037119 
955	 0.110380535278898 
956	 0.118023173844711 
957	 0.116968676846027 
958	 0.11205010386046 
959	 0.10614668373303 
960	 0.103074194041827 
961	 0.106707902832552 
962	 0.11591278812143 
963	 0.115867920636273 
964	 0.111445591800564 
965	 0.108520346930256 
966	 0.107172813656181 
967	 0.106927297821763 
968	 0.106517089958798 
969	 0.105593692212853 
970	 0.104535424739128 
971	 0.105251717623021 
972	 0.106365256170935 
973	 0.107179592245229 
974	 0.108401251238419 
975	 0.110410571420232 
976	 0.113205584017736 
977	 0.111283919573821 
978	 0.107122369362937 
979	 0.108341841026945 
980	 0.109560015024361 
981	 0.109764601225294 
982	 0.111839076808607 
983	 0.110294855991146 
984	 0.104358825894725 
985	 0.108655850833259 
986	 0.115570966323524 
987	 0.11577825893893 
988	 0.113601607258349 
989	 0.110560620352714 
990	 0.10796705514022 
991	 0.109627699452226 
992	 0.1140202689674 
993	 0.111540182728091 
994	 0.108442065254031 
995	 0.107819987471422 
996	 0.107293110989695 
997	 0.108112754132389 
998	 0.111119301880566 
999	 0.110456752537754 
1000	 0.108735984229564 
1001	 0.112264895461687 
1002	 0.108785886860923 
1003	 0.100179425942549 
1004	 0.103752958216861 
1005	 0.105238273872034 
1006	 0.100451642255546 
1007	 9.87803487252268E-02 
1008	 0.102236507882848 
1009	 0.110241443491927 
1010	 0.109935899011351 
1011	 0.10451968228049 
1012	 0.100992746658813 
1013	 9.96624413215589E-02 
1014	 0.101133504511354 
1015	 0.106019135318178 
1016	 0.110392578498812 
1017	 0.112262453345502 
1018	 0.109965494961629 
1019	 0.110701864976206 
1020	 0.116363553997212 
1021	 0.111296225267943 
1022	 0.105836420656847 
1023	 0.11016287929177 
1024	 0.108933784543628 
1025	 0.104219018839032 
1026	 0.103445805054832 
1027	 0.106621133640234 
1028	 0.110750145004781 
1029	 0.106786624461581 
1030	 0.102538119476324 
1031	 0.100810571026302 
1032	 0.100069257436891 
1033	 9.96208504926348E-02 
1034	 0.10107966054452 
1035	 0.119349687502932 
1036	 0.129842520656664 
1037	 0.109811618131604 
1038	 0.108714085326799 
1039	 0.117135700226176 
1040	 0.102899875889001 
1041	 0.106622692985227 
1042	 0.122754290592267 
1043	 0.107305818832712 
1044	 9.90773460468626E-02 
1045	 0.108343647965172 
1046	 0.113569622023286 
1047	 0.108602775725548 
1048	 9.26787623296712E-02 
1049	 8.93539000598737E-02 
1050	 9.31760446365595E-02 
1051	 9.63371262070434E-02 
1052	 0.101324948682071 
1053	 0.100988606971027 
1054	 8.59972671050286E-02 
1055	 0.103961033488163 
1056	 0.141176377744589 
1057	 0.143260629152623 
1058	 0.12948868244024 
1059	 0.110068379397461 
1060	 0.110478053916753 
1061	 0.10849603305434 
1062	 0.101377016288969 
1063	 0.136993729149499 
1064	 0.151736675896379 
1065	 0.112887758635347 
1066	 0.134887100443783 
1067	 0.160249262571865 
1068	 0.122132077795146 
1069	 0.108767541998969 
1070	 0.119639287427143 
1071	 0.123161605701957 
1072	 0.114283226889788 
1073	 0.095366588473684 
1074	 7.38127467827149E-02 
1075	 8.87680954920055E-02 
