Wavelength	A00010.asd
325	 4.08770615947264E-02 
326	 4.24691209523815E-02 
327	 4.31933289537816E-02 
328	 4.18719891451767E-02 
329	 3.99026148677087E-02 
330	 3.85441429539566E-02 
331	 0.040724518135544 
332	 4.29720384706045E-02 
333	 0.042076623013384 
334	 4.41897108667266E-02 
335	 4.65300507636984E-02 
336	 4.01755117115493E-02 
337	 3.48998767143986E-02 
338	 3.44354791990765E-02 
339	 3.98835733037404E-02 
340	 4.27676910020943E-02 
341	 0.037222772016626 
342	 3.59913637271183E-02 
343	 3.79939351594363E-02 
344	 3.73594477124884E-02 
345	 0.037097758883459 
346	 3.77849462312459E-02 
347	 3.84913090631443E-02 
348	 0.040310616790466 
349	 4.35126614553218E-02 
350	 4.45447983906057E-02 
351	 4.38105374146902E-02 
352	 4.28050801379315E-02 
353	 3.96568182675256E-02 
354	 3.56230574774943E-02 
355	 3.61218073434516E-02 
356	 3.77028630317306E-02 
357	 3.81012150327426E-02 
358	 3.75132327835928E-02 
359	 3.69636797217462E-02 
360	 3.79432865842296E-02 
361	 3.85288783104836E-02 
362	 3.84651625380137E-02 
363	 0.03860073519686 
364	 3.87798233779724E-02 
365	 3.87621676709405E-02 
366	 3.71976798309496E-02 
367	 0.036388534322685 
368	 3.95097945533905E-02 
369	 3.91457156397226E-02 
370	 3.56977689464439E-02 
371	 3.62530013513433E-02 
372	 3.79049860334586E-02 
373	 0.039000127517667 
374	 3.91841998523791E-02 
375	 3.92121798017338E-02 
376	 0.040181671283273 
377	 3.85187370279692E-02 
378	 3.51841485185651E-02 
379	 3.60077621575993E-02 
380	 3.71041515525531E-02 
381	 3.67660587179149E-02 
382	 0.037435278628532 
383	 3.89725973628347E-02 
384	 4.09140333216216E-02 
385	 4.03051643430704E-02 
386	 3.80592963374418E-02 
387	 3.93078739718216E-02 
388	 4.03486356854427E-02 
389	 3.96059197625059E-02 
390	 3.84214589737187E-02 
391	 3.73179846966066E-02 
392	 3.67256356390313E-02 
393	 3.74308839380343E-02 
394	 3.88209282992383E-02 
395	 3.88355734403251E-02 
396	 3.85819910004452E-02 
397	 3.87137370199295E-02 
398	 4.02206156907753E-02 
399	 4.11193305534272E-02 
400	 3.95284057645502E-02 
401	 3.83855878558303E-02 
402	 3.80659085587785E-02 
403	 3.79179700812133E-02 
404	 3.83412816350044E-02 
405	 3.91971439533304E-02 
406	 3.87901523606127E-02 
407	 3.79819179019829E-02 
408	 3.79882548019372E-02 
409	 3.80296920625917E-02 
410	 3.80247743057119E-02 
411	 3.82004600842758E-02 
412	 0.038476914154685 
413	 3.87790623702558E-02 
414	 0.039000984220671 
415	 3.89022289674944E-02 
416	 3.82045503874671E-02 
417	 3.79787418831469E-02 
418	 3.83301433491139E-02 
419	 3.87433276402121E-02 
420	 3.90544477585521E-02 
421	 3.91703806137019E-02 
422	 3.93225732573832E-02 
423	 0.039298555336721 
424	 3.87498102215132E-02 
425	 0.038513206005139 
426	 3.86504658979972E-02 
427	 3.84612227206158E-02 
428	 3.85497892756746E-02 
429	 3.91919388507851E-02 
430	 3.93453298343876E-02 
431	 3.91785235389801E-02 
432	 3.92114608225973E-02 
433	 3.92662713455881E-02 
434	 0.039301190394812 
435	 3.92631891405296E-02 
436	 3.93644790446826E-02 
437	 3.97004503264638E-02 
438	 3.98328406354807E-02 
439	 3.97283041906414E-02 
440	 3.94115274785347E-02 
441	 3.94333162553651E-02 
442	 3.97840676459735E-02 
443	 3.96130937560319E-02 
444	 3.93949929287069E-02 
445	 3.95058077780492E-02 
446	 0.03937834149909 
447	 3.92382232384638E-02 
448	 3.98379201036063E-02 
449	 4.00953838542063E-02 
450	 3.98034948085758E-02 
451	 3.99259556722479E-02 
452	 0.040184468477762 
453	 4.02689366956729E-02 
454	 0.040612082081046 
455	 4.09868919044841E-02 
456	 4.05343885276138E-02 
457	 4.01990922662826E-02 
458	 4.03528972154722E-02 
459	 4.05968586002974E-02 
460	 4.08487874418666E-02 
461	 4.10506958918261E-02 
462	 4.13553304289626E-02 
463	 4.15820647488998E-02 
464	 4.10287028166337E-02 
465	 4.07618749963006E-02 
466	 4.12325723268171E-02 
467	 4.12852141811325E-02 
468	 4.11850803054871E-02 
469	 4.15070292490529E-02 
470	 4.17657259776371E-02 
471	 4.17546839288521E-02 
472	 4.11987846318373E-02 
473	 4.07850805054905E-02 
474	 4.09401298703375E-02 
475	 0.041266999762759 
476	 4.14254519530007E-02 
477	 4.08970038956527E-02 
478	 4.09143157286819E-02 
479	 4.15901981690446E-02 
480	 4.17469742457843E-02 
481	 4.17907407761654E-02 
482	 4.20319585685995E-02 
483	 4.18117435516614E-02 
484	 4.14037238217015E-02 
485	 4.17308627512943E-02 
486	 4.18777300696106E-02 
487	 4.16208309293939E-02 
488	 4.15775233715387E-02 
489	 4.19216321051905E-02 
490	 0.042713221754561 
491	 4.27047316913721E-02 
492	 4.21088598146857E-02 
493	 4.21112109726317E-02 
494	 4.25354076979902E-02 
495	 4.31385045734227E-02 
496	 4.27383406622626E-02 
497	 4.22891768900034E-02 
498	 4.31507694601536E-02 
499	 4.36601034330312E-02 
500	 0.043615118355981 
501	 4.38366703918469E-02 
502	 4.39892472103475E-02 
503	 4.39630178366748E-02 
504	 4.45612876117844E-02 
505	 4.51876783164548E-02 
506	 4.46809207119038E-02 
507	 4.45241852263268E-02 
508	 4.50041625502988E-02 
509	 4.54505073686825E-02 
510	 4.56695206372203E-02 
511	 4.55699076704042E-02 
512	 4.58040722450133E-02 
513	 4.63109332410181E-02 
514	 4.67236955784087E-02 
515	 4.68378280513836E-02 
516	 4.67442856525874E-02 
517	 4.73998434614155E-02 
518	 4.83714491833137E-02 
519	 4.90919967124141E-02 
520	 0.04950754761893 
521	 4.97378720850916E-02 
522	 5.01546810068176E-02 
523	 5.06089152428415E-02 
524	 5.10353489026565E-02 
525	 5.14088803904133E-02 
526	 5.17797155446827E-02 
527	 5.22124452305395E-02 
528	 5.28795276898212E-02 
529	 5.35779140524036E-02 
530	 5.34751192535855E-02 
531	 5.34590653258333E-02 
532	 5.40449679883934E-02 
533	 5.41231178454686E-02 
534	 5.39647475263795E-02 
535	 5.44098753073218E-02 
536	 5.48836610672235E-02 
537	 5.52047930416185E-02 
538	 5.54137414948203E-02 
539	 5.55612384218523E-02 
540	 5.57128542645954E-02 
541	 5.61670560322022E-02 
542	 5.67409510924895E-02 
543	 5.68066839619454E-02 
544	 5.68265007462738E-02 
545	 5.70035410284888E-02 
546	 5.72747697627048E-02 
547	 0.057620065903414 
548	 5.80168804920941E-02 
549	 0.058092370673588 
550	 0.05790496653662 
551	 5.79407125196389E-02 
552	 0.058223640778952 
553	 0.058715495606129 
554	 5.89319955384668E-02 
555	 5.89697861036943E-02 
556	 5.91536595877226E-02 
557	 5.92722422157408E-02 
558	 5.92908684981004E-02 
559	 5.93284897956322E-02 
560	 5.94208670667539E-02 
561	 5.95709901566695E-02 
562	 0.059384246435992 
563	 5.90450468825969E-02 
564	 5.92132030975869E-02 
565	 5.94466482919792E-02 
566	 5.95300784636418E-02 
567	 5.93386679095811E-02 
568	 5.90735533285952E-02 
569	 5.90060753238834E-02 
570	 5.89725499202325E-02 
571	 5.88794568550042E-02 
572	 0.058547276678724 
573	 5.82333175370447E-02 
574	 5.80899842230978E-02 
575	 5.79465219314767E-02 
576	 5.78399151998092E-02 
577	 5.78757031689192E-02 
578	 5.79981434231534E-02 
579	 5.80975880305535E-02 
580	 5.78283928792412E-02 
581	 5.75095086919411E-02 
582	 5.74268759559263E-02 
583	 5.73400650374141E-02 
584	 5.72394982995901E-02 
585	 5.72065348581775E-02 
586	 5.72147039459822E-02 
587	 5.72206352597971E-02 
588	 5.70008003937896E-02 
589	 5.68894754201125E-02 
590	 5.73314398258758E-02 
591	 5.71732377946407E-02 
592	 0.056488268650091 
593	 5.64187569880196E-02 
594	 5.65568838497619E-02 
595	 5.66646805919378E-02 
596	 5.67999812266155E-02 
597	 5.68976292830922E-02 
598	 0.056857776040515 
599	 5.66872458527922E-02 
600	 5.64746945569789E-02 
601	 5.65744515715171E-02 
602	 5.66982842693092E-02 
603	 5.65825748402494E-02 
604	 5.63735212191422E-02 
605	 5.61596626649183E-02 
606	 5.60905732940659E-02 
607	 5.60359563606955E-02 
608	 5.59329391669653E-02 
609	 5.57011132668687E-02 
610	 5.56165681379434E-02 
611	 5.60191843960515E-02 
612	 5.58936847013062E-02 
613	 5.52805427595778E-02 
614	 5.52023662878568E-02 
615	 5.51960814845136E-02 
616	 5.49877700023899E-02 
617	 5.46917555184878E-02 
618	 5.45040849127406E-02 
619	 5.47587942216559E-02 
620	 5.47247214273039E-02 
621	 5.42880696409341E-02 
622	 5.39901807269394E-02 
623	 0.053872974163669 
624	 5.39512566035206E-02 
625	 5.40965914596271E-02 
626	 5.42235582004421E-02 
627	 5.42002890425861E-02 
628	 5.42292012122818E-02 
629	 5.43481917481163E-02 
630	 5.42642153690938E-02 
631	 5.41250552188557E-02 
632	 5.41406589181907E-02 
633	 5.38606220250722E-02 
634	 5.33587262373776E-02 
635	 0.053154583478564 
636	 5.32755531631128E-02 
637	 5.36680270249912E-02 
638	 5.37782476935601E-02 
639	 0.053611334487119 
640	 5.33409341761255E-02 
641	 5.28247682567775E-02 
642	 5.22492067439909E-02 
643	 5.25464931458304E-02 
644	 5.26391677423559E-02 
645	 5.16578096568303E-02 
646	 0.051540196854774 
647	 5.20326106046061E-02 
648	 5.14637125234763E-02 
649	 5.10120629845677E-02 
650	 5.10801063446939E-02 
651	 5.12188319314039E-02 
652	 5.12035164508202E-02 
653	 5.08184748087981E-02 
654	 5.04781258574474E-02 
655	 5.02853416037935E-02 
656	 5.02214167033271E-02 
657	 5.02098118090392E-02 
658	 5.01307154901976E-02 
659	 4.95000999103869E-02 
660	 4.88636266737915E-02 
661	 4.91975379173307E-02 
662	 4.92353460074611E-02 
663	 4.86782149236511E-02 
664	 4.79293067457461E-02 
665	 4.73582771473354E-02 
666	 4.72489275322199E-02 
667	 4.72150742998933E-02 
668	 4.71239866218691E-02 
669	 4.68048381565749E-02 
670	 4.67180729073055E-02 
671	 4.69529436979676E-02 
672	 4.69832970571133E-02 
673	 0.046766627201647 
674	 4.63271786118235E-02 
675	 4.64883769787766E-02 
676	 4.71291981155128E-02 
677	 4.73140254682155E-02 
678	 4.72461882371112E-02 
679	 4.70705623583824E-02 
680	 4.70473536021372E-02 
681	 4.73148476035358E-02 
682	 0.048027257493407 
683	 4.86329139383288E-02 
684	 4.90402486539615E-02 
685	 4.96855422318113E-02 
686	 5.02798408542775E-02 
687	 5.06250959568377E-02 
688	 5.17737412496906E-02 
689	 5.33621233944662E-02 
690	 5.43877550018406E-02 
691	 5.54336966884282E-02 
692	 5.67670449584451E-02 
693	 5.86776998463864E-02 
694	 6.06549397815288E-02 
695	 6.20936955358888E-02 
696	 6.36690201595801E-02 
697	 6.54372932558951E-02 
698	 0.067177603724135 
699	 6.91236034750073E-02 
700	 7.13274400281605E-02 
701	 7.35603895394974E-02 
702	 7.55904463866021E-02 
703	 7.71757329002493E-02 
704	 7.86459747747675E-02 
705	 0.08018741606055 
706	 8.19900260801163E-02 
707	 8.38159249988925E-02 
708	 8.54849720714302E-02 
709	 8.69997331544114E-02 
710	 8.83551948606589E-02 
711	 8.95328985983279E-02 
712	 9.07635452022854E-02 
713	 9.21358734666825E-02 
714	 9.37019482403171E-02 
715	 0.095088063215315 
716	 9.60241271032104E-02 
717	 9.70981645950411E-02 
718	 9.83479514452035E-02 
719	 0.099297012208551 
720	 9.99971776613496E-02 
721	 0.100543057718138 
722	 0.101301517078058 
723	 0.102162596047136 
724	 0.102915312573455 
725	 0.103531393870284 
726	 0.104060404957287 
727	 0.104862899845135 
728	 0.105506221753857 
729	 0.105795300142628 
730	 0.106001800055519 
731	 0.106318235561687 
732	 0.106943912284341 
733	 0.10748520418354 
734	 0.107877460445922 
735	 0.108227596354973 
736	 0.108525835390008 
737	 0.108782603205048 
738	 0.109208901864392 
739	 0.109762051887435 
740	 0.110331864078428 
741	 0.110571866702847 
742	 0.110489272512599 
743	 0.110619759187723 
744	 0.110872421943138 
745	 0.111145566784065 
746	 0.111323774518419 
747	 0.111487340538187 
748	 0.111889952605895 
749	 0.112345379796688 
750	 0.112695993648577 
751	 0.112567903271944 
752	 0.112284964029739 
753	 0.112234417770902 
754	 0.112667142929213 
755	 0.113384101652588 
756	 0.113724888315436 
757	 0.113854957391734 
758	 0.11384347370176 
759	 0.113670858881041 
760	 0.113527544707681 
761	 0.114069802280608 
762	 0.114420981762254 
763	 0.114378602703432 
764	 0.114125299144976 
765	 0.114122140891486 
766	 0.114485386951465 
767	 0.115016971017185 
768	 0.115430986133189 
769	 0.115387225675504 
770	 0.115786672259619 
771	 0.116484945921985 
772	 0.116133038893487 
773	 0.115677630498613 
774	 0.115770437625289 
775	 0.116143888173428 
776	 0.116489951898738 
777	 0.116325979651202 
778	 0.116168515891632 
779	 0.116272061202709 
780	 0.116992017426053 
781	 0.117504644993659 
782	 0.117213970371492 
783	 0.117110033316167 
784	 0.117303376466052 
785	 0.117724000406489 
786	 0.117528665520411 
787	 0.116790355972974 
788	 0.11733785964729 
789	 0.11822966388145 
790	 0.1185201726296 
791	 0.11890626233545 
792	 0.119199105094629 
793	 0.118684925215686 
794	 0.118002464913369 
795	 0.11754441674233 
796	 0.117871842703306 
797	 0.118368929331909 
798	 0.118406784014487 
799	 0.118608930631489 
800	 0.118985884298375 
801	 0.119312284411653 
802	 0.119293912353279 
803	 0.118943702012405 
804	 0.11908476584412 
805	 0.119338364995664 
806	 0.119252590717055 
807	 0.11946077872598 
808	 0.119923996929724 
809	 0.120231463423809 
810	 0.120134156490487 
811	 0.119694598977878 
812	 0.120226524405801 
813	 0.120761259895988 
814	 0.119926298190828 
815	 0.120119251926878 
816	 0.121365796789054 
817	 0.121806481779122 
818	 0.121644364858684 
819	 0.121211962129578 
820	 0.122007101704097 
821	 0.122776872812755 
822	 0.121947341950575 
823	 0.121496843517111 
824	 0.121823118467802 
825	 0.122726081500227 
826	 0.123168075457952 
827	 0.12287395688035 
828	 0.123391382198656 
829	 0.123843508152266 
830	 0.123051294504894 
831	 0.122962351486025 
832	 0.123540557215576 
833	 0.123304611660228 
834	 0.123498448359776 
835	 0.124405965057253 
836	 0.124616251108777 
837	 0.124153461878791 
838	 0.123231314853651 
839	 0.123074175188724 
840	 0.123624686748338 
841	 0.123830414021149 
842	 0.124236457867511 
843	 0.124850153034386 
844	 0.124553059070303 
845	 0.124013138996035 
846	 0.124071265825879 
847	 0.12435664420021 
848	 0.124577511165931 
849	 0.124028118874662 
850	 0.123971712676677 
851	 0.124763831770207 
852	 0.12511983419076 
853	 0.125079211523192 
854	 0.124855467919929 
855	 0.12545043035403 
856	 0.126271201791138 
857	 0.125256343635825 
858	 0.124702978967402 
859	 0.125107062707134 
860	 0.124582007923173 
861	 0.124182392496129 
862	 0.12493329925539 
863	 0.125533321281961 
864	 0.125866925412187 
865	 0.126267714055067 
866	 0.126777650243945 
867	 0.127105788792021 
868	 0.125722362749496 
869	 0.125023440225454 
870	 0.126722140986332 
871	 0.1271998772599 
872	 0.126662639607602 
873	 0.126602822296424 
874	 0.127160756074744 
875	 0.127995183167327 
876	 0.127334098842686 
877	 0.126809112509457 
878	 0.127454451199382 
879	 0.127429428807408 
880	 0.127077804440834 
881	 0.127332943968192 
882	 0.12818234516706 
883	 0.129325950473876 
884	 0.129813268730119 
885	 0.12982933575379 
886	 0.129532594272571 
887	 0.129196864772049 
888	 0.129139030848944 
889	 0.129680821874279 
890	 0.129100431093296 
891	 0.128050204205477 
892	 0.13006518388516 
893	 0.131446504439965 
894	 0.130661278673426 
895	 0.130229844152976 
896	 0.130332499113922 
897	 0.130855160749042 
898	 0.130140026539295 
899	 0.129040992748081 
900	 0.130537639826665 
901	 0.131780600399519 
902	 0.13212517117818 
903	 0.133542894363107 
904	 0.133703700976917 
905	 0.131200182867548 
906	 0.130829174176862 
907	 0.131946741758042 
908	 0.13208245083035 
909	 0.132566135607363 
910	 0.133264949440245 
911	 0.132422321185343 
912	 0.132104253719798 
913	 0.133194345188151 
914	 0.132993154286718 
915	 0.132279474620831 
916	 0.132285749269 
917	 0.130690092719619 
918	 0.129004525323774 
919	 0.132670125616546 
920	 0.135055923885572 
921	 0.134260448958451 
922	 0.133568181935623 
923	 0.134666505028494 
924	 0.138334986611038 
925	 0.136551187960787 
926	 0.131581424467143 
927	 0.13169378356433 
928	 0.133809467141292 
929	 0.136714840308042 
930	 0.139230985118595 
931	 0.138936502712641 
932	 0.13437140211265 
933	 0.131849499183695 
934	 0.131973793646311 
935	 0.133435041866594 
936	 0.126383079393801 
937	 0.11780608176416 
938	 0.13234245108714 
939	 0.138282725933105 
940	 0.13001785565792 
941	 0.131289135118396 
942	 0.134146905219635 
943	 0.132401867476357 
944	 0.128616287852477 
945	 0.127239374256361 
946	 0.134604576721532 
947	 0.136853135836695 
948	 0.132909367669343 
949	 0.131799117116875 
950	 0.132957887554237 
951	 0.135093291737387 
952	 0.131975258524409 
953	 0.129080228807165 
954	 0.131343277547119 
955	 0.132006111825293 
956	 0.131931720823963 
957	 0.134868859455486 
958	 0.133089942873936 
959	 0.128389178590552 
960	 0.133717499293028 
961	 0.138109671313712 
962	 0.136996537206865 
963	 0.136970380493673 
964	 0.135282233008368 
965	 0.129480399811822 
966	 0.129246812229684 
967	 0.132243588848048 
968	 0.13056865697144 
969	 0.129991835935157 
970	 0.131289073185545 
971	 0.131330274364503 
972	 0.132341990921332 
973	 0.135226431034423 
974	 0.137964768259402 
975	 0.138458928737589 
976	 0.135053514476276 
977	 0.134238605626821 
978	 0.135934911809532 
979	 0.136988931374654 
980	 0.136878607549109 
981	 0.136463693363096 
982	 0.140389104904304 
983	 0.141753485260632 
984	 0.137533993297765 
985	 0.13341385776186 
986	 0.132417528161075 
987	 0.13652228400772 
988	 0.136514928906708 
989	 0.134107829507296 
990	 0.136466419583105 
991	 0.13554783501442 
992	 0.131836365006698 
993	 0.13577076158696 
994	 0.136925977246234 
995	 0.131748181695939 
996	 0.133057383712971 
997	 0.136280822461433 
998	 0.136347489109996 
999	 0.137226245640382 
1000	 0.138927090359427 
1001	 0.140497039505328 
1002	 0.142024940850993 
1003	 0.142622190194656 
1004	 0.139374619413114 
1005	 0.138574541093645 
1006	 0.141702809864502 
1007	 0.141952031021936 
1008	 0.139165399789703 
1009	 0.134690399660887 
1010	 0.138796033980502 
1011	 0.145118395677227 
1012	 0.143413853424717 
1013	 0.145478438255962 
1014	 0.149055994744095 
1015	 0.142278007162757 
1016	 0.143223370375113 
1017	 0.152109089170997 
1018	 0.144234091665707 
1019	 0.13867827855388 
1020	 0.143852954917592 
1021	 0.140208246952452 
1022	 0.132635721229197 
1023	 0.128885296156808 
1024	 0.139018625410641 
1025	 0.150277464278237 
1026	 0.139716755308285 
1027	 0.13368859817901 
1028	 0.135204440122676 
1029	 0.131033342804786 
1030	 0.132521057491191 
1031	 0.142000178345928 
1032	 0.153306158583511 
1033	 0.152976057172642 
1034	 0.137257274581773 
1035	 0.137962789027898 
1036	 0.148961436247181 
1037	 0.158149080314557 
1038	 0.14434541013767 
1039	 0.125191066776893 
1040	 0.138936765620279 
1041	 0.149252362191169 
1042	 0.149694511615818 
1043	 0.149358280605398 
1044	 0.142910749837566 
1045	 0.133607633978358 
1046	 0.142511445647717 
1047	 0.147276752665368 
1048	 0.139853210213184 
1049	 0.16113276763065 
1050	 0.171292812653111 
1051	 0.135560732052167 
1052	 0.128846079364144 
1053	 0.145398565220461 
1054	 0.15557371735668 
1055	 0.148069527428444 
1056	 0.132921196166204 
1057	 0.140190303411763 
1058	 0.146022563959296 
1059	 0.14583865911581 
1060	 0.152966420667379 
1061	 0.152303092269033 
1062	 0.139041259648883 
1063	 0.123423399774964 
1064	 0.121383925699525 
1065	 0.140830834923231 
1066	 0.138907159234056 
1067	 0.133388278060133 
1068	 0.145648992424487 
1069	 0.137831235482937 
1070	 0.125945489223079 
1071	 0.148184709008041 
1072	 0.134748645054414 
1073	 9.38436724519701E-02 
1074	 0.107049905635531 
1075	 0.126641221286839 
