Wavelength	A00043.asd
325	 6.43127497432548E-02 
326	 6.41613245561453E-02 
327	 6.05229491202035E-02 
328	 5.68381639535415E-02 
329	 6.02637619696249E-02 
330	 7.06240622810398E-02 
331	 7.47469501926075E-02 
332	 7.28035980447608E-02 
333	 6.64070620124909E-02 
334	 0.063702572238254 
335	 6.48249950340802E-02 
336	 6.63658826412632E-02 
337	 6.85082128657198E-02 
338	 7.06804634420392E-02 
339	 7.21257600566534E-02 
340	 6.99830921511986E-02 
341	 6.29429837246051E-02 
342	 6.16931563015816E-02 
343	 6.48500466622079E-02 
344	 6.71057718728923E-02 
345	 0.065708229493508 
346	 6.22415590391122E-02 
347	 6.65944300354722E-02 
348	 0.070017688104599 
349	 6.71396988611778E-02 
350	 6.50277555795035E-02 
351	 6.40267430273583E-02 
352	 6.30710208705417E-02 
353	 6.24769576281233E-02 
354	 6.25810283355401E-02 
355	 6.45413141483404E-02 
356	 6.55886200828561E-02 
357	 6.45425918930248E-02 
358	 6.63172144513012E-02 
359	 6.84413523800313E-02 
360	 6.64620574818618E-02 
361	 6.45664400289559E-02 
362	 6.41417545217139E-02 
363	 6.61598838582633E-02 
364	 6.69762478106994E-02 
365	 0.065188059417187 
366	 0.065303629543838 
367	 6.63358254620215E-02 
368	 6.63603810651656E-02 
369	 6.59426968901508E-02 
370	 6.56581572866531E-02 
371	 6.71197778262421E-02 
372	 6.81194433764878E-02 
373	 6.75015576666422E-02 
374	 6.62561845621857E-02 
375	 6.61155663806058E-02 
376	 6.91166574360257E-02 
377	 6.87128217568069E-02 
378	 6.55353226961866E-02 
379	 6.70466946147912E-02 
380	 6.83711423022113E-02 
381	 6.73759296281707E-02 
382	 6.70776970755724E-02 
383	 6.73648175412414E-02 
384	 6.77198358904314E-02 
385	 0.06873580121675 
386	 6.95421232044564E-02 
387	 6.72134738232836E-02 
388	 6.59251142123946E-02 
389	 6.71361457086044E-02 
390	 6.71510281512312E-02 
391	 6.74732253769976E-02 
392	 7.01195402004106E-02 
393	 0.070245748529112 
394	 6.84580174210447E-02 
395	 6.98734934063061E-02 
396	 6.93420718719615E-02 
397	 6.58989117292854E-02 
398	 6.61393985481155E-02 
399	 6.73461273326992E-02 
400	 6.63714624643897E-02 
401	 6.63282260718395E-02 
402	 6.72788927677939E-02 
403	 6.81863391671986E-02 
404	 6.85726434356486E-02 
405	 6.83456542019038E-02 
406	 6.84365969720568E-02 
407	 6.87518878296027E-02 
408	 6.90550499645743E-02 
409	 6.87967366419683E-02 
410	 6.82097708619542E-02 
411	 6.82390261810745E-02 
412	 6.86203794438465E-02 
413	 6.91335052573958E-02 
414	 6.92974399958014E-02 
415	 6.91835652553673E-02 
416	 6.89555854718585E-02 
417	 6.88598143395504E-02 
418	 6.90283039789773E-02 
419	 6.96683126289971E-02 
420	 7.01343051339951E-02 
421	 7.01188746981021E-02 
422	 7.01864910468881E-02 
423	 7.03917533390849E-02 
424	 7.07157678364788E-02 
425	 7.09121462816985E-02 
426	 7.10179978601431E-02 
427	 7.14093732901768E-02 
428	 7.18722792579879E-02 
429	 7.22246799732197E-02 
430	 7.22744160683364E-02 
431	 7.21865346982184E-02 
432	 7.23102712674981E-02 
433	 7.17802767647068E-02 
434	 7.08880033361443E-02 
435	 7.13995969577261E-02 
436	 7.20254030229119E-02 
437	 0.071979400880731 
438	 7.25530590541522E-02 
439	 7.32550077784157E-02 
440	 7.28478124244622E-02 
441	 0.072671842995512 
442	 7.30632805370399E-02 
443	 7.36081928140151E-02 
444	 7.39412148942304E-02 
445	 7.38595407661009E-02 
446	 7.44925512771648E-02 
447	 7.53674273954962E-02 
448	 7.50204827625922E-02 
449	 7.46303484984381E-02 
450	 7.46254504385147E-02 
451	 7.49373919260128E-02 
452	 7.54414630290174E-02 
453	 7.59819322260671E-02 
454	 7.60147150530968E-02 
455	 7.57252448613885E-02 
456	 7.59600345799717E-02 
457	 7.60610932740579E-02 
458	 7.58974008377485E-02 
459	 7.63205397292725E-02 
460	 7.67539536463333E-02 
461	 7.64611166395344E-02 
462	 7.63062349375822E-02 
463	 7.64090749486648E-02 
464	 7.64590074390609E-02 
465	 7.66504147523126E-02 
466	 7.70287569952914E-02 
467	 7.72693035104066E-02 
468	 7.72587429237408E-02 
469	 7.68968555788064E-02 
470	 7.69275064974786E-02 
471	 7.73176570424538E-02 
472	 7.71245108306771E-02 
473	 7.71748018606486E-02 
474	 7.78531809754494E-02 
475	 7.77593907373463E-02 
476	 7.72962473600293E-02 
477	 7.74949920521031E-02 
478	 7.76508817439305E-02 
479	 7.76484981515872E-02 
480	 7.78097579498201E-02 
481	 7.81728795373887E-02 
482	 7.87192801482184E-02 
483	 7.89132290417272E-02 
484	 0.078842749875429 
485	 7.89726660883528E-02 
486	 7.89530288505788E-02 
487	 7.87715091586715E-02 
488	 7.90267421766695E-02 
489	 7.91414804446507E-02 
490	 7.85592000830292E-02 
491	 7.83854627586275E-02 
492	 7.88267059993074E-02 
493	 7.99699914077396E-02 
494	 8.03806886036764E-02 
495	 7.96422074998576E-02 
496	 7.95732163584393E-02 
497	 8.00339187262514E-02 
498	 8.06066676239797E-02 
499	 8.08012526550197E-02 
500	 8.06144479862131E-02 
501	 8.05431219277844E-02 
502	 8.06525578933017E-02 
503	 8.09347365764884E-02 
504	 8.09133216451371E-02 
505	 0.080847949170992 
506	 8.12772372741984E-02 
507	 0.081601086856838 
508	 8.17109634723032E-02 
509	 8.19307638102128E-02 
510	 8.20736302672243E-02 
511	 8.20207410632163E-02 
512	 8.22405562636349E-02 
513	 8.26248595764921E-02 
514	 8.27543279335194E-02 
515	 8.27707414020366E-02 
516	 8.27372680210512E-02 
517	 8.27406892461024E-02 
518	 8.28479504844651E-02 
519	 8.31023710064456E-02 
520	 8.31119582268321E-02 
521	 8.30469469847564E-02 
522	 8.36202636331799E-02 
523	 8.40489169752965E-02 
524	 8.40450494090878E-02 
525	 8.42975100988669E-02 
526	 8.46137784135727E-02 
527	 8.46186913057036E-02 
528	 8.47361821511153E-02 
529	 8.50106629312145E-02 
530	 8.51897012102453E-02 
531	 8.54353542181767E-02 
532	 8.58110216926368E-02 
533	 8.58518492807947E-02 
534	 8.57195721440635E-02 
535	 8.58388846148315E-02 
536	 8.61484512216126E-02 
537	 0.086565814336171 
538	 8.67790212408822E-02 
539	 8.68915631366151E-02 
540	 8.70139045341697E-02 
541	 8.70304106090471E-02 
542	 8.69590577881374E-02 
543	 8.68598032552976E-02 
544	 8.68871026201435E-02 
545	 8.71258614495144E-02 
546	 8.76256793695651E-02 
547	 8.80508438861927E-02 
548	 8.79750687136218E-02 
549	 8.79056002802646E-02 
550	 8.80205169510009E-02 
551	 8.84494180838072E-02 
552	 8.88124192000832E-02 
553	 8.88560213723092E-02 
554	 8.86397879813515E-02 
555	 8.84953777096551E-02 
556	 8.90170547271773E-02 
557	 8.94697955393208E-02 
558	 8.96348696400442E-02 
559	 8.97360682490837E-02 
560	 8.98779452604459E-02 
561	 9.01264244389231E-02 
562	 9.00794311073489E-02 
563	 8.98865904541026E-02 
564	 9.01398781004587E-02 
565	 9.03287750246999E-02 
566	 9.02867838160172E-02 
567	 9.03607133432255E-02 
568	 9.04673114338608E-02 
569	 0.090464555998449 
570	 9.06005200463232E-02 
571	 9.08969243954713E-02 
572	 9.12551763033985E-02 
573	 9.13931810005943E-02 
574	 9.12076401199479E-02 
575	 9.14205233953873E-02 
576	 9.17718574694273E-02 
577	 9.15954947623732E-02 
578	 9.14596360849155E-02 
579	 9.15037232546483E-02 
580	 9.14775272697355E-02 
581	 9.15599354985319E-02 
582	 9.18860832799058E-02 
583	 9.20558309909199E-02 
584	 0.092028550148257 
585	 9.18909380242784E-02 
586	 9.17937708615426E-02 
587	 9.18204500828437E-02 
588	 9.19531630196891E-02 
589	 9.21300026550157E-02 
590	 9.22661540151959E-02 
591	 9.22177731461533E-02 
592	 0.092024218636213 
593	 9.18936303152339E-02 
594	 9.18936368703822E-02 
595	 9.20515181669114E-02 
596	 9.21748467714428E-02 
597	 9.23172014776942E-02 
598	 9.26612669620852E-02 
599	 9.25842017893267E-02 
600	 9.20646443428477E-02 
601	 9.18838898470015E-02 
602	 9.19521765850616E-02 
603	 9.21519072517867E-02 
604	 9.24372319681786E-02 
605	 9.26383355433539E-02 
606	 9.23739250152514E-02 
607	 0.09212902171721 
608	 9.21328208081848E-02 
609	 9.24370730312004E-02 
610	 9.26345182093826E-02 
611	 9.22252832402184E-02 
612	 0.092180518704259 
613	 9.25296314860443E-02 
614	 9.25436677708166E-02 
615	 9.24001658621048E-02 
616	 9.22210406923974E-02 
617	 0.092120096214593 
618	 9.20718333465072E-02 
619	 9.19607289978653E-02 
620	 9.22772395062343E-02 
621	 9.29027118369493E-02 
622	 9.27359264922765E-02 
623	 9.22122895229458E-02 
624	 9.18105308260895E-02 
625	 9.20558621390876E-02 
626	 9.26389644765486E-02 
627	 9.24796937317539E-02 
628	 9.23270547111054E-02 
629	 9.24550863359288E-02 
630	 9.26815020529334E-02 
631	 9.28235370520417E-02 
632	 9.26811351999575E-02 
633	 9.28262055577745E-02 
634	 9.31621119970612E-02 
635	 9.29089567686826E-02 
636	 9.25841371973653E-02 
637	 9.25327187074696E-02 
638	 9.28438114834175E-02 
639	 9.32752323386588E-02 
640	 9.34018131618416E-02 
641	 0.093230216132651 
642	 9.28927244549893E-02 
643	 9.29302720595947E-02 
644	 9.31645279106158E-02 
645	 9.34054376066517E-02 
646	 9.35131334527893E-02 
647	 9.34956656110146E-02 
648	 9.34941634915646E-02 
649	 9.33640805994078E-02 
650	 9.31004344263459E-02 
651	 9.29468558000034E-02 
652	 9.29140270499517E-02 
653	 9.29846220682937E-02 
654	 9.32208474501648E-02 
655	 0.093461745073213 
656	 9.31623405576623E-02 
657	 9.25663991018781E-02 
658	 9.19462090047726E-02 
659	 9.17235773266287E-02 
660	 9.18083859417648E-02 
661	 9.20349322420947E-02 
662	 9.17036408142627E-02 
663	 9.08855960867428E-02 
664	 9.08261677507285E-02 
665	 9.10845193835116E-02 
666	 9.12017235475992E-02 
667	 9.06085549263364E-02 
668	 8.97480855316977E-02 
669	 8.99722692949451E-02 
670	 9.01127651297771E-02 
671	 8.98415536093607E-02 
672	 8.98519062146755E-02 
673	 0.089958563370736 
674	 8.99015642806999E-02 
675	 9.01341195951419E-02 
676	 9.05628147565431E-02 
677	 9.06092094485688E-02 
678	 9.06145780886399E-02 
679	 9.07591850964454E-02 
680	 9.09590131982161E-02 
681	 9.11153946959642E-02 
682	 9.10607821749578E-02 
683	 9.15503195075758E-02 
684	 0.09252280924891 
685	 9.29148175171453E-02 
686	 9.29933172219496E-02 
687	 9.30067972677488E-02 
688	 9.31582470665175E-02 
689	 9.35160791792759E-02 
690	 9.41563470203001E-02 
691	 9.45705597694267E-02 
692	 9.47218826846978E-02 
693	 9.52874152666363E-02 
694	 9.60199899430607E-02 
695	 9.65871921558498E-02 
696	 9.69828412943186E-02 
697	 9.71434643129318E-02 
698	 9.68601437876219E-02 
699	 0.096745340873654 
700	 9.70744619278763E-02 
701	 9.73670716454093E-02 
702	 9.76130960979256E-02 
703	 9.78796803341467E-02 
704	 9.79585194062306E-02 
705	 9.78786639265852E-02 
706	 9.78988026043749E-02 
707	 9.79608869369661E-02 
708	 9.80164081393499E-02 
709	 9.79294727758908E-02 
710	 0.097913477750402 
711	 9.84074245853384E-02 
712	 9.87846320852129E-02 
713	 9.88640995021554E-02 
714	 9.88173912729618E-02 
715	 0.098852273569311 
716	 0.099147103957837 
717	 9.91609205804383E-02 
718	 9.90965344082924E-02 
719	 0.100059905030252 
720	 0.100386144112419 
721	 9.97524129319512E-02 
722	 9.96066208936938E-02 
723	 0.099548529875108 
724	 9.90750397552916E-02 
725	 9.94352043435159E-02 
726	 0.100438120501781 
727	 0.100725827721034 
728	 0.100559829399007 
729	 0.10017721166297 
730	 0.100365636966588 
731	 0.100845058006991 
732	 0.101100730906688 
733	 0.101075054969979 
734	 0.10088267455759 
735	 0.100950873922273 
736	 0.101126705902711 
737	 0.101286552862171 
738	 0.101313213306904 
739	 0.101278581434 
740	 0.10134313471173 
741	 0.101525607176069 
742	 0.101730203545525 
743	 0.101511888570881 
744	 0.101338710118135 
745	 0.101586404643813 
746	 0.101708216795047 
747	 0.101663916844657 
748	 0.101532382578812 
749	 0.101785944097701 
750	 0.102427405922595 
751	 0.102454155454107 
752	 0.102170557499022 
753	 0.101998725128788 
754	 0.102257943003526 
755	 0.102780370240747 
756	 0.102907597772188 
757	 0.102847445953065 
758	 0.102694237040748 
759	 0.102551815279047 
760	 0.102552678978125 
761	 0.103014140311901 
762	 0.103060393582262 
763	 0.102929187427114 
764	 0.103792981402995 
765	 0.104359970922408 
766	 0.104220771128779 
767	 0.10380080522486 
768	 0.103406136734023 
769	 0.103335993773471 
770	 0.103445836858518 
771	 0.10359547391487 
772	 0.103354264457978 
773	 0.103364160463407 
774	 0.103947507483458 
775	 0.103911489118533 
776	 0.10357128697568 
777	 0.103799402113865 
778	 0.104116573906508 
779	 0.104305942273452 
780	 0.104013183466337 
781	 0.103972526678276 
782	 0.104682790416759 
783	 0.104892729067017 
784	 0.104702813582909 
785	 0.104794546160425 
786	 0.104717499168649 
787	 0.104528210004799 
788	 0.105134724447249 
789	 0.105762793601816 
790	 0.105670953089885 
791	 0.105478383119566 
792	 0.105349983726429 
793	 0.105360037347748 
794	 0.105597810857053 
795	 0.105960330537962 
796	 0.105796426647077 
797	 0.105471621895194 
798	 0.105388701079863 
799	 0.105322290321592 
800	 0.105305707409027 
801	 0.105510019692609 
802	 0.105828778816336 
803	 0.106164966345888 
804	 0.106289534286212 
805	 0.106371856450778 
806	 0.106598688162692 
807	 0.106541175080425 
808	 0.106257468011803 
809	 0.106109552236935 
810	 0.106245270918965 
811	 0.106636666052765 
812	 0.106575393652949 
813	 0.1062679934622 
814	 0.106087888787623 
815	 0.10642828600809 
816	 0.107157192259813 
817	 0.107552213812965 
818	 0.107562103019481 
819	 0.107196551897217 
820	 0.106531212150922 
821	 0.106395622369011 
822	 0.107693706547226 
823	 0.107927219509628 
824	 0.107091072763135 
825	 0.106888909366341 
826	 0.107087750726366 
827	 0.107518866567186 
828	 0.107552252727337 
829	 0.107140460069574 
830	 0.106372965638192 
831	 0.106810945875871 
832	 0.108170233962609 
833	 0.108727702376469 
834	 0.108650302848722 
835	 0.108050399378235 
836	 0.107337558346523 
837	 0.106902401424665 
838	 0.107100009677779 
839	 0.107371667133977 
840	 0.107620731177451 
841	 0.10800095250702 
842	 0.108316803496377 
843	 0.108426341563956 
844	 0.108030837849249 
845	 0.107850982706159 
846	 0.108647961228711 
847	 0.108709262003357 
848	 0.108144220865302 
849	 0.108343314708032 
850	 0.108648333981757 
851	 0.108718605218158 
852	 0.108147874082187 
853	 0.107531033424015 
854	 0.107555502848727 
855	 0.108151591341211 
856	 0.108784868069441 
857	 0.108178520725391 
858	 0.10777138738699 
859	 0.107942109316855 
860	 0.107761866101458 
861	 0.108006926774222 
862	 0.109288133820806 
863	 0.109016188917206 
864	 0.107900067769197 
865	 0.108773256001231 
866	 0.109649170026266 
867	 0.10990002589567 
868	 0.109945162982563 
869	 0.109941598779553 
870	 0.109974902787641 
871	 0.10951325113863 
872	 0.109008254924591 
873	 0.109478522203329 
874	 0.109797550182523 
875	 0.109542336812482 
876	 0.10844736368374 
877	 0.107908846357291 
878	 0.108759353725097 
879	 0.109080106216814 
880	 0.109224689478321 
881	 0.110233775868235 
882	 0.110203472525798 
883	 0.109174235405676 
884	 0.109311974156479 
885	 0.10879388151034 
886	 0.107018387537878 
887	 0.107091261548867 
888	 0.108455312568241 
889	 0.109879069096368 
890	 0.110244350800244 
891	 0.109743366997063 
892	 0.110158711040667 
893	 0.110018053859891 
894	 0.108971496781822 
895	 0.109300162595607 
896	 0.109993996047284 
897	 0.109631875761023 
898	 0.108487768339231 
899	 0.107734611187851 
900	 0.110282169795113 
901	 0.110631161636441 
902	 0.10831188115478 
903	 0.110127658117383 
904	 0.111811958736115 
905	 0.110204003973065 
906	 0.10944113625121 
907	 0.109788533242533 
908	 0.110625110298295 
909	 0.111066029022981 
910	 0.111095895058265 
911	 0.112144980318648 
912	 0.112081549067484 
913	 0.110358937768458 
914	 0.112112680041761 
915	 0.113819396629962 
916	 0.110813745679312 
917	 0.110514789452844 
918	 0.112288160678077 
919	 0.109970464766885 
920	 0.108878708096466 
921	 0.110078415320621 
922	 0.108649891399787 
923	 0.108247085293157 
924	 0.111911863365878 
925	 0.113050847018794 
926	 0.111773395721925 
927	 0.110925919981382 
928	 0.109687099002576 
929	 0.107896805162776 
930	 0.105414818106959 
931	 0.10414797659392 
932	 0.10542245272635 
933	 0.104816804990805 
934	 0.104735583098785 
935	 0.109374783853492 
936	 0.11425159395346 
937	 0.116786858123688 
938	 0.1138874297701 
939	 0.111556689370865 
940	 0.111988895988363 
941	 0.116023122519851 
942	 0.114190124297486 
943	 0.102076439093221 
944	 0.104383884948199 
945	 0.114852587306751 
946	 0.118598325080995 
947	 0.115451204060607 
948	 0.108069971765892 
949	 0.104881368810968 
950	 0.109527990190132 
951	 0.120086918242123 
952	 0.117406701594823 
953	 0.110764550791438 
954	 0.110065110754015 
955	 0.114372618683687 
956	 0.118676956761763 
957	 0.114281537906225 
958	 0.111101338944904 
959	 0.111075228883758 
960	 0.111067946574493 
961	 0.112261208385041 
962	 0.114569595542938 
963	 0.115040759351445 
964	 0.114990397131569 
965	 0.115809031815607 
966	 0.116349348655335 
967	 0.1152003213138 
968	 0.110114393490835 
969	 0.103303082566086 
970	 9.84444648632723E-02 
971	 0.105817217634766 
972	 0.113422922301505 
973	 0.11446150132577 
974	 0.111777755170417 
975	 0.109760774317592 
976	 0.112615807510645 
977	 0.113199647154848 
978	 0.111493319127957 
979	 0.110369952290047 
980	 0.110579834029456 
981	 0.112195422067681 
982	 0.114311731434317 
983	 0.11645021099704 
984	 0.11728416512136 
985	 0.109665900309944 
986	 0.107019658613283 
987	 0.121901194480133 
988	 0.121956231566297 
989	 0.111854721108867 
990	 0.113240353699258 
991	 0.111390321645018 
992	 0.106134796847547 
993	 0.111132744518986 
994	 0.116080749752408 
995	 0.115615336735467 
996	 0.111556739840325 
997	 0.109381501706214 
998	 0.113618252607643 
999	 0.113834746310878 
1000	 0.111040149114419 
1001	 0.110231185083596 
1002	 0.105211206748364 
1003	 9.91139194627708E-02 
1004	 0.107312541479459 
1005	 0.113234199354367 
1006	 0.110974317366606 
1007	 0.108450884484769 
1008	 0.107917324613638 
1009	 0.110528944455908 
1010	 0.112820184444945 
1011	 0.113134227433379 
1012	 0.110140679936697 
1013	 0.111093111770929 
1014	 0.115180095534549 
1015	 0.116759593837648 
1016	 0.114632621430635 
1017	 0.111133797320991 
1018	 0.118356082276261 
1019	 0.121432039158845 
1020	 0.114329416665613 
1021	 0.114638497007783 
1022	 0.118307425278283 
1023	 0.11972947880143 
1024	 0.12010072959882 
1025	 0.118821332181721 
1026	 0.114904596083603 
1027	 0.112232762203922 
1028	 0.112371063316142 
1029	 0.117581376395299 
1030	 0.113820278946258 
1031	 0.101643459490258 
1032	 0.107720928934719 
1033	 0.114618986299862 
1034	 0.112218100236878 
1035	 0.117301239299719 
1036	 0.119528681850005 
1037	 0.108257773696974 
1038	 0.102530955011492 
1039	 0.103764665688227 
1040	 0.107354960092121 
1041	 0.122387055513668 
1042	 0.14036142352284 
1043	 0.13557441194329 
1044	 0.126690080149915 
1045	 0.122791838873595 
1046	 0.130267792777045 
1047	 0.125891575211446 
1048	 0.10343770608441 
1049	 0.124276997822382 
1050	 0.137959619537416 
1051	 0.10150049346061 
1052	 0.102742856691474 
1053	 0.124621212685261 
1054	 0.119125856904393 
1055	 0.114521292203576 
1056	 0.120786172145815 
1057	 0.148688818258767 
1058	 0.147080376313589 
1059	 0.112747564254454 
1060	 0.1084341490861 
1061	 0.111691384464497 
1062	 0.109150725807366 
1063	 8.63377967574567E-02 
1064	 7.29799139939821E-02 
1065	 8.95216788204632E-02 
1066	 0.120812294284617 
1067	 0.140907161817698 
1068	 0.127138218291023 
1069	 0.110193134862952 
1070	 0.106283851667171 
1071	 0.129722489268053 
1072	 0.130713550679842 
1073	 0.105188229558984 
1074	 6.87798663868298E-02 
1075	 0.095209795155146 
