Wavelength	A00023.asd
325	 5.51656371986291E-02 
326	 5.52875939948732E-02 
327	 5.87791356082619E-02 
328	 5.95125570269244E-02 
329	 5.74593040044101E-02 
330	 5.39152434339558E-02 
331	 0.05436392973968 
332	 5.88017378250704E-02 
333	 6.60641738750079E-02 
334	 6.28429886520445E-02 
335	 0.05401358446097 
336	 5.52705416292248E-02 
337	 0.056972311594982 
338	 5.66822988247468E-02 
339	 5.75727851448156E-02 
340	 5.73603048889011E-02 
341	 5.47056366189935E-02 
342	 5.71440819987023E-02 
343	 6.17275945468048E-02 
344	 0.061267815333677 
345	 5.97900046974135E-02 
346	 5.84902814083523E-02 
347	 5.76616191667254E-02 
348	 5.66067781837496E-02 
349	 5.52079212823411E-02 
350	 0.056911150008677 
351	 5.92236485606837E-02 
352	 5.77089657971975E-02 
353	 5.64469535346855E-02 
354	 5.66527447692576E-02 
355	 5.89332403047911E-02 
356	 5.95908300014971E-02 
357	 5.71533732489482E-02 
358	 5.87460687575653E-02 
359	 6.15434752329691E-02 
360	 6.01454791857127E-02 
361	 5.88361260991448E-02 
362	 5.85034142566979E-02 
363	 5.84289370496489E-02 
364	 5.81960975273048E-02 
365	 5.77058797830666E-02 
366	 5.79046538616566E-02 
367	 5.85461442408488E-02 
368	 5.91925069098802E-02 
369	 5.92075752260867E-02 
370	 5.85936578719041E-02 
371	 5.76169066684491E-02 
372	 5.82784992964575E-02 
373	 6.11690797541407E-02 
374	 6.20684741046429E-02 
375	 6.20612118977945E-02 
376	 6.32682275382774E-02 
377	 6.29207944836579E-02 
378	 6.11449314666963E-02 
379	 6.00901290580796E-02 
380	 6.07464978789196E-02 
381	 6.29353876488353E-02 
382	 6.18629549818644E-02 
383	 5.99243646226162E-02 
384	 6.08481164013991E-02 
385	 6.23888775415573E-02 
386	 6.33472781897016E-02 
387	 6.19565636695932E-02 
388	 6.08844199780557E-02 
389	 6.11522844550799E-02 
390	 6.06204437451226E-02 
391	 0.060942085649099 
392	 6.40889464050972E-02 
393	 6.34714557643166E-02 
394	 6.00221582244904E-02 
395	 6.06140116689749E-02 
396	 6.08644875974869E-02 
397	 5.94457450234873E-02 
398	 5.95625717456117E-02 
399	 5.99357230397002E-02 
400	 5.91108495128323E-02 
401	 5.94116372230737E-02 
402	 6.07207543831949E-02 
403	 6.19585317992448E-02 
404	 6.23924956076004E-02 
405	 6.19336791303329E-02 
406	 6.22563137494062E-02 
407	 6.28739503085419E-02 
408	 6.29955535873378E-02 
409	 6.31542302983262E-02 
410	 6.31721761051269E-02 
411	 6.20813424769045E-02 
412	 6.17007778237401E-02 
413	 6.26073612402684E-02 
414	 6.24732078649062E-02 
415	 6.21114927214464E-02 
416	 6.28474414933031E-02 
417	 6.30476981496973E-02 
418	 6.27034836672276E-02 
419	 6.30360071947863E-02 
420	 6.32113675224831E-02 
421	 6.29185636004179E-02 
422	 6.33089670049875E-02 
423	 6.39619180566207E-02 
424	 6.41060937401484E-02 
425	 6.39531915743796E-02 
426	 6.38379028457072E-02 
427	 6.48223288376172E-02 
428	 6.55563034878312E-02 
429	 6.52274234541995E-02 
430	 6.49523723789962E-02 
431	 6.48805358246504E-02 
432	 6.50195397558423E-02 
433	 6.45622253105037E-02 
434	 6.37719338707719E-02 
435	 0.06433996150408 
436	 6.49806494042965E-02 
437	 0.064929044585748 
438	 6.56501234459659E-02 
439	 6.65147181639813E-02 
440	 6.59991942631536E-02 
441	 6.55985940553371E-02 
442	 6.57778272699508E-02 
443	 6.64189061421816E-02 
444	 6.69175769582257E-02 
445	 6.68362480552054E-02 
446	 6.69603179890129E-02 
447	 6.72203199549094E-02 
448	 6.70971249411634E-02 
449	 6.73877370273135E-02 
450	 6.81548246773089E-02 
451	 6.83150169335556E-02 
452	 6.83058160723915E-02 
453	 6.86024639471983E-02 
454	 6.87154011445441E-02 
455	 6.86961418853925E-02 
456	 6.89616809153348E-02 
457	 6.90408596469757E-02 
458	 0.068866560955956 
459	 6.92517260279271E-02 
460	 6.96496575891401E-02 
461	 6.93600583771896E-02 
462	 6.92649323174389E-02 
463	 6.94163509079238E-02 
464	 6.92855150565708E-02 
465	 6.92933277332486E-02 
466	 6.96398828685561E-02 
467	 7.01783465502281E-02 
468	 7.04177364155962E-02 
469	 6.96931509663278E-02 
470	 6.95694658692842E-02 
471	 7.01779666066205E-02 
472	 7.03899232825008E-02 
473	 7.04777525975079E-02 
474	 7.06031487264513E-02 
475	 7.06443985522395E-02 
476	 7.07059048701972E-02 
477	 7.10284560724521E-02 
478	 0.070749615122704 
479	 0.069995173191484 
480	 7.03130587937972E-02 
481	 7.09529510383341E-02 
482	 7.12722134782464E-02 
483	 7.15251412752733E-02 
484	 7.17146249205663E-02 
485	 7.17847413021243E-02 
486	 7.17610130182641E-02 
487	 7.17553496440006E-02 
488	 0.072306772224389 
489	 7.26058880569873E-02 
490	 7.18759221621157E-02 
491	 7.12485232898923E-02 
492	 7.11259428703936E-02 
493	 7.19427292363482E-02 
494	 7.26700785896854E-02 
495	 7.28510109702333E-02 
496	 0.072916962256171 
497	 7.29891065017388E-02 
498	 7.31696494105449E-02 
499	 7.34674448928108E-02 
500	 7.37222483353959E-02 
501	 7.33683697479324E-02 
502	 7.31578426953043E-02 
503	 7.35111260247046E-02 
504	 0.073842687558686 
505	 7.40863923788315E-02 
506	 7.42820632631694E-02 
507	 7.43083476455083E-02 
508	 7.42439487097228E-02 
509	 7.45521648057402E-02 
510	 7.47440965718623E-02 
511	 7.44790775816597E-02 
512	 7.45646196534271E-02 
513	 0.075018758524316 
514	 7.56259395916548E-02 
515	 7.59186930415063E-02 
516	 7.57424656730511E-02 
517	 0.075447924954276 
518	 7.53376063053636E-02 
519	 7.56715605440813E-02 
520	 7.57502956068343E-02 
521	 7.56470858086311E-02 
522	 7.59619137907959E-02 
523	 7.63432101500166E-02 
524	 7.66636439581124E-02 
525	 7.72497663303409E-02 
526	 7.76682549632781E-02 
527	 0.077270403160662 
528	 7.71938271957513E-02 
529	 7.75491064735997E-02 
530	 7.75630970041091E-02 
531	 7.76653800310776E-02 
532	 7.80955161972166E-02 
533	 7.82993193879192E-02 
534	 0.078287141916326 
535	 7.82132572870681E-02 
536	 7.84069700362336E-02 
537	 0.078863619556445 
538	 0.078962591624931 
539	 7.90289070614405E-02 
540	 7.93817350610184E-02 
541	 0.079518406784344 
542	 7.94588714536024E-02 
543	 0.079513166027559 
544	 7.96055762174205E-02 
545	 7.97109708959318E-02 
546	 7.98353184476999E-02 
547	 7.98912220256896E-02 
548	 7.97674884507686E-02 
549	 7.98906859556115E-02 
550	 8.03365824919537E-02 
551	 8.10287825585512E-02 
552	 8.14228584503392E-02 
553	 8.12089988629386E-02 
554	 8.09623986713659E-02 
555	 8.08758013319172E-02 
556	 0.081124789663028 
557	 8.14439790866848E-02 
558	 8.16885828947084E-02 
559	 0.081679397141352 
560	 8.16953961327933E-02 
561	 0.081971434539846 
562	 0.081964303990303 
563	 8.18048557123529E-02 
564	 8.20996287806029E-02 
565	 0.082400494162676 
566	 8.25004423548444E-02 
567	 8.23539716664329E-02 
568	 8.21604505059381E-02 
569	 8.21766729769807E-02 
570	 8.25147243458758E-02 
571	 8.30674333279386E-02 
572	 8.34667039795552E-02 
573	 8.34539708652065E-02 
574	 8.29780314952507E-02 
575	 8.30630202118336E-02 
576	 8.33963358432679E-02 
577	 8.31151607856009E-02 
578	 8.30363945496495E-02 
579	 8.32908073577438E-02 
580	 8.32839268218411E-02 
581	 8.32483610015436E-02 
582	 8.34018786991059E-02 
583	 8.36068323695187E-02 
584	 8.37977991756605E-02 
585	 8.38734270443996E-02 
586	 8.39802612095843E-02 
587	 8.41124076900514E-02 
588	 8.38489470276026E-02 
589	 8.35393164936201E-02 
590	 8.36833281127943E-02 
591	 8.34745842846954E-02 
592	 8.30453744629522E-02 
593	 8.34526644131028E-02 
594	 8.38158075280033E-02 
595	 8.36792509609752E-02 
596	 8.38553460703719E-02 
597	 8.41579028591237E-02 
598	 8.40752042035095E-02 
599	 8.40660818557839E-02 
600	 8.41559659528161E-02 
601	 8.38006376905407E-02 
602	 8.35122772368219E-02 
603	 8.37402118882969E-02 
604	 8.41059528809991E-02 
605	 8.43399533821094E-02 
606	 8.38859340809271E-02 
607	 8.37968321943975E-02 
608	 8.43701422693018E-02 
609	 8.45693486954781E-02 
610	 8.43756031640584E-02 
611	 8.39006488498765E-02 
612	 8.38643936821028E-02 
613	 8.42488285558354E-02 
614	 8.43173720234228E-02 
615	 8.42980240875907E-02 
616	 8.43106608311384E-02 
617	 8.42208119587076E-02 
618	 8.40912069289459E-02 
619	 8.40409076227242E-02 
620	 8.41217419344753E-02 
621	 8.42803943601901E-02 
622	 8.42444195823326E-02 
623	 8.40452582235567E-02 
624	 8.37466606544913E-02 
625	 8.36690182318903E-02 
626	 8.37767285817949E-02 
627	 8.37778924683711E-02 
628	 8.39066690112982E-02 
629	 8.42067821669844E-02 
630	 8.44422365601695E-02 
631	 8.44839313546723E-02 
632	 0.08421392680299 
633	 8.43906465301706E-02 
634	 8.49012217641337E-02 
635	 8.47557342277434E-02 
636	 8.44654896344633E-02 
637	 8.43782217945978E-02 
638	 8.47096397375997E-02 
639	 8.50811221946233E-02 
640	 8.47423660047108E-02 
641	 8.47445605256422E-02 
642	 8.52155226654091E-02 
643	 8.51942023817956E-02 
644	 0.085080787882076 
645	 8.52419557838075E-02 
646	 8.54014702606175E-02 
647	 0.085410128298675 
648	 8.49774135732046E-02 
649	 8.46988525449051E-02 
650	 0.084772676403881 
651	 8.47150658359251E-02 
652	 8.46798573242366E-02 
653	 8.48924922737145E-02 
654	 8.50737051785021E-02 
655	 8.50779365667611E-02 
656	 0.084661024929658 
657	 8.42856618230491E-02 
658	 8.41967697720584E-02 
659	 8.38069679816684E-02 
660	 8.34561246124285E-02 
661	 8.38510028235123E-02 
662	 8.34996862906843E-02 
663	 8.23793850149415E-02 
664	 0.082321284367334 
665	 8.25523010478847E-02 
666	 8.23843395667264E-02 
667	 8.21489453348777E-02 
668	 8.19646090796455E-02 
669	 8.20409788378621E-02 
670	 8.18844390769872E-02 
671	 8.15001875394286E-02 
672	 8.20689410537207E-02 
673	 8.26069293241946E-02 
674	 8.19361045119036E-02 
675	 8.16864078798356E-02 
676	 8.20164685994278E-02 
677	 8.22046809119139E-02 
678	 0.082411647464341 
679	 0.082651949501051 
680	 8.24644260804645E-02 
681	 8.23382229807453E-02 
682	 8.31230971738222E-02 
683	 8.37676781080055E-02 
684	 8.40465893697465E-02 
685	 0.08442426645885 
686	 8.48056403142785E-02 
687	 8.50547840019897E-02 
688	 8.47605408056702E-02 
689	 8.44670674538284E-02 
690	 8.54182337656367E-02 
691	 8.64247394271884E-02 
692	 8.70408013567412E-02 
693	 8.70940937569946E-02 
694	 8.70823850681554E-02 
695	 8.75194649516114E-02 
696	 8.80796379960747E-02 
697	 8.85625429123921E-02 
698	 8.86267633370053E-02 
699	 8.86903497974922E-02 
700	 8.88848588678042E-02 
701	 8.85740077494553E-02 
702	 8.83892851086661E-02 
703	 8.92625268654793E-02 
704	 8.96993622838216E-02 
705	 8.95516214068799E-02 
706	 8.97228263640858E-02 
707	 8.97608801169028E-02 
708	 8.94428324641359E-02 
709	 8.94308307907676E-02 
710	 8.97065257379604E-02 
711	 9.00637050760537E-02 
712	 9.03902615342815E-02 
713	 9.05782265443273E-02 
714	 9.03997756428139E-02 
715	 9.03167130831713E-02 
716	 9.07520566498092E-02 
717	 0.0910194505564 
718	 9.10290967227591E-02 
719	 0.091056383802067 
720	 9.09477750015081E-02 
721	 9.07896081071258E-02 
722	 0.0911299839928 
723	 9.14230323516189E-02 
724	 9.10156596288659E-02 
725	 9.10404970751471E-02 
726	 9.16010493462039E-02 
727	 9.22494606283949E-02 
728	 9.22799854480628E-02 
729	 9.15207714597831E-02 
730	 9.15778822697513E-02 
731	 9.20938436661988E-02 
732	 9.23141993550781E-02 
733	 9.22944053743621E-02 
734	 0.092175682051302 
735	 9.24054533710665E-02 
736	 9.27900325723274E-02 
737	 9.31316098656077E-02 
738	 0.09299544841149 
739	 9.26418522150648E-02 
740	 9.26609356896441E-02 
741	 9.27853151107817E-02 
742	 9.28666523024101E-02 
743	 9.25859357026968E-02 
744	 9.23973198352079E-02 
745	 9.26657774019997E-02 
746	 9.28947263707947E-02 
747	 9.30313999550881E-02 
748	 9.31709971506723E-02 
749	 9.34097938505885E-02 
750	 9.36384134601492E-02 
751	 9.30616765820892E-02 
752	 9.25018051837574E-02 
753	 9.28512263127326E-02 
754	 9.32792135804278E-02 
755	 9.35597510247944E-02 
756	 9.35994626921457E-02 
757	 9.35586801236968E-02 
758	 0.093521326230039 
759	 9.34392193044031E-02 
760	 9.36304155741088E-02 
761	 0.094738251193126 
762	 9.47609132875613E-02 
763	 9.39977149230647E-02 
764	 9.42669292772298E-02 
765	 9.47292379324544E-02 
766	 0.095013378216822 
767	 9.50385080907902E-02 
768	 9.49569045801391E-02 
769	 9.49321779263287E-02 
770	 9.49799526436155E-02 
771	 9.50267887728293E-02 
772	 9.47232771092341E-02 
773	 0.094661433071431 
774	 9.51349976368029E-02 
775	 9.49711568965725E-02 
776	 9.46045276920431E-02 
777	 0.095127171692549 
778	 9.55569820090449E-02 
779	 9.55627530350825E-02 
780	 9.50363555705506E-02 
781	 9.48350567204668E-02 
782	 9.55553536822528E-02 
783	 9.59203272803469E-02 
784	 9.59228021467004E-02 
785	 9.60183167855234E-02 
786	 9.61673934298293E-02 
787	 9.63413230025022E-02 
788	 0.096396771685028 
789	 9.62898287649581E-02 
790	 9.60441157804247E-02 
791	 0.096414663409481 
792	 9.71182186216474E-02 
793	 9.71399201045701E-02 
794	 0.097019839031539 
795	 9.69483575386582E-02 
796	 9.69432026452936E-02 
797	 9.68972091611763E-02 
798	 9.67103333706888E-02 
799	 9.65563739583086E-02 
800	 9.65568398567967E-02 
801	 9.69339351541974E-02 
802	 9.73814681400288E-02 
803	 9.76395904979272E-02 
804	 0.097122466898219 
805	 0.096601172910058 
806	 9.69133351130866E-02 
807	 9.70706023485203E-02 
808	 9.71046061364597E-02 
809	 9.78218054899959E-02 
810	 9.79250324729116E-02 
811	 9.71059556148994E-02 
812	 9.73499272814455E-02 
813	 0.098036198208437 
814	 9.81223662609777E-02 
815	 9.79810981428384E-02 
816	 9.78771843500997E-02 
817	 9.84896773381843E-02 
818	 9.84822362060112E-02 
819	 9.75934364332235E-02 
820	 9.77651371033405E-02 
821	 9.84704433486223E-02 
822	 9.89041276115519E-02 
823	 9.86582643332978E-02 
824	 0.098037610694041 
825	 9.81488126166729E-02 
826	 9.86077397121593E-02 
827	 9.91140181360419E-02 
828	 9.87616329064509E-02 
829	 9.82178314294159E-02 
830	 9.83910035958493E-02 
831	 9.84420934311063E-02 
832	 9.83522526269271E-02 
833	 9.86346338791569E-02 
834	 0.098682694711442 
835	 9.84219319557201E-02 
836	 9.90930626961904E-02 
837	 9.96628132202298E-02 
838	 0.098917348143608 
839	 9.84635795916492E-02 
840	 9.85247916163566E-02 
841	 9.86396609869946E-02 
842	 9.90066057049692E-02 
843	 9.95394745952957E-02 
844	 9.93933041912268E-02 
845	 9.91125258247198E-02 
846	 9.93671635264017E-02 
847	 9.95465660524639E-02 
848	 9.95585745595183E-02 
849	 9.95314219011543E-02 
850	 0.099298817957323 
851	 9.90112826390005E-02 
852	 9.99225972361088E-02 
853	 0.100659267145212 
854	 9.97446066791467E-02 
855	 9.93471251721246E-02 
856	 9.95712164418962E-02 
857	 9.94787978032304E-02 
858	 0.099810774534197 
859	 0.100438811135375 
860	 9.95446943063646E-02 
861	 9.85509796413731E-02 
862	 0.098836232725246 
863	 9.88290278571606E-02 
864	 9.86671157981826E-02 
865	 0.099380899891835 
866	 9.98250908618899E-02 
867	 9.97874271698732E-02 
868	 0.100257690542713 
869	 0.100900943584925 
870	 0.101340733339354 
871	 0.100908962401904 
872	 0.100083586001839 
873	 9.99523721120337E-02 
874	 0.100084362403296 
875	 0.100273708468928 
876	 0.100259281193806 
877	 9.97734331424008E-02 
878	 0.098859925389661 
879	 9.94759969971242E-02 
880	 0.100479744136461 
881	 9.96018928092935E-02 
882	 9.90134556273954E-02 
883	 9.90892728148274E-02 
884	 9.89130235921421E-02 
885	 9.90775258341955E-02 
886	 9.97821134630696E-02 
887	 9.99896388721947E-02 
888	 0.100198501901943 
889	 0.10118268712073 
890	 0.100846851485451 
891	 9.94678346451719E-02 
892	 9.94373539386567E-02 
893	 9.98703861384655E-02 
894	 0.10031846001493 
895	 0.100349721746047 
896	 0.100569229287578 
897	 0.101626054525941 
898	 0.101441943312399 
899	 0.100679894418176 
900	 0.102311593540271 
901	 0.101969108256659 
902	 0.099509412240971 
903	 0.101006825052577 
904	 0.102555560600253 
905	 0.101239934170085 
906	 0.100628950679897 
907	 0.10113676559554 
908	 0.102595961027533 
909	 0.102982604640533 
910	 0.101990190204047 
911	 0.101001701742163 
912	 0.101282432874986 
913	 0.103073414689569 
914	 0.102868819014306 
915	 0.10148790782303 
916	 0.100470401923292 
917	 0.101118880185633 
918	 0.102148793183757 
919	 9.85887778887611E-02 
920	 9.99165007559339E-02 
921	 0.106536977694613 
922	 0.102328700066581 
923	 9.77627242417563E-02 
924	 0.102235786925398 
925	 0.103048671204775 
926	 0.100418809132044 
927	 9.95191941159712E-02 
928	 9.97691088159109E-02 
929	 0.100612000657633 
930	 9.87565393946233E-02 
931	 9.87848876647824E-02 
932	 0.102899878268962 
933	 9.46402366513564E-02 
934	 0.087111595750147 
935	 0.101686527102208 
936	 0.109250126258252 
937	 0.106857701460169 
938	 0.106631685957429 
939	 0.105182614619914 
940	 0.102235683321289 
941	 9.93433115551141E-02 
942	 9.69998748461982E-02 
943	 9.56642943030031E-02 
944	 9.70979514951731E-02 
945	 9.96895785605028E-02 
946	 0.100731777849878 
947	 0.101103781898941 
948	 0.10225292633196 
949	 0.10835414882646 
950	 0.113316823418777 
951	 0.113682580646402 
952	 0.107168977751118 
953	 0.100663641278061 
954	 0.100270443802506 
955	 0.101373590782675 
956	 0.101579182498848 
957	 9.79965415106606E-02 
958	 9.69252367020029E-02 
959	 9.92732976150005E-02 
960	 0.102466944510789 
961	 0.103942878370142 
962	 0.1033844793218 
963	 0.107169785963594 
964	 0.110547450380749 
965	 0.108813213763903 
966	 0.105771005467984 
967	 0.103261415762038 
968	 0.103474075941382 
969	 0.101488195252318 
970	 9.75352385865005E-02 
971	 9.76608528497449E-02 
972	 9.97019251802473E-02 
973	 0.102173525370401 
974	 0.104059906502081 
975	 0.106045141190443 
976	 0.108765007288148 
977	 0.107973858677394 
978	 0.104821964446565 
979	 0.103483283805273 
980	 0.102801574855634 
981	 0.103079485168935 
982	 0.106687473719744 
983	 0.107697927820117 
984	 0.104170726434879 
985	 0.106397215208744 
986	 0.108514156104031 
987	 0.103985904908584 
988	 0.102584181532125 
989	 0.104995208527533 
990	 0.109255699937496 
991	 0.107862889321044 
992	 0.100877429784792 
993	 9.65171296616771E-02 
994	 9.85332460581056E-02 
995	 0.106481145287619 
996	 0.105941797484249 
997	 0.103926762280795 
998	 0.107606982085302 
999	 0.104443764068685 
1000	 9.92942769167929E-02 
1001	 0.103880413546394 
1002	 0.102116013714838 
1003	 9.53085224214397E-02 
1004	 0.102542172597257 
1005	 0.106015834130831 
1006	 9.95282225638351E-02 
1007	 9.01070758781489E-02 
1008	 8.93177368396197E-02 
1009	 0.102801460458001 
1010	 0.103442238102406 
1011	 9.57689700639849E-02 
1012	 9.15213259541059E-02 
1013	 0.100732028428537 
1014	 0.115084704431024 
1015	 0.109741396846886 
1016	 0.103574974950182 
1017	 0.102751977338936 
1018	 0.107084623326228 
1019	 0.10608199947512 
1020	 9.63957541958494E-02 
1021	 0.096558741409834 
1022	 0.100852568101476 
1023	 0.102250161804044 
1024	 0.107848060505255 
1025	 0.109626034712036 
1026	 9.33285663396412E-02 
1027	 9.02211868715653E-02 
1028	 0.100321949804831 
1029	 9.78632769449016E-02 
1030	 9.48533288305156E-02 
1031	 9.52857371707491E-02 
1032	 9.87564834836164E-02 
1033	 0.103352816721429 
1034	 0.107869814265519 
1035	 0.116598129480694 
1036	 0.117367383273463 
1037	 9.97846774103818E-02 
1038	 9.62498622402964E-02 
1039	 0.10069879237474 
1040	 9.16163151945064E-02 
1041	 9.79384941551323E-02 
1042	 0.114009231594782 
1043	 0.104483473919197 
1044	 0.103292535749467 
1045	 0.116720136769647 
1046	 0.11835551076403 
1047	 0.104556221775762 
1048	 7.96082161481612E-02 
1049	 9.08242832214904E-02 
1050	 0.102414628303211 
1051	 8.34988568853651E-02 
1052	 0.105389091695095 
1053	 0.13700485890126 
1054	 0.115282555659258 
1055	 0.102479850289681 
1056	 0.111177226103409 
1057	 0.138572775051071 
1058	 0.120422029219347 
1059	 6.32410247532697E-02 
1060	 9.55872641978793E-02 
1061	 0.106034411902961 
1062	 6.38038405879579E-02 
1063	 9.04479047639471E-02 
1064	 0.112267756848819 
1065	 8.20469384666104E-02 
1066	 0.095077238336252 
1067	 0.122768670309654 
1068	 0.125671044705251 
1069	 0.104522858211572 
1070	 7.77843327829958E-02 
1071	 7.80583887127348E-02 
1072	 0.10651181463854 
1073	 0.131118558465907 
1074	 7.16904399456449E-02 
1075	 6.43831313924789E-02 
