Wavelength	A00086.asd
325	-8.36250010198171E-03 
326	-6.9296077737276E-03 
327	-8.21745020082339E-03 
328	-4.32632068195225E-03 
329	-1.55565018798473E-03 
330	-1.95050998547107E-03 
331	-3.20833032326746E-03 
332	-4.01204406702246E-03 
333	-3.38332774997346E-03 
334	-4.91956609963194E-03 
335	-6.09928672492992E-03 
336	 7.39499263250941E-04 
337	 4.32680371460992E-03 
338	 2.56213250376838E-03 
339	 4.4148172990556E-03 
340	 3.98481031721041E-03 
341	-2.78345061581831E-03 
342	-2.97276096379495E-03 
343	 1.30859650679624E-03 
344	 2.89229501011693E-03 
345	 1.35312133481528E-03 
346	-1.63887165695845E-03 
347	 1.72568274853656E-03 
348	 3.16337450713295E-03 
349	-1.82349972175128E-03 
350	-2.09821897234726E-03 
351	 5.00692289993769E-04 
352	 1.01400085021325E-03 
353	-1.39932655850835E-04 
354	-1.81287924806824E-03 
355	 2.48484768327586E-04 
356	 9.29587146215955E-04 
357	-2.11234503374888E-03 
358	-1.55020642400138E-03 
359	 9.85192560364071E-04 
360	 1.80916402509946E-03 
361	 1.15044308772144E-03 
362	-9.23493568043331E-05 
363	 1.24660397152548E-03 
364	 1.13402072320367E-03 
365	-1.65332594619706E-03 
366	-1.11728465697651E-04 
367	 2.39314868938528E-03 
368	 5.37154012393633E-04 
369	-1.53561115654888E-03 
370	-2.64550420968838E-03 
371	-2.45145794263391E-03 
372	-1.48305292012251E-03 
373	-4.04631390655823E-04 
374	-1.3498363596047E-03 
375	-2.56579383399581E-03 
376	-1.43176444920143E-03 
377	 1.08431936783501E-04 
378	 9.7458097230041E-04 
379	-8.52990216048233E-04 
380	-1.55752226996869E-03 
381	 3.64276621963205E-04 
382	 1.00103499646511E-03 
383	 4.01963045790066E-04 
384	-8.20207507961713E-04 
385	-5.54865549292714E-04 
386	 8.0378976109982E-04 
387	 3.94614896633411E-04 
388	-2.57508095761726E-04 
389	-4.89068714936125E-04 
390	-7.75316756866502E-04 
391	-5.73105608813355E-04 
392	 7.13885866317796E-04 
393	-1.85787025843064E-04 
394	-2.29385536903524E-03 
395	-8.19331119676517E-04 
396	 6.00374545006389E-04 
397	 4.50160379399423E-04 
398	-3.55736740453738E-04 
399	-1.25878406582385E-03 
400	-1.81275000068945E-03 
401	-1.64914748667017E-03 
402	-8.35588067448308E-04 
403	 6.76773985948326E-04 
404	 7.46527565385664E-04 
405	-9.71088161542673E-04 
406	-4.72375966458227E-04 
407	 6.03727179450171E-04 
408	-1.6483477217665E-04 
409	-2.64219653465974E-04 
410	 2.53316682772926E-04 
411	-4.47489365635221E-04 
412	-6.96233574033318E-04 
413	 4.35312427234898E-05 
414	-1.45891316842499E-04 
415	-6.73306390917021E-04 
416	-5.55572739043941E-04 
417	-2.24147597038908E-04 
418	 1.48186898121973E-04 
419	 4.27512647577043E-04 
420	 2.25481833939276E-04 
421	-4.84700273211172E-04 
422	-3.50821712091822E-04 
423	 1.89431157336401E-04 
424	 2.91350842353555E-04 
425	 1.09924909684593E-05 
426	-3.51405021480484E-04 
427	 2.98794562809664E-04 
428	 8.69668926908516E-04 
429	 6.74011924955268E-04 
430	 3.90246109557353E-04 
431	 1.47998013168289E-04 
432	 1.04040572804402E-05 
433	-2.83757259886924E-04 
434	-5.80383780748854E-04 
435	-2.86665779801711E-05 
436	 2.15265807173378E-04 
437	-4.85102794661727E-04 
438	-4.4121798611289E-04 
439	-4.73370388045518E-05 
440	-4.94577391024092E-04 
441	-7.73209617243622E-04 
442	-6.22448755288295E-04 
443	-2.71801791414756E-04 
444	-3.90847813153585E-05 
445	-1.35147126563003E-04 
446	 4.56551917542146E-05 
447	 3.34784061775685E-04 
448	 1.10244320153135E-04 
449	-6.72952412358942E-06 
450	 1.65711093566928E-04 
451	 3.90236075073354E-04 
452	 6.34713984335417E-04 
453	 8.52477223415993E-04 
454	 5.21906942445117E-04 
455	-8.37923823425936E-05 
456	 7.5802480601798E-05 
457	 9.38526162844053E-05 
458	-2.23148569767176E-04 
459	 2.88851953211109E-04 
460	 8.16238891069067E-04 
461	 3.21466816322669E-04 
462	-1.36135869160313E-04 
463	-3.70487625931503E-04 
464	-7.18689176540844E-04 
465	-5.58967389357053E-04 
466	 2.78743722162053E-04 
467	 6.10923919932876E-04 
468	 5.18473632854372E-04 
469	 3.43573930071272E-04 
470	 1.01247862989125E-04 
471	-9.04800042449985E-05 
472	 5.26195487885468E-05 
473	 2.0220397234932E-04 
474	 1.55309048495405E-04 
475	 9.46622976671591E-05 
476	 1.17174955666639E-04 
477	 3.86445771387457E-04 
478	 9.68246760551468E-05 
479	-6.34126969476791E-04 
480	-3.07277768059776E-04 
481	 1.78300810211926E-04 
482	 7.86216634404266E-05 
483	-1.54936062275332E-04 
484	-2.22156796208662E-04 
485	 5.08855548330104E-04 
486	 6.43673953735127E-04 
487	-7.91121051206663E-05 
488	-1.64035611113251E-05 
489	 2.73019625602689E-04 
490	 1.14954065549439E-04 
491	-4.76359913279793E-04 
492	-9.73701763859831E-04 
493	 1.25059447772287E-04 
494	 7.46967201541103E-04 
495	 1.77048110164841E-04 
496	 2.12446602655654E-04 
497	 3.9267632902394E-04 
498	-9.00557198040634E-05 
499	-1.06922234238127E-04 
500	 2.3979831336422E-04 
501	-4.43628183741794E-04 
502	-7.87323415142846E-04 
503	-1.08435153892144E-04 
504	 9.246039177227E-06 
505	-2.03787260351051E-04 
506	-7.1097054347262E-06 
507	 2.14870789777309E-05 
508	-1.35471189320438E-04 
509	 9.86982045927119E-05 
510	 3.10470656023227E-04 
511	 1.78637038903476E-04 
512	 9.4152518422784E-05 
513	 5.58648635237729E-05 
514	-1.06509515692374E-04 
515	-2.24494573125806E-04 
516	-2.55513415811705E-04 
517	-3.38384832165562E-04 
518	-4.00073721100521E-04 
519	-3.6196334763836E-04 
520	-5.14206162466688E-04 
521	-7.0037633194594E-04 
522	-3.4957186448188E-04 
523	 3.22489281985086E-05 
524	 2.03441854788547E-04 
525	 2.68737598167742E-04 
526	 2.46608647405891E-04 
527	 1.51706451344783E-04 
528	 5.01649859893811E-05 
529	 1.86560300519412E-05 
530	 2.2412881964929E-04 
531	 4.36051864148899E-04 
532	 4.93980744851644E-04 
533	 4.71393444224094E-04 
534	 3.61088305719423E-04 
535	 9.78065098287341E-05 
536	 8.44488490759723E-05 
537	 3.30958070664843E-04 
538	 2.10896111429517E-04 
539	 1.73794526837575E-05 
540	 5.72542922595454E-05 
541	 1.38626350502602E-04 
542	 1.59927921729935E-04 
543	-5.95470557923624E-05 
544	-2.3654043180705E-04 
545	-2.15685024966213E-04 
546	 1.42193881319341E-04 
547	 4.16258550998381E-04 
548	 5.7928498473467E-05 
549	-1.66540762080523E-04 
550	-1.01455899970954E-04 
551	 5.04115606265676E-05 
552	 2.34415526393219E-04 
553	 3.70959078626114E-04 
554	 1.85722405939492E-04 
555	-1.43241249250045E-04 
556	-2.39584139379147E-04 
557	-1.63722083871822E-04 
558	 4.92432683470873E-05 
559	 3.14880877099427E-04 
560	 3.96799751722256E-04 
561	 1.21918939531806E-04 
562	 9.35974800455146E-05 
563	 2.29771329840971E-04 
564	-2.92168872179865E-05 
565	-1.46597272574063E-04 
566	 1.82169767746472E-05 
567	-8.22306632620392E-05 
568	-3.58172064638838E-04 
569	-6.30010588875596E-04 
570	-3.70661912639876E-04 
571	 2.88179466371882E-04 
572	 5.05687412900234E-04 
573	 2.98001276046303E-04 
574	-2.13238949970628E-04 
575	-3.81926751956306E-05 
576	 4.1856797596969E-04 
577	 1.34864149347814E-04 
578	 1.01562399509499E-04 
579	 4.08632493836895E-04 
580	 6.8121035836067E-05 
581	-3.79211996530626E-04 
582	-4.17864983297935E-04 
583	-1.07158826921369E-04 
584	 2.80594927991192E-04 
585	 8.13260931398958E-05 
586	-1.45736323342786E-04 
587	-1.55462387359853E-04 
588	 8.26293466619369E-05 
589	 2.51758201365297E-04 
590	-5.81980776389825E-05 
591	-3.12059665186671E-04 
592	-3.39125897276653E-04 
593	-8.43340417804731E-05 
594	 1.96594058481156E-04 
595	 3.33626240172909E-04 
596	 3.36216125560191E-04 
597	 3.11168365810978E-04 
598	 4.64091573086909E-04 
599	 3.53647407441243E-04 
600	-2.81811658765101E-05 
601	-9.11981488734689E-05 
602	-8.9226953625885E-05 
603	-2.43689116369432E-04 
604	-1.6552899271121E-04 
605	 5.32290431273836E-05 
606	 2.39593091767372E-05 
607	-5.07183659528376E-05 
608	-6.82349423066374E-05 
609	 1.44273707706652E-04 
610	 2.30022925845047E-04 
611	-2.60904776637114E-04 
612	-2.22725848722878E-04 
613	 2.86238842165596E-04 
614	 1.09952698997067E-04 
615	-1.21350704098628E-04 
616	-3.99737396590052E-05 
617	 7.86454922373421E-05 
618	 6.28277440874757E-05 
619	-3.60759376398259E-04 
620	-2.68905974165628E-04 
621	 3.76296035450339E-04 
622	 4.82917161615739E-04 
623	 1.99282206928819E-04 
624	-2.5867037991332E-04 
625	-2.82877316909713E-04 
626	-2.88607427930602E-06 
627	-1.04620416132252E-04 
628	-1.49663335468057E-04 
629	-6.50200798709047E-06 
630	 1.00215168962999E-04 
631	 9.39205561320214E-05 
632	-8.77636295650425E-05 
633	 2.47707401844285E-04 
634	 8.8230721206876E-04 
635	 5.7552159112512E-04 
636	 1.03882863417083E-04 
637	-4.87096214189355E-05 
638	 1.11526057906245E-06 
639	 1.24378715972172E-04 
640	 1.10777070400622E-04 
641	 1.21522863798174E-04 
642	 1.36252681682459E-04 
643	-1.60617751729832E-04 
644	-3.46673600446242E-04 
645	-6.78481333804004E-05 
646	 1.87325664872401E-04 
647	 2.60139445016824E-04 
648	-1.04808106669614E-05 
649	-2.28397431644857E-04 
650	-2.3602824750234E-04 
651	-2.64033021742649E-04 
652	-1.81334147104963E-04 
653	 1.82962013373196E-04 
654	 3.19780282375388E-04 
655	 1.87030782792945E-04 
656	 1.63808618567208E-04 
657	-1.66996408562792E-05 
658	-3.98031683087881E-04 
659	-2.85147390324147E-04 
660	 8.53703286803476E-05 
661	 2.57583327059279E-04 
662	-5.53581713501142E-05 
663	-6.71189310578094E-04 
664	-4.37791185548085E-04 
665	 3.14319296293794E-05 
666	 1.71857317097679E-04 
667	-9.16423539806979E-05 
668	-3.81191959109032E-04 
669	 4.37823864398809E-04 
670	 2.95959615023108E-04 
671	-1.06342355078261E-03 
672	-4.1140183770053E-04 
673	 6.84202559276023E-04 
674	 1.86653137921888E-04 
675	-2.40323764496507E-04 
676	-2.59569054699917E-04 
677	 1.14914395227968E-05 
678	 1.80604546922279E-04 
679	 3.45702936248916E-05 
680	-2.08169531981329E-04 
681	-3.75293342748526E-04 
682	-2.57223490832541E-04 
683	 8.8267520428305E-05 
684	 4.51093014177597E-04 
685	 9.62936423403145E-05 
686	-2.43621888315464E-04 
687	 7.48921007208522E-05 
688	 3.29680045211626E-04 
689	 3.14105660724129E-04 
690	-1.1425753868537E-04 
691	-8.69291985071288E-05 
692	 4.56546801554324E-04 
693	 2.46246377629964E-04 
694	-1.98171963137186E-05 
695	 4.33572922915096E-04 
696	 8.44792649045446E-04 
697	 9.97719014091684E-04 
698	 7.23854187453007E-04 
699	 5.13827914873325E-04 
700	 6.12276494601915E-04 
701	 7.77547264524751E-04 
702	 9.91477810546036E-04 
703	 1.2711590346598E-03 
704	 1.11601580343957E-03 
705	 6.18526981984175E-04 
706	 4.90618927019417E-04 
707	 5.83354605143481E-04 
708	 7.53809973601517E-04 
709	 5.81119801066126E-04 
710	 3.92691104056975E-04 
711	 9.21869022244911E-04 
712	 1.31120844428257E-03 
713	 1.36346600590859E-03 
714	 1.53899920568967E-03 
715	 1.63078408647855E-03 
716	 1.45826751452364E-03 
717	 1.6024257133906E-03 
718	 2.03495844818311E-03 
719	 2.20839174895222E-03 
720	 2.00306762858799E-03 
721	 1.60445520600821E-03 
722	 1.99189173912129E-03 
723	 2.21856939595868E-03 
724	 1.16180634704384E-03 
725	 1.14433326467035E-03 
726	 2.26120930380723E-03 
727	 3.08179532559021E-03 
728	 3.34510500774104E-03 
729	 2.93340417772165E-03 
730	 2.39376680020994E-03 
731	 2.09732850515918E-03 
732	 2.40698537123617E-03 
733	 2.61632927597439E-03 
734	 2.65354072209877E-03 
735	 2.91134102916544E-03 
736	 3.23363050855352E-03 
737	 0.003460588667052 
738	 3.20826584415495E-03 
739	 2.88369120684605E-03 
740	 3.35943865820109E-03 
741	 3.56672462122775E-03 
742	 3.28567793818955E-03 
743	 3.10344816034424E-03 
744	 2.95263920547714E-03 
745	 2.80939173897276E-03 
746	 3.34309996286377E-03 
747	 4.1476347652053E-03 
748	 4.00262489480464E-03 
749	 3.89116239381924E-03 
750	 4.04595772635685E-03 
751	 3.72991231530213E-03 
752	 3.41323579296101E-03 
753	 3.61487834523952E-03 
754	 3.65392392540499E-03 
755	 3.5424077561554E-03 
756	 3.6993181349522E-03 
757	 4.05357612659526E-03 
758	 4.55128234287032E-03 
759	 4.76016652432477E-03 
760	 4.4546503579282E-03 
761	 3.49107554340289E-03 
762	 3.31846292288455E-03 
763	 3.90547000629755E-03 
764	 4.27320244084047E-03 
765	 4.47425689960179E-03 
766	 4.55247291996466E-03 
767	 4.66824182970168E-03 
768	 4.81712580891778E-03 
769	 4.98846680050462E-03 
770	 4.89820080459034E-03 
771	 4.51205908896632E-03 
772	 3.86966075212915E-03 
773	 3.8243779132803E-03 
774	 4.76391824650772E-03 
775	 4.72853929058922E-03 
776	 4.1542731905305E-03 
777	 4.3505721848479E-03 
778	 4.60172157440079E-03 
779	 4.66964857256341E-03 
780	 4.42845670562672E-03 
781	 4.20560274192829E-03 
782	 4.25391679101624E-03 
783	 4.2547402222501E-03 
784	 4.32183626931583E-03 
785	 4.88736048972415E-03 
786	 4.75201965981122E-03 
787	 3.84756786888394E-03 
788	 3.88321200628575E-03 
789	 4.41668627719571E-03 
790	 4.9049441336544E-03 
791	 4.86689967757034E-03 
792	 4.56583169276102E-03 
793	 4.99388225111277E-03 
794	 4.85496767494272E-03 
795	 3.99653377963295E-03 
796	 4.08956081593196E-03 
797	 4.52161848492798E-03 
798	 4.57170580506521E-03 
799	 4.33098642338064E-03 
800	 4.00821445758586E-03 
801	 4.15146293259406E-03 
802	 4.29586092981001E-03 
803	 4.26585865823064E-03 
804	 4.23245232378503E-03 
805	 4.0194750923231E-03 
806	 3.45879914242405E-03 
807	 3.1433197133878E-03 
808	 3.1888282300923E-03 
809	 3.58641782060887E-03 
810	 3.72607645951006E-03 
811	 3.42914038399558E-03 
812	 3.58584746808351E-03 
813	 3.93058719131433E-03 
814	 4.01577755810948E-03 
815	 4.12218189554723E-03 
816	 4.26208096008197E-03 
817	 4.37099783107324E-03 
818	 3.97388197795182E-03 
819	 3.18122975283593E-03 
820	 3.74406584968421E-03 
821	 4.46793066693492E-03 
822	 3.82757179026892E-03 
823	 3.42928727869749E-03 
824	 3.44886252029657E-03 
825	 3.16829937165111E-03 
826	 3.44087197624612E-03 
827	 4.38605068782911E-03 
828	 4.50439635064375E-03 
829	 3.82112165262835E-03 
830	 2.62879491138511E-03 
831	 2.53683528359441E-03 
832	 3.45635627159157E-03 
833	 4.0698005975024E-03 
834	 4.17087669084503E-03 
835	 3.76530334568992E-03 
836	 3.79269245957163E-03 
837	 3.79242448602908E-03 
838	 3.19750956148207E-03 
839	 3.49894960741269E-03 
840	 4.4360225614983E-03 
841	 4.27207146972945E-03 
842	 4.59141195262263E-03 
843	 5.68258901869505E-03 
844	 5.17525298465861E-03 
845	 4.29374969634988E-03 
846	 4.58222813588605E-03 
847	 4.73977941003989E-03 
848	 4.55371952997097E-03 
849	 4.1460896291731E-03 
850	 3.98305069135701E-03 
851	 4.17889258633034E-03 
852	 4.03663497889682E-03 
853	 3.84683557059217E-03 
854	 3.96552300558447E-03 
855	 4.03649896802345E-03 
856	 3.99971987103465E-03 
857	 3.87003542334998E-03 
858	 3.88941446733333E-03 
859	 3.98277707949989E-03 
860	 3.13464841996818E-03 
861	 2.9832162284264E-03 
862	 4.89620544523211E-03 
863	 5.01112293735464E-03 
864	 3.95616832474709E-03 
865	 5.05034654644186E-03 
866	 5.46982850772708E-03 
867	 4.69290565853184E-03 
868	 4.86527226703601E-03 
869	 5.37957395266336E-03 
870	 5.68112753345986E-03 
871	 6.15151548102076E-03 
872	 6.37006318342755E-03 
873	 5.45462305584604E-03 
874	 4.58798125233819E-03 
875	 4.10655505072338E-03 
876	 3.59277541268774E-03 
877	 3.40934958763926E-03 
878	 3.73523454806511E-03 
879	 3.78265442520748E-03 
880	 3.93413737517846E-03 
881	 5.02867046341936E-03 
882	 4.44634277729336E-03 
883	 2.54910184550992E-03 
884	 3.18974213140841E-03 
885	 4.14241134476765E-03 
886	 4.10751643142843E-03 
887	 3.37421269212885E-03 
888	 2.97424739058729E-03 
889	 4.17281012496206E-03 
890	 4.77187794804846E-03 
891	 4.30940871610476E-03 
892	 2.86012694734685E-03 
893	 2.92442555483758E-03 
894	 5.11473951075747E-03 
895	 4.41359747288649E-03 
896	 3.51235594531482E-03 
897	 5.74966092350855E-03 
898	 4.31977256515469E-03 
899	 1.18690169325579E-03 
900	 5.02778609074434E-03 
901	 6.34252947498494E-03 
902	 3.29591412454388E-03 
903	 2.50523122261464E-03 
904	 2.73379077469088E-03 
905	 2.85275438439562E-03 
906	 3.06228383139976E-03 
907	 3.10715194818218E-03 
908	 2.53164805596989E-03 
909	 2.71511614185326E-03 
910	 3.70776666457875E-03 
911	 3.87762636821918E-03 
912	 4.57685435830684E-03 
913	 6.21550164664409E-03 
914	 6.18021722450218E-03 
915	 5.61664542267101E-03 
916	 6.18574886017213E-03 
917	 5.36469883898031E-03 
918	 3.45242494771273E-03 
919	 2.22157122465248E-03 
920	 2.83311219378284E-03 
921	 4.91816718490802E-03 
922	 4.06048407111303E-03 
923	 3.46176759817156E-03 
924	 5.8717705330285E-03 
925	 6.1024439214862E-03 
926	 5.15492595639654E-03 
927	 7.33084910829607E-03 
928	 6.63017129280313E-03 
929	 2.09685493626001E-03 
930	 8.27146921952769E-04 
931	-6.06082265972029E-05 
932	-2.43676597178695E-03 
933	-2.05527757255164E-03 
934	 4.56499523290268E-04 
935	 2.88306646842007E-03 
936	 2.54388347897853E-03 
937	 5.03276575593585E-04 
938	 1.65403878319863E-03 
939	 3.27038046442687E-04 
940	-3.43681204467646E-03 
941	-1.46790393595333E-03 
942	 6.19181966586434E-04 
943	-5.800045162407E-04 
944	 4.87166032640688E-03 
945	 9.66678432919669E-03 
946	 8.6120554669977E-04 
947	 1.58617476232442E-03 
948	 1.23567917606332E-02 
949	 1.51035832366002E-02 
950	 0.014017133640232 
951	 1.13447750928593E-02 
952	 1.01259126069023E-02 
953	 9.55581794558094E-03 
954	 8.58553430844914E-03 
955	 6.67164677110284E-03 
956	 5.34376891879986E-03 
957	 7.62879380052915E-03 
958	 6.72140957579879E-03 
959	 2.16042526840027E-03 
960	-2.33968725092652E-03 
961	-1.94433788066752E-03 
962	 4.30951904586619E-03 
963	 8.73095155680954E-03 
964	 9.95950435203118E-03 
965	 7.62758296806512E-03 
966	 4.29451092774447E-03 
967	 2.82906760275609E-03 
968	 8.19285945829976E-03 
969	 4.11678379253251E-03 
970	-8.1523199833919E-03 
971	-6.01496734439021E-03 
972	-1.13200253288182E-03 
973	 3.23560835462896E-04 
974	 3.41547675924791E-03 
975	 7.25940378272033E-03 
976	 1.01715488035868E-02 
977	 8.01864122552413E-03 
978	 3.71492841004582E-03 
979	 5.36856702246266E-03 
980	 5.0584716045891E-03 
981	 2.35988004817517E-03 
982	 4.26765328780691E-03 
983	 6.84269248418647E-03 
984	 7.51639664977171E-03 
985	 4.49547096926396E-03 
986	 4.64880215767679E-03 
987	 1.38930122311181E-02 
988	 1.00079353794075E-02 
989	-2.72037367089818E-04 
990	 4.77026628801601E-03 
991	 6.04023200137669E-03 
992	 1.77659091995921E-03 
993	 5.87699636435252E-03 
994	 9.49753649148658E-03 
995	 8.54895921030057E-03 
996	 7.35844127937381E-03 
997	 6.0798408741752E-03 
998	 4.56747946559366E-03 
999	 1.46400572665568E-03 
1000	 1.13509977209256E-04 
1001	 6.54341183025568E-03 
1002	 2.42884533960375E-03 
1003	-8.47584365205513E-03 
1004	 3.30499497683235E-03 
1005	 1.13838752758889E-02 
1006	 6.27422630011227E-03 
1007	-2.18852957575143E-03 
1008	-1.87610046711547E-03 
1009	 1.28230380110926E-02 
1010	 1.15051251165584E-02 
1011	 1.41269917502953E-03 
1012	-1.80864605884252E-03 
1013	-2.47111994026114E-03 
1014	-1.67859653149341E-03 
1015	 4.32037752191054E-05 
1016	-6.16822219470182E-03 
1017	-1.71181803254391E-02 
1018	-8.42360947125297E-03 
1019	 3.54818252352905E-03 
1020	 8.94508321612656E-03 
1021	 8.14656753465796E-03 
1022	 5.12440534541952E-03 
1023	 4.19156909601338E-03 
1024	 6.69854995991592E-03 
1025	 6.97203866794084E-03 
1026	-4.51138036210218E-03 
1027	-3.92151471775652E-03 
1028	 5.60129955636375E-03 
1029	-5.57535568763995E-03 
1030	-8.79886647892999E-03 
1031	 1.60829261880337E-04 
1032	-7.54507128807279E-03 
1033	-1.47743431573831E-02 
1034	-9.64558189449715E-03 
1035	 4.50887481601159E-03 
1036	 1.79066718539695E-02 
1037	 2.10112469891845E-02 
1038	 1.21883288229786E-02 
1039	 8.06930263886203E-04 
1040	 2.96865077378333E-03 
1041	 8.06834727959421E-03 
1042	 1.20696755660497E-02 
1043	 1.23070941500179E-02 
1044	 1.08751835656592E-02 
1045	 1.16599799398195E-02 
1046	 3.05624805610942E-02 
1047	 2.58484211288883E-02 
1048	-1.63043531941499E-02 
1049	-7.20347966275041E-03 
1050	 1.66735552308593E-02 
1051	 1.45387732873323E-02 
1052	-8.22594897326441E-04 
1053	-1.57337268502318E-02 
1054	-0.011572449505645 
1055	 6.66337341424433E-03 
1056	 2.81702478588804E-02 
1057	 3.52141606186622E-02 
1058	 1.30755946603472E-02 
1059	-0.02637169035241 
1060	-7.57949925914669E-03 
1061	 1.65724222703064E-02 
1062	 2.25165099557386E-02 
1063	 1.32662032711354E-02 
1064	 2.45901469717852E-03 
1065	 1.34566060739263E-03 
1066	 0.011691345170654 
1067	 1.23508339066689E-02 
1068	-1.55104377335968E-02 
1069	-0.012796490345591 
1070	 4.06538324649804E-03 
1071	-1.29666883323901E-02 
1072	-3.44558915359375E-02 
1073	-5.00749048892464E-02 
1074	-5.62486478219066E-02 
1075	-1.70474956655814E-02 
