Wavelength	A00024.asd
325	 5.35986011890371E-02 
326	 5.20102389618352E-02 
327	 5.79661289810311E-02 
328	 5.81804431038161E-02 
329	 5.82221807395135E-02 
330	 5.87611759190089E-02 
331	 5.21153618933572E-02 
332	 4.69991869287704E-02 
333	 5.18363760879018E-02 
334	 5.60826067087287E-02 
335	 5.74408928006438E-02 
336	 5.45535532939599E-02 
337	 5.59760978894014E-02 
338	 6.19129628298264E-02 
339	 6.05404397852654E-02 
340	 5.66430903714251E-02 
341	 5.47927530017963E-02 
342	 0.05599012000374 
343	 5.87144278832152E-02 
344	 6.01899819689293E-02 
345	 5.96226474557216E-02 
346	 5.75321397576286E-02 
347	 5.70232730010738E-02 
348	 5.63623603088053E-02 
349	 5.46989709017678E-02 
350	 0.055800016282702 
351	 5.72720028264755E-02 
352	 5.47584669046289E-02 
353	 5.18131109705284E-02 
354	 5.05883214689281E-02 
355	 5.52367236390997E-02 
356	 5.85885899283646E-02 
357	 5.69551751439912E-02 
358	 5.78657186878567E-02 
359	 0.060207015668765 
360	 6.10587598802867E-02 
361	 5.91921345305525E-02 
362	 5.61385433794371E-02 
363	 0.057998242276402 
364	 5.91454107416461E-02 
365	 0.057138358917895 
366	 5.69639391674584E-02 
367	 5.78196802043376E-02 
368	 5.79792307062924E-02 
369	 5.73516726977037E-02 
370	 0.056543686098105 
371	 5.77002257905277E-02 
372	 0.058956253382864 
373	 5.92577879310594E-02 
374	 5.88488801245415E-02 
375	 5.92167115643186E-02 
376	 6.22305248363794E-02 
377	 6.27348479973356E-02 
378	 6.04899032027865E-02 
379	 5.88019818410977E-02 
380	 5.84898581544675E-02 
381	 5.95909031725338E-02 
382	 5.87497168151929E-02 
383	 5.75183461309896E-02 
384	 5.83499861171655E-02 
385	 5.97098128562675E-02 
386	 6.03597267304427E-02 
387	 5.75644909467833E-02 
388	 5.72531012444687E-02 
389	 6.08344353881472E-02 
390	 5.93922138402289E-02 
391	 0.057664854471758 
392	 6.18137527172901E-02 
393	 6.24849177677585E-02 
394	 5.97672275392497E-02 
395	 0.059867013732459 
396	 5.95357694916586E-02 
397	 5.80147939667548E-02 
398	 0.058575068643845 
399	 5.92839996268821E-02 
400	 5.80868931776824E-02 
401	 5.83654806151964E-02 
402	 5.98739546451932E-02 
403	 6.06860823443366E-02 
404	 6.08529520909265E-02 
405	 6.05036919961354E-02 
406	 6.04826610898601E-02 
407	 6.07475339634732E-02 
408	 6.11242925362475E-02 
409	 6.08140148322428E-02 
410	 0.060078346782425 
411	 0.060089639830447 
412	 6.05658951348616E-02 
413	 0.061263504545509 
414	 6.16611071654141E-02 
415	 6.16048906840647E-02 
416	 6.09900128563554E-02 
417	 0.060756222823607 
418	 6.10886794562171E-02 
419	 6.18776544343447E-02 
420	 6.20600076408001E-02 
421	 6.13241591418013E-02 
422	 6.19583870027228E-02 
423	 6.30468650146984E-02 
424	 6.29119700910879E-02 
425	 6.27476358475238E-02 
426	 6.29282785619859E-02 
427	 6.37297004895228E-02 
428	 6.42459593472718E-02 
429	 6.39499383722223E-02 
430	 6.37775100727171E-02 
431	 6.37438238597991E-02 
432	 6.36504269618746E-02 
433	 0.063517027147721 
434	 6.33929217234705E-02 
435	 6.33928605221691E-02 
436	 6.35698051822656E-02 
437	 6.39521132216589E-02 
438	 6.45398491870313E-02 
439	 6.49760323984299E-02 
440	 6.45735073724922E-02 
441	 6.47392738509905E-02 
442	 6.56161291604629E-02 
443	 6.58847604510169E-02 
444	 6.58678845457947E-02 
445	 6.58715947266792E-02 
446	 6.58669574585164E-02 
447	 6.58739319595223E-02 
448	 6.58808307756155E-02 
449	 6.61182926263012E-02 
450	 6.65911770409404E-02 
451	 6.69025123135989E-02 
452	 6.71974723848349E-02 
453	 0.067618672456642 
454	 0.067650635501713 
455	 6.74310453578975E-02 
456	 6.76039982378146E-02 
457	 6.78100206574845E-02 
458	 6.79226651725275E-02 
459	 6.80768416115477E-02 
460	 6.82033240660391E-02 
461	 6.82105153695308E-02 
462	 6.80357813813051E-02 
463	 0.067775933946779 
464	 6.77375328873952E-02 
465	 6.77407691348154E-02 
466	 6.77814045923298E-02 
467	 6.85084141101816E-02 
468	 6.92344241091092E-02 
469	 6.88813633639188E-02 
470	 6.89921369351943E-02 
471	 6.96766760931881E-02 
472	 0.069890074116003 
473	 6.96768783271502E-02 
474	 0.069157630074288 
475	 6.90468820443283E-02 
476	 6.92567722987191E-02 
477	 6.94510741412922E-02 
478	 6.94908152029998E-02 
479	 6.94067454483634E-02 
480	 6.95688474112875E-02 
481	 0.069811760001465 
482	 6.99975348233018E-02 
483	 7.01786188042643E-02 
484	 7.04648502430503E-02 
485	 7.12116344473427E-02 
486	 7.12088120262936E-02 
487	 7.03634055855928E-02 
488	 7.08203058798573E-02 
489	 7.13046003778041E-02 
490	 7.04719583006222E-02 
491	 6.99680866091523E-02 
492	 7.01088735547278E-02 
493	 7.09093374652189E-02 
494	 7.13556439335339E-02 
495	 7.11117951016581E-02 
496	 0.071320162050083 
497	 7.16911797479162E-02 
498	 7.17134230426732E-02 
499	 7.19515570750763E-02 
500	 7.22930025130215E-02 
501	 7.18338049073487E-02 
502	 7.16664752550892E-02 
503	 0.072346368222301 
504	 0.072676874775013 
505	 7.27048756695825E-02 
506	 7.27754354068544E-02 
507	 7.28677652882051E-02 
508	 7.30352568449416E-02 
509	 7.34505668659542E-02 
510	 7.38311774266025E-02 
511	 7.39382767138451E-02 
512	 7.37343237383311E-02 
513	 7.34986028056539E-02 
514	 7.38694380610175E-02 
515	 7.43546998144858E-02 
516	 7.46866695138852E-02 
517	 7.45062742383233E-02 
518	 7.42754002983427E-02 
519	 7.44996342452241E-02 
520	 7.45110687914916E-02 
521	 7.44268797674457E-02 
522	 7.49245431059466E-02 
523	 7.54665938497612E-02 
524	 7.57978910874329E-02 
525	 7.60252368728723E-02 
526	 7.61425282888049E-02 
527	 7.61282266204799E-02 
528	 7.61993491560472E-02 
529	 7.63580199587676E-02 
530	 7.63538789372799E-02 
531	 7.64535092980294E-02 
532	 7.68193260587823E-02 
533	 7.72606883562875E-02 
534	 7.75138684375534E-02 
535	 7.71043341338203E-02 
536	 7.69455188906043E-02 
537	 7.72541701918284E-02 
538	 7.74639997945668E-02 
539	 7.76959102843566E-02 
540	 7.80674571220168E-02 
541	 7.81697289452621E-02 
542	 7.80557414229019E-02 
543	 7.80350877347123E-02 
544	 7.82625525736271E-02 
545	 7.87514477331984E-02 
546	 7.90955275640563E-02 
547	 7.92433393018541E-02 
548	 7.91885595175239E-02 
549	 7.91696597574818E-02 
550	 7.93085534650897E-02 
551	 7.97878619119645E-02 
552	 8.01186322262392E-02 
553	 7.99868861412656E-02 
554	 7.95444775624675E-02 
555	 7.92498869324804E-02 
556	 0.079903862505962 
557	 8.04381362423933E-02 
558	 8.05448366202918E-02 
559	 8.06196250673543E-02 
560	 8.06957235814713E-02 
561	 8.07935898065911E-02 
562	 8.08871537877764E-02 
563	 8.10157960292556E-02 
564	 8.13104497679924E-02 
565	 8.15409612362393E-02 
566	 8.15903288592301E-02 
567	 8.14539163147116E-02 
568	 8.12406233531448E-02 
569	 0.081087713537387 
570	 8.10956773009533E-02 
571	 8.13056641014071E-02 
572	 8.18022063076616E-02 
573	 8.19940784494408E-02 
574	 8.16279037929104E-02 
575	 8.18686100973677E-02 
576	 8.24116231263644E-02 
577	 8.24135155940248E-02 
578	 8.22544943215794E-02 
579	 8.20561204651146E-02 
580	 8.18312424404024E-02 
581	 8.17082492451502E-02 
582	 8.18007209552815E-02 
583	 8.21272476253423E-02 
584	 8.25569302382186E-02 
585	 0.082788250421097 
586	 8.29867316046578E-02 
587	 8.31314417208631E-02 
588	 8.27496510480174E-02 
589	 8.22638773437029E-02 
590	 8.22799050791199E-02 
591	 8.22863649587585E-02 
592	 8.22021753542971E-02 
593	 8.21492810586736E-02 
594	 8.22461881398847E-02 
595	 8.25370480340467E-02 
596	 8.27534417396697E-02 
597	 8.29175904752742E-02 
598	 8.31780552290823E-02 
599	 8.29945079243737E-02 
600	 8.23846577397404E-02 
601	 8.21200016367782E-02 
602	 8.22400156189023E-02 
603	 8.27115509020864E-02 
604	 8.31197660646104E-02 
605	 8.32622712326209E-02 
606	 8.27952797132911E-02 
607	 8.27072362839409E-02 
608	 8.32704620777396E-02 
609	 8.33788188918798E-02 
610	 8.31712248101857E-02 
611	 8.29563218968344E-02 
612	 8.30038078001397E-02 
613	 8.32174210645299E-02 
614	 8.30056142634254E-02 
615	 8.27313286014871E-02 
616	 8.26256763939385E-02 
617	 8.26058643377478E-02 
618	 8.26603422707651E-02 
619	 8.27878360282081E-02 
620	 8.28749441877114E-02 
621	 8.28911322213287E-02 
622	 8.29366832476765E-02 
623	 8.27965352310171E-02 
624	 8.23346358674715E-02 
625	 0.082463687443379 
626	 0.0829297688549 
627	 8.25565322888031E-02 
628	 8.25525254889567E-02 
629	 8.31844159753262E-02 
630	 8.30212086570344E-02 
631	 8.26124911911063E-02 
632	 8.27845627604436E-02 
633	 8.32164342281778E-02 
634	 8.36271563501753E-02 
635	 8.33507985406955E-02 
636	 8.31009620659243E-02 
637	 8.32845813968465E-02 
638	 8.34448294513583E-02 
639	 0.083562344289557 
640	 8.37035835809773E-02 
641	 8.39522686483328E-02 
642	 8.42022559730048E-02 
643	 0.083893663885299 
644	 8.35985018065842E-02 
645	 8.38096821536043E-02 
646	 8.39121186898926E-02 
647	 8.39147268385201E-02 
648	 8.41917445044737E-02 
649	 8.42590276933911E-02 
650	 8.39830895318569E-02 
651	 0.083823387511367 
652	 8.36632087296302E-02 
653	 8.33185755884146E-02 
654	 8.33666698065226E-02 
655	 8.37529865233672E-02 
656	 8.37923775157619E-02 
657	 8.35503661509208E-02 
658	 8.31221856129165E-02 
659	 0.082714146509015 
660	 8.24669316775714E-02 
661	 8.25889627466502E-02 
662	 8.23712726955231E-02 
663	 8.17511862001352E-02 
664	 8.14100273462975E-02 
665	 8.12821051370463E-02 
666	 8.12672397846742E-02 
667	 8.10530419298013E-02 
668	 8.07256091749531E-02 
669	 8.06625204292999E-02 
670	 8.04638360289679E-02 
671	 8.01854200805408E-02 
672	 8.10266391623972E-02 
673	 8.17312944203435E-02 
674	 8.08282767010932E-02 
675	 8.03767756891575E-02 
676	 8.06589395354544E-02 
677	 8.09990322610182E-02 
678	 8.12810786426758E-02 
679	 8.14269370134612E-02 
680	 8.16068793262228E-02 
681	 8.17051018726338E-02 
682	 8.14779078202861E-02 
683	 0.081832506999317 
684	 8.27795616474011E-02 
685	 8.33406108448666E-02 
686	 8.35614820837575E-02 
687	 8.35127040993847E-02 
688	 8.38840389577711E-02 
689	 8.44967619866407E-02 
690	 8.47373979060736E-02 
691	 8.48393013616366E-02 
692	 8.49734522553489E-02 
693	 8.56148364686191E-02 
694	 8.62536644545084E-02 
695	 8.63423613493781E-02 
696	 8.67906402135957E-02 
697	 8.74308887943563E-02 
698	 8.73058180780153E-02 
699	 8.72060732107467E-02 
700	 8.74553857373267E-02 
701	 8.74745626352015E-02 
702	 8.74917985005499E-02 
703	 8.78898379099748E-02 
704	 0.088417462578378 
705	 8.88436803124357E-02 
706	 8.86280578754357E-02 
707	 8.84005013482505E-02 
708	 8.85509794148576E-02 
709	 8.86047063431798E-02 
710	 8.86045782874568E-02 
711	 8.87332286679778E-02 
712	 8.90582198373853E-02 
713	 0.089478932266733 
714	 8.94827919616578E-02 
715	 8.93376036265752E-02 
716	 8.93356369832864E-02 
717	 8.98793558132148E-02 
718	 9.07060342126104E-02 
719	 9.05963976943204E-02 
720	 9.02540339443963E-02 
721	 9.00362202914463E-02 
722	 9.00861774341527E-02 
723	 9.00267857873142E-02 
724	 8.94349049150448E-02 
725	 0.089509578193417 
726	 9.02578731734723E-02 
727	 0.090878386655579 
728	 0.09092989105081 
729	 0.090325013228806 
730	 9.03724206386812E-02 
731	 9.06197011987352E-02 
732	 9.02362015538526E-02 
733	 9.00777182492144E-02 
734	 9.03281685887291E-02 
735	 9.09629852685945E-02 
736	 9.14869015770796E-02 
737	 9.15640769744977E-02 
738	 9.15980098554439E-02 
739	 9.16238273121263E-02 
740	 9.15701686557374E-02 
741	 9.17085674724785E-02 
742	 9.20101512867966E-02 
743	 9.20019668254514E-02 
744	 9.18122235488585E-02 
745	 9.16026064395207E-02 
746	 9.18508178709395E-02 
747	 9.22871648342747E-02 
748	 9.20558232642812E-02 
749	 9.18482420973213E-02 
750	 9.18888113626083E-02 
751	 9.19306236063403E-02 
752	 9.20853957345164E-02 
753	 9.24536504964953E-02 
754	 9.22724093882374E-02 
755	 9.18073232140862E-02 
756	 9.22741029064166E-02 
757	 9.27407827515816E-02 
758	 0.09284492664955 
759	 0.093115489172818 
760	 9.36247081218593E-02 
761	 9.38499028549576E-02 
762	 9.36218495261105E-02 
763	 9.33607231429615E-02 
764	 9.39307338840564E-02 
765	 9.41823077577818E-02 
766	 9.38793653065212E-02 
767	 9.41194340789603E-02 
768	 9.43109464739263E-02 
769	 9.36375488071148E-02 
770	 9.33043693918989E-02 
771	 9.34068620454312E-02 
772	 9.30449982402386E-02 
773	 9.30553406418819E-02 
774	 9.38677331687848E-02 
775	 9.40406153327007E-02 
776	 9.39040952251718E-02 
777	 9.44662743466706E-02 
778	 9.46728286350793E-02 
779	 9.43783338558974E-02 
780	 9.43260799245672E-02 
781	 0.094454488529591 
782	 9.46865137738407E-02 
783	 9.48937135333008E-02 
784	 9.50422485239713E-02 
785	 9.51272902052395E-02 
786	 9.52035628187807E-02 
787	 9.52429488838651E-02 
788	 9.49566170337924E-02 
789	 9.48918285413396E-02 
790	 9.54817147025094E-02 
791	 9.53172445897114E-02 
792	 0.09476109944398 
793	 0.095349498438804 
794	 9.59963338519414E-02 
795	 9.62329030762619E-02 
796	 0.095785716724955 
797	 9.52666055689832E-02 
798	 9.53011543608616E-02 
799	 9.56339269746253E-02 
800	 9.60238868641168E-02 
801	 9.59312030831413E-02 
802	 0.096005049685677 
803	 0.096417862467873 
804	 9.66566541322686E-02 
805	 9.66282664949015E-02 
806	 0.09629638357082 
807	 9.59533188679191E-02 
808	 9.58378408982998E-02 
809	 9.64806300682031E-02 
810	 9.67246343490826E-02 
811	 9.62069501358258E-02 
812	 9.62426318548526E-02 
813	 9.66823036778214E-02 
814	 9.71683479717177E-02 
815	 9.74988930237944E-02 
816	 9.75832876077106E-02 
817	 9.75469736877853E-02 
818	 9.69038555395697E-02 
819	 9.58401286257952E-02 
820	 0.096302070191539 
821	 9.73730039849678E-02 
822	 9.77976716037399E-02 
823	 9.74765099930033E-02 
824	 9.68458808857151E-02 
825	 9.72256112976962E-02 
826	 9.76204809810205E-02 
827	 0.097710166929905 
828	 9.83222089203802E-02 
829	 0.098557999270916 
830	 9.73284915476923E-02 
831	 9.69308561897024E-02 
832	 9.74716976660356E-02 
833	 9.77197448642556E-02 
834	 9.76536524294253E-02 
835	 9.73281934010498E-02 
836	 9.73564247428756E-02 
837	 9.75115012001227E-02 
838	 9.74918042769706E-02 
839	 9.79849775456753E-02 
840	 9.85259390385755E-02 
841	 9.71973853138133E-02 
842	 9.70696000674248E-02 
843	 9.89052914619592E-02 
844	 9.88379226756763E-02 
845	 9.78655968765955E-02 
846	 9.74892737938374E-02 
847	 0.097798143067547 
848	 9.83819476012094E-02 
849	 9.78831234167827E-02 
850	 9.75700964951325E-02 
851	 9.78534307767584E-02 
852	 9.78504050799452E-02 
853	 9.77791901663977E-02 
854	 9.79447771212554E-02 
855	 9.83594152403912E-02 
856	 9.87857602132328E-02 
857	 9.86617099496813E-02 
858	 9.84817692417407E-02 
859	 9.83850415835466E-02 
860	 9.81055060478779E-02 
861	 9.79577064474748E-02 
862	 9.81992882805642E-02 
863	 9.78662581899234E-02 
864	 0.097549268043114 
865	 9.91200455358683E-02 
866	 0.100179013194063 
867	 0.100016357393268 
868	 9.97216951413982E-02 
869	 9.94084773902434E-02 
870	 9.91504589363613E-02 
871	 9.89576407831539E-02 
872	 9.87947418868958E-02 
873	 9.84908833439318E-02 
874	 9.96204350215975E-02 
875	 0.101501111562387 
876	 9.93038941586153E-02 
877	 9.75810571336246E-02 
878	 9.92253832101133E-02 
879	 0.099338283943221 
880	 9.86835830755782E-02 
881	 0.099614358601315 
882	 9.91057758758577E-02 
883	 9.72462589750191E-02 
884	 9.70739311989254E-02 
885	 9.79031095820841E-02 
886	 9.90799826373937E-02 
887	 0.0987651878971 
888	 9.86577630062936E-02 
889	 0.101172273142369 
890	 0.101186843012389 
891	 9.88858168727999E-02 
892	 9.88879453321522E-02 
893	 9.85936017267184E-02 
894	 9.72317438116691E-02 
895	 9.73528737563287E-02 
896	 9.84804916388822E-02 
897	 0.099691637099993 
898	 9.98462085619006E-02 
899	 9.95551482140267E-02 
900	 0.10120683492111 
901	 0.101619254538941 
902	 0.10020464819457 
903	 9.93594753647101E-02 
904	 9.84729234176904E-02 
905	 9.72248981441547E-02 
906	 9.75210896720539E-02 
907	 9.88627568953238E-02 
908	 9.98712531820303E-02 
909	 0.100959752565544 
910	 0.101715018024941 
911	 0.100474068429894 
912	 9.92599148526918E-02 
913	 9.93291769391794E-02 
914	 0.100059085792217 
915	 0.101571523311102 
916	 0.103954444841515 
917	 0.10428694457621 
918	 0.102509704854363 
919	 9.96296456898106E-02 
920	 0.100265409512993 
921	 0.104258437402893 
922	 0.101168714580841 
923	 9.83544380866566E-02 
924	 0.102164159447223 
925	 0.100656810072533 
926	 0.096768665158371 
927	 0.101681967923537 
928	 0.102571518240967 
929	 9.66707115025265E-02 
930	 9.49525564351122E-02 
931	 9.51488288481941E-02 
932	 9.54363927048746E-02 
933	 9.50334229749702E-02 
934	 9.61102769483726E-02 
935	 0.101687481128174 
936	 0.10725564090269 
937	 0.109311963410774 
938	 0.102939926698799 
939	 9.53979834843441E-02 
940	 9.13309374933152E-02 
941	 9.91592799373835E-02 
942	 0.104847654206633 
943	 9.91197915651754E-02 
944	 0.094802443268778 
945	 9.54762217869478E-02 
946	 0.10345540210752 
947	 0.109491411979594 
948	 0.111199953774052 
949	 0.11110240669915 
950	 0.108777597759392 
951	 0.105300577832531 
952	 0.106669115751297 
953	 0.105761515918855 
954	 9.72844108632956E-02 
955	 9.95892345862195E-02 
956	 0.108277859356307 
957	 0.110404033611463 
958	 0.107743024693239 
959	 0.102171357225369 
960	 9.78231011375865E-02 
961	 9.77618533898001E-02 
962	 0.102633419735347 
963	 0.108199025026 
964	 0.109789171770045 
965	 0.104123803560247 
966	 0.101441316848123 
967	 0.101846254394643 
968	 0.102083128020424 
969	 0.097183238807585 
970	 0.089707913375565 
971	 9.42893263538081E-02 
972	 0.102762621492582 
973	 0.108904900710926 
974	 0.105012283023831 
975	 0.100181535797965 
976	 0.104633129978252 
977	 0.103262250093252 
978	 9.82766358698079E-02 
979	 0.100480695984459 
980	 0.103774555326667 
981	 0.105691918031903 
982	 0.104031406913204 
983	 0.103001106722213 
984	 0.104643141297083 
985	 0.10577468605788 
986	 0.106204173149155 
987	 0.106031102891545 
988	 0.105034057914509 
989	 0.103430182652469 
990	 0.101540724028613 
991	 0.102031938383089 
992	 0.10356222532113 
993	 9.73214764492135E-02 
994	 9.77459559746203E-02 
995	 0.108282726920882 
996	 0.104005006449011 
997	 9.69672994846455E-02 
998	 0.100317916172083 
999	 0.10202481263314 
1000	 0.1024932641799 
1001	 0.10583726859043 
1002	 0.103522836571546 
1003	 9.72448259185976E-02 
1004	 9.99492851545085E-02 
1005	 0.103403018132477 
1006	 0.10358052053776 
1007	 9.80992447665873E-02 
1008	 9.51816475568501E-02 
1009	 0.10003053476482 
1010	 9.86788030461221E-02 
1011	 0.095428006645171 
1012	 9.84117061295198E-02 
1013	 9.77334330875713E-02 
1014	 9.45651456686701E-02 
1015	 9.67300307391199E-02 
1016	 9.93720095020434E-02 
1017	 0.100857815477885 
1018	 0.101161819159455 
1019	 0.100960130088906 
1020	 0.101214130336123 
1021	 0.105266736900991 
1022	 0.107149774445024 
1023	 0.102310816781302 
1024	 0.108202586227352 
1025	 0.115433723817005 
1026	 0.104221740943965 
1027	 0.101092559699568 
1028	 0.108359525638413 
1029	 0.112467278106199 
1030	 0.110832689631313 
1031	 0.103351715631886 
1032	 9.61182917894077E-02 
1033	 9.23475893727137E-02 
1034	 9.52214931574135E-02 
1035	 0.110678457488749 
1036	 0.121063918606841 
1037	 0.110268773483635 
1038	 0.108636615017295 
1039	 0.112416466302069 
1040	 0.105271160134809 
1041	 0.110723135871383 
1042	 0.123891236625621 
1043	 0.116312324079571 
1044	 0.105627625876319 
1045	 0.100909999502052 
1046	 0.110467835693327 
1047	 0.106654909104762 
1048	 7.93872953066339E-02 
1049	 8.16934633846969E-02 
1050	 9.59817005876942E-02 
1051	 0.10051944677122 
1052	 9.16056901592732E-02 
1053	 8.27349672623524E-02 
1054	 9.55735150663772E-02 
1055	 0.112283519378683 
1056	 0.128686562982751 
1057	 0.148273606036073 
1058	 0.144931993798137 
1059	 0.1180581477334 
1060	 0.107016667842624 
1061	 9.12277445159551E-02 
1062	 7.02624692478516E-02 
1063	 0.105383169286414 
1064	 0.126678317626267 
1065	 9.22062613650265E-02 
1066	 9.30809148468527E-02 
1067	 0.116970995811355 
1068	 0.139590611420324 
1069	 0.129895843606102 
1070	 0.102320936693403 
1071	 9.51825481362123E-02 
1072	 0.091551470261258 
1073	 0.088410679897106 
1074	 8.63054017186306E-02 
1075	 8.96645282871028E-02 
