Wavelength	A00041.asd
325	 5.95819923982337E-02 
326	 5.57695793600449E-02 
327	 5.48498836533406E-02 
328	 5.51838905233184E-02 
329	 5.39293037419024E-02 
330	 0.051688446429638 
331	 5.71102770976938E-02 
332	 0.064300817013844 
333	 6.68560065220549E-02 
334	 6.53830888686551E-02 
335	 6.26765505387159E-02 
336	 6.46678863990603E-02 
337	 6.53912921759306E-02 
338	 6.42212816410297E-02 
339	 6.81633036009509E-02 
340	 6.80572573689471E-02 
341	 5.78585921943228E-02 
342	 5.71087358387099E-02 
343	 6.34039499990769E-02 
344	 0.067408513322327 
345	 6.54182070008034E-02 
346	 5.98190434528637E-02 
347	 0.064964294335072 
348	 0.069001682336857 
349	 6.47545812567839E-02 
350	 6.28080590804987E-02 
351	 6.30237720347594E-02 
352	 6.28594557172691E-02 
353	 6.41966714634443E-02 
354	 6.64636700995528E-02 
355	 6.65265652230393E-02 
356	 6.52539228612839E-02 
357	 6.37717064874086E-02 
358	 6.60647570870439E-02 
359	 6.95173064818041E-02 
360	 6.97016894216097E-02 
361	 6.73154160245062E-02 
362	 6.40769513492601E-02 
363	 6.48644625632619E-02 
364	 6.55618849548103E-02 
365	 6.43934950870814E-02 
366	 6.53568091471927E-02 
367	 6.66383624087638E-02 
368	 6.53666362206635E-02 
369	 6.41812586307485E-02 
370	 6.39046049668785E-02 
371	 6.50378565368227E-02 
372	 6.60124427504437E-02 
373	 6.61578355994121E-02 
374	 6.76500461052724E-02 
375	 6.90725076943781E-02 
376	 6.82944942610317E-02 
377	 6.75744564832163E-02 
378	 6.69904312249429E-02 
379	 6.43703071960944E-02 
380	 6.47053665259949E-02 
381	 6.92608697204784E-02 
382	 6.88884922115722E-02 
383	 6.63723196412933E-02 
384	 6.65436237232826E-02 
385	 6.86576065651931E-02 
386	 0.0707896108128 
387	 6.76028033925487E-02 
388	 6.58875108105602E-02 
389	 0.067854245537248 
390	 6.68103519379747E-02 
391	 0.065631975135729 
392	 0.068168782358915 
393	 6.78597334622879E-02 
394	 6.54038835800913E-02 
395	 6.69608661071343E-02 
396	 6.78532010840747E-02 
397	 6.65711889223399E-02 
398	 6.62533677638637E-02 
399	 6.60011426523872E-02 
400	 6.47219356066381E-02 
401	 6.56449831892785E-02 
402	 6.79919963483365E-02 
403	 6.87440140014858E-02 
404	 6.84717303874377E-02 
405	 6.76437737746098E-02 
406	 6.77491367768472E-02 
407	 6.83453242643794E-02 
408	 6.86957030715616E-02 
409	 6.85516871083631E-02 
410	 6.80495281099579E-02 
411	 6.76235323996341E-02 
412	 6.79423314029141E-02 
413	 6.90786164505053E-02 
414	 6.94213884059792E-02 
415	 6.91548613474238E-02 
416	 6.87345647311676E-02 
417	 6.89249503051417E-02 
418	 6.96211814650209E-02 
419	 6.99397164843143E-02 
420	 6.97256369592494E-02 
421	 6.90821844111168E-02 
422	 6.93855739437131E-02 
423	 7.00997631486452E-02 
424	 0.070224540439971 
425	 7.03860405511615E-02 
426	 7.07143040550162E-02 
427	 7.11461473932344E-02 
428	 7.14962970236723E-02 
429	 0.071618279201039 
430	 0.071481532278412 
431	 7.11379615225025E-02 
432	 7.06653601947685E-02 
433	 7.03734474444148E-02 
434	 7.04454314905857E-02 
435	 7.11946729788275E-02 
436	 7.16971681673267E-02 
437	 7.14699360216127E-02 
438	 0.072162941280706 
439	 7.29982236766013E-02 
440	 7.20430746918057E-02 
441	 7.19137477712648E-02 
442	 7.29607252943586E-02 
443	 7.31152021522621E-02 
444	 7.29147372165625E-02 
445	 7.28939460160987E-02 
446	 7.34491524637662E-02 
447	 7.41405362501888E-02 
448	 7.37831585169504E-02 
449	 7.37534226552176E-02 
450	 7.43770165794893E-02 
451	 7.47865951249085E-02 
452	 7.50407891258281E-02 
453	 7.52436171093676E-02 
454	 7.53479130012322E-02 
455	 7.53802556171488E-02 
456	 7.54035773604392E-02 
457	 7.54676105802273E-02 
458	 7.56195545765582E-02 
459	 7.60089599720149E-02 
460	 7.62237864235675E-02 
461	 0.075793573402186 
462	 7.56636513216003E-02 
463	 7.58921691166752E-02 
464	 7.58838393200038E-02 
465	 7.60868179708436E-02 
466	 7.66164734233524E-02 
467	 7.66498473364224E-02 
468	 7.64236728725097E-02 
469	 7.64204222005898E-02 
470	 7.64028933254799E-02 
471	 7.64050508180813E-02 
472	 7.67379248571727E-02 
473	 7.69550729509685E-02 
474	 0.07682541732652 
475	 7.69530848455238E-02 
476	 7.72482464409675E-02 
477	 7.74514502104925E-02 
478	 7.70509422506486E-02 
479	 7.63007529166076E-02 
480	 0.076829825776172 
481	 7.77129694366196E-02 
482	 7.81257106385937E-02 
483	 7.78702778876298E-02 
484	 7.74582998763584E-02 
485	 7.82950963929095E-02 
486	 7.85920652883186E-02 
487	 7.79675853859414E-02 
488	 7.81647291997338E-02 
489	 7.84828015207461E-02 
490	 7.81345866224799E-02 
491	 7.77616326710037E-02 
492	 7.77040654900304E-02 
493	 7.85922723382059E-02 
494	 7.91674785478886E-02 
495	 7.89455901777454E-02 
496	 7.87419672652565E-02 
497	 7.88227530150269E-02 
498	 7.94163171181973E-02 
499	 0.079890856693745 
500	 8.00541747284098E-02 
501	 7.98477498130533E-02 
502	 0.079914804446972 
503	 8.05209492458997E-02 
504	 8.04150879242699E-02 
505	 8.00445422422727E-02 
506	 8.03974496673859E-02 
507	 8.09522190471426E-02 
508	 8.14412545405187E-02 
509	 8.14270283074669E-02 
510	 8.13116582591796E-02 
511	 8.14249620196639E-02 
512	 0.081540437410567 
513	 8.17116318049802E-02 
514	 8.21891129446165E-02 
515	 0.082432632267163 
516	 8.22830235277583E-02 
517	 8.20876194653375E-02 
518	 8.20699826620358E-02 
519	 8.24100534344173E-02 
520	 8.24713230448339E-02 
521	 8.23745122347261E-02 
522	 8.28282920481228E-02 
523	 0.08327064368937 
524	 8.34512698195478E-02 
525	 8.35465789682515E-02 
526	 8.36253842501063E-02 
527	 8.37538061089129E-02 
528	 8.40038253902716E-02 
529	 8.43280067079954E-02 
530	 8.45166654077592E-02 
531	 8.46524455452159E-02 
532	 8.48139758956001E-02 
533	 0.085214599828795 
534	 8.55986277851305E-02 
535	 8.53872063782517E-02 
536	 8.53498228142274E-02 
537	 8.56919991531603E-02 
538	 8.61168931223234E-02 
539	 8.64350836487155E-02 
540	 8.64831744764191E-02 
541	 8.64787758706879E-02 
542	 8.64592629774258E-02 
543	 8.63204971465297E-02 
544	 8.65040560692308E-02 
545	 8.70961562938447E-02 
546	 8.74079615427659E-02 
547	 8.74264074830638E-02 
548	 8.72294213675605E-02 
549	 8.71910209604184E-02 
550	 8.74328210660113E-02 
551	 8.79902478540062E-02 
552	 8.84122610823182E-02 
553	 8.84099248653719E-02 
554	 8.81868465053005E-02 
555	 8.80502258143418E-02 
556	 8.85141149278155E-02 
557	 8.88113624318841E-02 
558	 8.87854901676715E-02 
559	 8.89640244109874E-02 
560	 8.92853108575249E-02 
561	 8.96416174940819E-02 
562	 0.089613688426394 
563	 8.93570747474026E-02 
564	 8.94636672733048E-02 
565	 8.96991918913792E-02 
566	 8.99054509606568E-02 
567	 8.96940313781894E-02 
568	 8.93800841046076E-02 
569	 8.94066206758917E-02 
570	 8.96826476695165E-02 
571	 0.090086940890374 
572	 9.03110162704704E-02 
573	 9.04025345848221E-02 
574	 9.04475892067685E-02 
575	 9.09715725408197E-02 
576	 9.14810870430842E-02 
577	 9.09399433216482E-02 
578	 9.04643283089038E-02 
579	 9.04191074185234E-02 
580	 9.06641258559183E-02 
581	 9.08797429873841E-02 
582	 9.08109197737335E-02 
583	 9.09573934195623E-02 
584	 0.091225596433128 
585	 9.11307613477013E-02 
586	 9.10941646549973E-02 
587	 9.12142602102658E-02 
588	 9.09544181705869E-02 
589	 9.07785779323129E-02 
590	 9.13319918461193E-02 
591	 9.12929440043723E-02 
592	 9.07204149913973E-02 
593	 9.08544103520674E-02 
594	 9.11485396313699E-02 
595	 9.12833933859228E-02 
596	 9.13544082965203E-02 
597	 0.091431741830093 
598	 9.16492178209019E-02 
599	 9.16078351831116E-02 
600	 9.12859093086726E-02 
601	 9.11326342128223E-02 
602	 9.11904093798782E-02 
603	 9.14475819693162E-02 
604	 9.14962655967288E-02 
605	 9.13412676167738E-02 
606	 9.11386729239411E-02 
607	 9.12778870224847E-02 
608	 9.18021246392506E-02 
609	 9.18729647848418E-02 
610	 9.16247233861574E-02 
611	 9.13348859699834E-02 
612	 9.14567164702784E-02 
613	 9.19315784125447E-02 
614	 0.092190807347867 
615	 9.21348408489383E-02 
616	 9.17275577743735E-02 
617	 9.12568684838555E-02 
618	 9.10042147298549E-02 
619	 9.13534013891774E-02 
620	 9.16755565054279E-02 
621	 9.17686897558814E-02 
622	 9.17067951053034E-02 
623	 9.17328895505166E-02 
624	 9.20203737028944E-02 
625	 9.18299653499686E-02 
626	 9.13818288051417E-02 
627	 9.15930893091332E-02 
628	 0.091833375116885 
629	 9.18981505783924E-02 
630	 9.21587821257137E-02 
631	 9.23019893827946E-02 
632	 9.19235641651412E-02 
633	 9.21424813155107E-02 
634	 9.27767372933513E-02 
635	 9.22887212548118E-02 
636	 9.18710971806101E-02 
637	 9.21905789812435E-02 
638	 9.25434845339256E-02 
639	 9.26437063316171E-02 
640	 9.21041995709472E-02 
641	 9.22184605486053E-02 
642	 9.30093532075121E-02 
643	 9.26392652639363E-02 
644	 9.21659516975396E-02 
645	 9.25342880541608E-02 
646	 9.28630968487254E-02 
647	 9.29117590259207E-02 
648	 9.24395109325968E-02 
649	 9.22248442512209E-02 
650	 9.24745076695503E-02 
651	 9.22359731840597E-02 
652	 9.20701441355763E-02 
653	 9.27180416940318E-02 
654	 9.30670119288832E-02 
655	 9.29625002984579E-02 
656	 9.29933986786214E-02 
657	 9.25587951816924E-02 
658	 9.14987623422875E-02 
659	 9.08964267093333E-02 
660	 9.07660873850874E-02 
661	 9.09824413966809E-02 
662	 9.06962017252701E-02 
663	 8.99190991067353E-02 
664	 8.99058242324205E-02 
665	 9.01000158702415E-02 
666	 9.00019188413483E-02 
667	 8.97699054771472E-02 
668	 8.95574701617451E-02 
669	 8.97231273317431E-02 
670	 8.96986793083488E-02 
671	 8.93701379228498E-02 
672	 8.93876147381981E-02 
673	 8.95251994549058E-02 
674	 8.94684213875799E-02 
675	 8.92870182545139E-02 
676	 8.91389498387614E-02 
677	 8.94429819658756E-02 
678	 0.089815835809074 
679	 9.00675953801525E-02 
680	 9.04988900481665E-02 
681	 9.08678910536136E-02 
682	 9.07351520084053E-02 
683	 9.09220534330302E-02 
684	 0.091539531839637 
685	 9.20634126927826E-02 
686	 9.24363685036241E-02 
687	 9.25787384724191E-02 
688	 9.24522811150902E-02 
689	 9.24059121483144E-02 
690	 9.31364703398957E-02 
691	 0.093906677767497 
692	 9.44487899462593E-02 
693	 9.47042911935812E-02 
694	 9.49281528781082E-02 
695	 9.53687889477327E-02 
696	 9.57760287895394E-02 
697	 9.60709926509953E-02 
698	 9.61496733974454E-02 
699	 9.63853224755131E-02 
700	 0.096892869820887 
701	 9.71048525277233E-02 
702	 9.71780753652271E-02 
703	 9.74200889107166E-02 
704	 9.75475414144526E-02 
705	 9.75023611458536E-02 
706	 9.73039753643142E-02 
707	 9.71286950851508E-02 
708	 9.71020523871485E-02 
709	 9.71545803799518E-02 
710	 9.73592268580112E-02 
711	 9.78929514976082E-02 
712	 0.0982405913308 
713	 9.82555030718878E-02 
714	 9.81283649907355E-02 
715	 9.80526362973436E-02 
716	 9.81965791506004E-02 
717	 9.82306070498409E-02 
718	 9.82972330297519E-02 
719	 9.90713057757996E-02 
720	 9.95455248599395E-02 
721	 9.94201076680282E-02 
722	 9.92702035715902E-02 
723	 0.099021549080607 
724	 9.85575604212574E-02 
725	 9.83227690293798E-02 
726	 9.85377099289697E-02 
727	 9.95090169096781E-02 
728	 0.100096067206103 
729	 9.97532678421935E-02 
730	 9.92110634448781E-02 
731	 9.89891822445877E-02 
732	 9.96339128131935E-02 
733	 9.98384342698324E-02 
734	 9.95712890305749E-02 
735	 9.98327386917919E-02 
736	 0.100247491590219 
737	 0.100517574757089 
738	 0.100423336963893 
739	 0.100195357532772 
740	 0.100312284929337 
741	 0.100538163764243 
742	 0.100726434124859 
743	 0.10057648768013 
744	 0.10040571260211 
745	 0.100485159521951 
746	 0.100622536837044 
747	 0.100768852047285 
748	 0.100931114617657 
749	 0.100863703150703 
750	 0.100570640255624 
751	 0.100553536364047 
752	 0.100829794378105 
753	 0.10133612435835 
754	 0.101217499272654 
755	 0.100723698382982 
756	 0.101122170992503 
757	 0.101425915387653 
758	 0.101257498729896 
759	 0.101310238353606 
760	 0.101745864499408 
761	 0.102326560729309 
762	 0.102774434349634 
763	 0.102991926612876 
764	 0.103047311879866 
765	 0.102897303651492 
766	 0.102630298927572 
767	 0.102636935300296 
768	 0.102655133499037 
769	 0.102333424697499 
770	 0.102301332812353 
771	 0.102543496277444 
772	 0.102361844671944 
773	 0.102391796092699 
774	 0.102950993199244 
775	 0.10284948659651 
776	 0.102504434868373 
777	 0.102979627092866 
778	 0.103333707236491 
779	 0.103330810860009 
780	 0.10322568786774 
781	 0.103230455857737 
782	 0.103477741482082 
783	 0.103537652246173 
784	 0.103426522359166 
785	 0.103315687978736 
786	 0.103409251905029 
787	 0.103641147049556 
788	 0.103218226622942 
789	 0.103077267021061 
790	 0.104030710669948 
791	 0.104544075423242 
792	 0.104539533450684 
793	 0.104583238234198 
794	 0.104545514638953 
795	 0.104443479405094 
796	 0.104471516103745 
797	 0.104407300870553 
798	 0.104049446442457 
799	 0.103984088976754 
800	 0.104160126917178 
801	 0.104061830724926 
802	 0.104276170162454 
803	 0.104862112668645 
804	 0.104868753799292 
805	 0.104685203177049 
806	 0.104799454144303 
807	 0.104844354765376 
808	 0.104891171981694 
809	 0.10543271809869 
810	 0.105466380510704 
811	 0.104722650674525 
812	 0.104499094516233 
813	 0.104932664167595 
814	 0.106004022578968 
815	 0.106245043013291 
816	 0.105659868437409 
817	 0.105710532523349 
818	 0.105680970494488 
819	 0.1053882993913 
820	 0.105460517443934 
821	 0.10564518249756 
822	 0.10560162905876 
823	 0.10563440052553 
824	 0.105857558460517 
825	 0.106489170059174 
826	 0.106641124191557 
827	 0.106106188829395 
828	 0.106275111721987 
829	 0.106315306340106 
830	 0.105144165831238 
831	 0.105522802888822 
832	 0.10701009547016 
833	 0.106578396211547 
834	 0.106071940014752 
835	 0.106239464398972 
836	 0.106696468915279 
837	 0.106770637212199 
838	 0.105811100155429 
839	 0.105940549725381 
840	 0.106940751117883 
841	 0.106789469332219 
842	 0.106853878701491 
843	 0.107463841190016 
844	 0.107100683256638 
845	 0.106577448223621 
846	 0.106907607862072 
847	 0.10717335986189 
848	 0.107288999717993 
849	 0.107599940047203 
850	 0.107803059198707 
851	 0.107671863489677 
852	 0.10666034751909 
853	 0.105959041642437 
854	 0.106782002103928 
855	 0.107029118814555 
856	 0.106498182858646 
857	 0.105728935816057 
858	 0.105300104526184 
859	 0.105484195671839 
860	 0.106328932614841 
861	 0.106945342890646 
862	 0.106538316822571 
863	 0.106027393505434 
864	 0.106033344871087 
865	 0.107661050094573 
866	 0.108469893409077 
867	 0.10783228707985 
868	 0.107383136654828 
869	 0.10702632588193 
870	 0.106728182428905 
871	 0.107523891039462 
872	 0.10857487138358 
873	 0.10794728738193 
874	 0.108093803108054 
875	 0.109141130939378 
876	 0.108470130891265 
877	 0.107434451417175 
878	 0.107085625489217 
879	 0.10736789632615 
880	 0.10797545407346 
881	 0.108431106480864 
882	 0.108017185842765 
883	 0.106853032884739 
884	 0.105902866897944 
885	 0.1062590668543 
886	 0.108125671583649 
887	 0.108205898353431 
888	 0.107851862318399 
889	 0.109280146999932 
890	 0.108519384185056 
891	 0.106119466329423 
892	 0.106578064726454 
893	 0.10823846449032 
894	 0.109962920917898 
895	 0.109606304827371 
896	 0.108319143663662 
897	 0.10774715449709 
898	 0.107292948345928 
899	 0.107136295849127 
900	 0.107899431115988 
901	 0.10836002618457 
902	 0.108238809870462 
903	 0.108360915595147 
904	 0.108673535026248 
905	 0.109080305027096 
906	 0.109411672580455 
907	 0.109131260282516 
908	 0.107293875150791 
909	 0.107310550010909 
910	 0.109173258782071 
911	 0.108489702603258 
912	 0.10824386786 
913	 0.109869641583009 
914	 0.110750995072619 
915	 0.111151264009291 
916	 0.111704571121921 
917	 0.111363365308337 
918	 0.109902264145525 
919	 0.106839457780651 
920	 0.105921120800732 
921	 0.10759340140461 
922	 0.105911736867419 
923	 0.105788639463175 
924	 0.111091853804633 
925	 0.110523393069289 
926	 0.105857106129165 
927	 0.105444474315779 
928	 0.105050525598824 
929	 0.103843108839249 
930	 0.10413337925002 
931	 0.104913883709943 
932	 0.105082046563585 
933	 0.102896401335188 
934	 0.102074229699873 
935	 0.107921683054448 
936	 0.112920762083264 
937	 0.114297895811314 
938	 0.110758141435871 
939	 0.106016632019558 
940	 0.103189229508639 
941	 0.109858750011016 
942	 0.112224346480237 
943	 0.102508920721636 
944	 0.106020610136567 
945	 0.115990107119044 
946	 0.116806556729535 
947	 0.112041823454094 
948	 0.107321202705948 
949	 0.119067944917573 
950	 0.12240548334136 
951	 0.110128527808754 
952	 0.106303905572481 
953	 0.108006847431265 
954	 0.110667857683644 
955	 0.113234270264023 
956	 0.113911107924179 
957	 0.110252870706046 
958	 0.108603506549736 
959	 0.109303422684443 
960	 0.106363668079145 
961	 0.108967881340076 
962	 0.118143725245439 
963	 0.115018002405009 
964	 0.109509825955784 
965	 0.111795181441393 
966	 0.111310989437921 
967	 0.108296557217659 
968	 0.106415971967472 
969	 0.105593074964228 
970	 0.106451411030739 
971	 0.111288772072643 
972	 0.113447246755192 
973	 0.110094958337067 
974	 0.107167023932213 
975	 0.109554257176272 
976	 0.120541122372139 
977	 0.1187646001973 
978	 0.10894546281215 
979	 0.110728603760518 
980	 0.109857529789758 
981	 0.105602502138313 
982	 0.110447064498814 
983	 0.113405915115306 
984	 0.109810009617081 
985	 0.110783956151948 
986	 0.115952729228448 
987	 0.122798393274688 
988	 0.116938227887584 
989	 0.105818642929313 
990	 0.109415431453407 
991	 0.114526683763661 
992	 0.11623929629761 
993	 0.111092185941578 
994	 0.106764516609308 
995	 0.107338495054404 
996	 0.111270264228688 
997	 0.113110023480894 
998	 0.108419989611747 
999	 0.107884716556417 
1000	 0.111726906389659 
1001	 0.117131433218125 
1002	 0.113161349229583 
1003	 0.103088455687704 
1004	 0.10840378751971 
1005	 0.11187222533888 
1006	 0.106946785912506 
1007	 9.77180799837802E-02 
1008	 9.51057777442872E-02 
1009	 0.105613029694798 
1010	 0.111590666611224 
1011	 0.111207695431117 
1012	 0.105653989113689 
1013	 0.103401946344441 
1014	 0.105190997374952 
1015	 0.107492750186838 
1016	 0.106519257399547 
1017	 0.103544696377538 
1018	 0.110190419462387 
1019	 0.113740577101125 
1020	 0.108658846462106 
1021	 0.107614785386124 
1022	 0.108910079315569 
1023	 0.109985566872457 
1024	 0.11563690449302 
1025	 0.117890032771213 
1026	 0.103026279909034 
1027	 9.90413969062057E-02 
1028	 0.106743506137229 
1029	 0.105482379403639 
1030	 0.10294044184037 
1031	 0.101637119309106 
1032	 0.101872959145524 
1033	 0.103475007508243 
1034	 0.106872457238942 
1035	 0.118238032427736 
1036	 0.120494665669252 
1037	 9.88498068095346E-02 
1038	 9.53357125881506E-02 
1039	 0.106350638644521 
1040	 0.110985536193771 
1041	 0.119841411572207 
1042	 0.128257741327908 
1043	 0.118535100569491 
1044	 0.111040869357574 
1045	 0.112700690724656 
1046	 0.116462251754625 
1047	 0.108266785907663 
1048	 8.60053725578123E-02 
1049	 9.76506818244599E-02 
1050	 0.114263738341926 
1051	 0.107484912821959 
1052	 0.103580890951779 
1053	 0.102558480294125 
1054	 9.87150027501433E-02 
1055	 0.101376376610728 
1056	 0.112580372133583 
1057	 0.134582813817558 
1058	 0.125803279928401 
1059	 8.52840035127391E-02 
1060	 7.23408431797171E-02 
1061	 7.99941449341213E-02 
1062	 0.100794123574241 
1063	 0.113533436877421 
1064	 0.106249818923807 
1065	 8.40623192222123E-02 
1066	 0.12635038172172 
1067	 0.161597326015727 
1068	 0.114031282692455 
1069	 0.100100777686291 
1070	 0.113394179680845 
1071	 0.103193511157024 
1072	 8.66079050695187E-02 
1073	 7.28983037256432E-02 
1074	 7.64821342550259E-02 
1075	 7.19224632113941E-02 
