Wavelength	A00072.asd
325	 0.055367809717454 
326	 5.91962025880305E-02 
327	 5.98151392992246E-02 
328	 4.69211247182668E-02 
329	 4.21874772128675E-02 
330	 5.07922182520169E-02 
331	 5.49451048287596E-02 
332	 0.057064259903091 
333	 6.03713832834912E-02 
334	 5.84505667945597E-02 
335	 5.35578570310357E-02 
336	 5.21322534335277E-02 
337	 5.35730003861059E-02 
338	 5.70958970258597E-02 
339	 6.05616455919855E-02 
340	 6.05176916336952E-02 
341	 5.51819824253382E-02 
342	 5.47539448783297E-02 
343	 0.058147007097301 
344	 6.08018518182087E-02 
345	 5.93059999472933E-02 
346	 5.52004229110884E-02 
347	 5.85362564728624E-02 
348	 6.21234278372468E-02 
349	 0.061193954265927 
350	 5.94122051706149E-02 
351	 5.71264622630309E-02 
352	 5.37663538084791E-02 
353	 5.35184862643486E-02 
354	 5.66884359606716E-02 
355	 6.09328949807164E-02 
356	 6.13852867595155E-02 
357	 5.64258706313188E-02 
358	 5.73244973818736E-02 
359	 6.09789847354462E-02 
360	 6.07452836555244E-02 
361	 5.93822380427069E-02 
362	 5.83485056581874E-02 
363	 6.04925375484705E-02 
364	 6.13198114627559E-02 
365	 5.90553573056582E-02 
366	 5.89424940050684E-02 
367	 5.93656114929587E-02 
368	 5.74506423193888E-02 
369	 5.76168297935902E-02 
370	 5.96259359927125E-02 
371	 5.91473300035626E-02 
372	 5.88332340948905E-02 
373	 5.99213378345699E-02 
374	 6.03759616035776E-02 
375	 6.08932700226272E-02 
376	 6.26653597594944E-02 
377	 6.23230243177325E-02 
378	 6.02987605518825E-02 
379	 6.06887964739771E-02 
380	 6.09129036517797E-02 
381	 0.059971798692134 
382	 6.00482943128484E-02 
383	 6.09237044467481E-02 
384	 6.20264556627075E-02 
385	 6.27447183228808E-02 
386	 6.24187642474202E-02 
387	 5.96570687409678E-02 
388	 5.80642651162166E-02 
389	 0.05880836336164 
390	 5.78877694098837E-02 
391	 5.75775956784472E-02 
392	 6.07702298707651E-02 
393	 6.19588471366871E-02 
394	 6.08830086021963E-02 
395	 6.05808902460051E-02 
396	 5.95258688560219E-02 
397	 5.75771566409332E-02 
398	 5.69026917812203E-02 
399	 5.69685299519394E-02 
400	 5.70258048579273E-02 
401	 5.68481049371825E-02 
402	 5.69045325046824E-02 
403	 5.87284615147347E-02 
404	 0.059791482963826 
405	 5.92716965198488E-02 
406	 5.92188757335954E-02 
407	 0.059545317513297 
408	 5.98926045805378E-02 
409	 5.98150738056505E-02 
410	 5.94098398994721E-02 
411	 5.92444497796449E-02 
412	 5.92028837812656E-02 
413	 5.92343716265113E-02 
414	 5.93181068271168E-02 
415	 5.94620388854589E-02 
416	 5.96829718533559E-02 
417	 5.98722205344927E-02 
418	 5.99778514168399E-02 
419	 5.99526990359453E-02 
420	 5.98189426578538E-02 
421	 5.96777225000749E-02 
422	 6.00513860340192E-02 
423	 6.07144383467536E-02 
424	 6.12688698558108E-02 
425	 6.16883844727349E-02 
426	 6.20063277320667E-02 
427	 6.24915397317102E-02 
428	 6.26462460599149E-02 
429	 6.22293286712294E-02 
430	 6.20824570862818E-02 
431	 6.20577582227046E-02 
432	 6.17327748172975E-02 
433	 6.10162784640308E-02 
434	 6.02960196397663E-02 
435	 6.09567095422417E-02 
436	 6.16227147201447E-02 
437	 6.14803993815373E-02 
438	 6.21039238361233E-02 
439	 6.29527097853824E-02 
440	 6.26392877286278E-02 
441	 6.24139691301597E-02 
442	 6.25642092186156E-02 
443	 6.25572909069811E-02 
444	 6.26582711309286E-02 
445	 6.30776835492489E-02 
446	 6.36206828739787E-02 
447	 6.40372510198201E-02 
448	 6.38849661162874E-02 
449	 6.35455711232374E-02 
450	 6.33617139153766E-02 
451	 6.42621834858233E-02 
452	 6.50569878815737E-02 
453	 6.45916057237784E-02 
454	 6.45101781513451E-02 
455	 0.064883418532201 
456	 6.49634096707949E-02 
457	 6.50232237395761E-02 
458	 6.51588099809374E-02 
459	 6.53986326781728E-02 
460	 6.54783772347598E-02 
461	 6.51034756780008E-02 
462	 6.49595957479804E-02 
463	 0.065074413616438 
464	 6.49757676951025E-02 
465	 6.49531299415194E-02 
466	 6.51489699827459E-02 
467	 6.54809895567793E-02 
468	 0.065763159211123 
469	 6.57478387794547E-02 
470	 6.59210523397056E-02 
471	 6.62204931212381E-02 
472	 6.59301342986677E-02 
473	 0.065771801474922 
474	 6.61127898559923E-02 
475	 6.59020917528397E-02 
476	 6.55306550322023E-02 
477	 6.59447949878983E-02 
478	 6.59668116409659E-02 
479	 6.55638523797335E-02 
480	 6.61033220004984E-02 
481	 6.66465129679816E-02 
482	 6.64781292210553E-02 
483	 6.68071124665132E-02 
484	 6.74041726064469E-02 
485	 6.72729759218825E-02 
486	 0.066820690551266 
487	 6.63467695549674E-02 
488	 6.65698311444453E-02 
489	 6.69402131650121E-02 
490	 6.68644357026684E-02 
491	 6.66659500822819E-02 
492	 6.66313718006169E-02 
493	 6.74266533353999E-02 
494	 6.78999064262598E-02 
495	 6.76444729957139E-02 
496	 6.76047407785945E-02 
497	 6.77792326924093E-02 
498	 0.068045148262323 
499	 6.80891917653354E-02 
500	 6.79773278281313E-02 
501	 6.82476709115323E-02 
502	 6.85077236106897E-02 
503	 0.068517770833602 
504	 6.83749408103151E-02 
505	 6.83091393360953E-02 
506	 6.86882846815678E-02 
507	 6.87739737614758E-02 
508	 6.85664071723959E-02 
509	 6.90374639417061E-02 
510	 6.93178425073909E-02 
511	 6.87886402423209E-02 
512	 6.88009160845957E-02 
513	 6.92946006965632E-02 
514	 6.96156274153107E-02 
515	 6.98135796951707E-02 
516	 6.98802400077866E-02 
517	 6.98835024114703E-02 
518	 6.98871130814776E-02 
519	 6.99453651025947E-02 
520	 6.97986108594526E-02 
521	 6.96695958483077E-02 
522	 7.03148772593369E-02 
523	 7.08222139927712E-02 
524	 0.070844483142767 
525	 7.11754171023403E-02 
526	 7.14679028749875E-02 
527	 7.11212628362841E-02 
528	 7.08853215472138E-02 
529	 7.09602482064782E-02 
530	 7.12757199710554E-02 
531	 7.15921012041888E-02 
532	 7.17518329858251E-02 
533	 0.071935507890894 
534	 7.20659000489986E-02 
535	 7.19179265649042E-02 
536	 0.071954816802081 
537	 7.22995770339838E-02 
538	 7.27787126460763E-02 
539	 7.30703792610027E-02 
540	 7.29045553605007E-02 
541	 7.29873799394998E-02 
542	 7.32442163707769E-02 
543	 7.30375280437859E-02 
544	 7.30172714969052E-02 
545	 7.33744349730174E-02 
546	 0.073488377312356 
547	 7.34819133441258E-02 
548	 7.35892614180102E-02 
549	 7.37178215605861E-02 
550	 7.38867652450128E-02 
551	 7.42479380649484E-02 
552	 7.44998905881537E-02 
553	 7.44670396070801E-02 
554	 7.44155071761951E-02 
555	 7.44143544525027E-02 
556	 7.44914206123019E-02 
557	 7.47923967314066E-02 
558	 7.52793975621371E-02 
559	 7.56080665694797E-02 
560	 7.57143723147273E-02 
561	 7.55729458891863E-02 
562	 7.53667983808677E-02 
563	 0.075246824371282 
564	 7.54792238289917E-02 
565	 7.57028384043863E-02 
566	 7.57572310654892E-02 
567	 7.57408659481615E-02 
568	 7.56359447419101E-02 
569	 7.54140502877072E-02 
570	 0.075445756360961 
571	 7.57390275918376E-02 
572	 7.59863472280849E-02 
573	 7.61385414376776E-02 
574	 7.61831519874294E-02 
575	 7.63584702369218E-02 
576	 7.65473129144059E-02 
577	 7.64807806268275E-02 
578	 7.63094202045222E-02 
579	 7.61206636901864E-02 
580	 7.60079881524707E-02 
581	 0.07611155046821 
582	 7.65040168883682E-02 
583	 7.65481508358665E-02 
584	 7.63475734655866E-02 
585	 7.64741161427177E-02 
586	 7.67281148386831E-02 
587	 7.69604207339233E-02 
588	 7.67420107071969E-02 
589	 7.63306637485021E-02 
590	 7.61281557612065E-02 
591	 7.60794255954817E-02 
592	 7.61595365343782E-02 
593	 7.62985347178496E-02 
594	 7.64801030156615E-02 
595	 7.66583542648038E-02 
596	 7.65757662443984E-02 
597	 7.64817476252451E-02 
598	 7.68987229096481E-02 
599	 7.69687999535464E-02 
600	 7.65584049243336E-02 
601	 7.63272731546713E-02 
602	 0.076233886745972 
603	 7.62244706833721E-02 
604	 7.63883798322762E-02 
605	 7.65667707494131E-02 
606	 7.62939357650989E-02 
607	 7.62630187637141E-02 
608	 7.66792928957804E-02 
609	 7.69869111949486E-02 
610	 7.69174655551241E-02 
611	 7.62249490201481E-02 
612	 7.63250555735909E-02 
613	 7.70923437103953E-02 
614	 7.68400567290103E-02 
615	 0.076532504207846 
616	 7.67074613318566E-02 
617	 7.67114363922027E-02 
618	 7.65356978943494E-02 
619	 7.62845309902212E-02 
620	 7.63764853656842E-02 
621	 7.67525859501732E-02 
622	 7.65516387175157E-02 
623	 7.62338279566349E-02 
624	 7.62237051553781E-02 
625	 7.60653282007955E-02 
626	 7.58776610782845E-02 
627	 7.61775704356397E-02 
628	 7.64538448194535E-02 
629	 7.65100600379908E-02 
630	 7.65676510372401E-02 
631	 7.65250149793168E-02 
632	 0.076245531720067 
633	 7.65102821296185E-02 
634	 7.71650655586011E-02 
635	 7.71060482005616E-02 
636	 7.68463915936134E-02 
637	 7.67133151958009E-02 
638	 7.67333709258483E-02 
639	 7.68412429708115E-02 
640	 7.68967348722002E-02 
641	 7.70450078492917E-02 
642	 7.72278046489012E-02 
643	 7.70179108843613E-02 
644	 7.68492621417727E-02 
645	 7.70948735669506E-02 
646	 7.73358719135691E-02 
647	 7.73885516446641E-02 
648	 7.69337151642157E-02 
649	 0.076810138866665 
650	 7.72018564121556E-02 
651	 7.69618227950005E-02 
652	 7.66130424505968E-02 
653	 7.68772824399528E-02 
654	 7.71418999751642E-02 
655	 7.72217812899346E-02 
656	 7.70489413480021E-02 
657	 7.66459384257048E-02 
658	 7.61025219625061E-02 
659	 7.55834546883632E-02 
660	 7.53641614127758E-02 
661	 7.58938632359763E-02 
662	 7.59961285659843E-02 
663	 7.55181268933164E-02 
664	 7.54608228019997E-02 
665	 7.54901214914985E-02 
666	 7.52914084749697E-02 
667	 7.47286013472808E-02 
668	 7.42447331335181E-02 
669	 7.51145346113082E-02 
670	 7.52176883929075E-02 
671	 7.41386348585856E-02 
672	 7.43814227350121E-02 
673	 7.50717476282868E-02 
674	 7.50017827291917E-02 
675	 7.49134087559175E-02 
676	 7.49717795452009E-02 
677	 7.52000647330609E-02 
678	 7.54322486203082E-02 
679	 7.55688464065371E-02 
680	 7.56613034502533E-02 
681	 7.56570317770082E-02 
682	 7.54335959092364E-02 
683	 7.58342706328165E-02 
684	 7.67938003607755E-02 
685	 0.077068831130915 
686	 7.71840275161479E-02 
687	 0.07756676283424 
688	 7.76009527369999E-02 
689	 7.74451047419219E-02 
690	 7.76517133717414E-02 
691	 7.80255074011197E-02 
692	 7.84523107089194E-02 
693	 0.078636126163802 
694	 7.87698194987266E-02 
695	 7.90641972873745E-02 
696	 7.94775045879744E-02 
697	 7.98718123413806E-02 
698	 0.079898442956661 
699	 7.99706235065145E-02 
700	 8.02380199048744E-02 
701	 8.02378981616147E-02 
702	 8.02376291139356E-02 
703	 8.06634238630071E-02 
704	 8.09340906283215E-02 
705	 8.09753932858094E-02 
706	 8.10698182302794E-02 
707	 8.11350793267813E-02 
708	 8.11071403216578E-02 
709	 8.08493098445646E-02 
710	 8.06594355164567E-02 
711	 8.11024179720257E-02 
712	 0.081655173088081 
713	 8.20123710057493E-02 
714	 0.081669014910815 
715	 8.13052042621047E-02 
716	 0.081556901969764 
717	 8.18287655400558E-02 
718	 8.20011871167764E-02 
719	 8.21416173252423E-02 
720	 8.20058093800057E-02 
721	 8.16393728692398E-02 
722	 8.14307334114233E-02 
723	 8.14555750279228E-02 
724	 8.18061409400527E-02 
725	 0.082110404956132 
726	 8.23921386637089E-02 
727	 8.32447111317364E-02 
728	 8.34631168367565E-02 
729	 8.26278536130817E-02 
730	 8.23904736050123E-02 
731	 8.26397596792466E-02 
732	 8.29346450535924E-02 
733	 8.29780434684053E-02 
734	 8.27924156933056E-02 
735	 8.27148281486154E-02 
736	 8.28428358284082E-02 
737	 0.083206589871709 
738	 8.34791473228826E-02 
739	 8.35191704336335E-02 
740	 8.31279954747116E-02 
741	 8.31799057273571E-02 
742	 8.37434674288437E-02 
743	 8.38722825499379E-02 
744	 8.36381426130583E-02 
745	 8.31935893648038E-02 
746	 8.33250107898262E-02 
747	 8.38080919418781E-02 
748	 8.37318938730658E-02 
749	 8.37973509626791E-02 
750	 8.41043680834098E-02 
751	 8.38494953541345E-02 
752	 8.35226681040105E-02 
753	 8.36791764914191E-02 
754	 8.37547368127937E-02 
755	 8.37355200141228E-02 
756	 0.083953696058851 
757	 8.40102496020054E-02 
758	 8.37396611274883E-02 
759	 8.33232468090283E-02 
760	 8.33397824319203E-02 
761	 8.52838393233606E-02 
762	 8.60046672312265E-02 
763	 0.085380868801847 
764	 8.53541569482043E-02 
765	 0.085444652506677 
766	 8.55136986026035E-02 
767	 8.58245591248766E-02 
768	 0.086011198321637 
769	 8.55997779950683E-02 
770	 8.53906234279694E-02 
771	 8.54376023349389E-02 
772	 8.51404559635643E-02 
773	 8.48959466539316E-02 
774	 8.49532448009663E-02 
775	 8.49927420916635E-02 
776	 8.50387453559304E-02 
777	 8.52309505766892E-02 
778	 8.52778793899365E-02 
779	 8.51844958070504E-02 
780	 0.085373255096332 
781	 8.55728078150901E-02 
782	 8.55866643786435E-02 
783	 8.58171394896431E-02 
784	 8.61592078703162E-02 
785	 8.62817531742768E-02 
786	 8.61760698847348E-02 
787	 8.59316734054211E-02 
788	 8.59655810413037E-02 
789	 8.62395240992913E-02 
790	 8.66675326107511E-02 
791	 8.69634191981306E-02 
792	 8.70628318430367E-02 
793	 0.086926899814796 
794	 8.70890513889661E-02 
795	 8.75953074093181E-02 
796	 8.76025195744649E-02 
797	 8.72894742906706E-02 
798	 8.69100735891587E-02 
799	 8.66463695357337E-02 
800	 8.66631701959227E-02 
801	 8.73047286801431E-02 
802	 8.77307105649502E-02 
803	 8.76265143488346E-02 
804	 8.74468408450367E-02 
805	 8.73015534621213E-02 
806	 8.72591998447971E-02 
807	 0.086922625161719 
808	 8.65690732594451E-02 
809	 8.72354605371179E-02 
810	 8.79106889877953E-02 
811	 8.80828191905705E-02 
812	 8.76049052783486E-02 
813	 8.72983746984352E-02 
814	 8.82262607485043E-02 
815	 8.88100555631361E-02 
816	 8.87604877425458E-02 
817	 8.86278585296796E-02 
818	 8.84301285372612E-02 
819	 8.83031159306391E-02 
820	 8.86953037690794E-02 
821	 8.92300710845125E-02 
822	 8.94181640636421E-02 
823	 8.90546564392645E-02 
824	 8.85149883712416E-02 
825	 8.89653618754692E-02 
826	 8.93004959581551E-02 
827	 8.91676419118798E-02 
828	 8.95544265993374E-02 
829	 0.08970898349859 
830	 0.088678999510862 
831	 8.81411763944095E-02 
832	 8.84052074175848E-02 
833	 8.92993299483374E-02 
834	 8.94904590722737E-02 
835	 8.86724426127854E-02 
836	 8.89089184160807E-02 
837	 8.95704743546677E-02 
838	 0.089746279139407 
839	 0.089346550548722 
840	 8.86638303566259E-02 
841	 0.088487009079455 
842	 8.90304627148065E-02 
843	 9.00614987081033E-02 
844	 8.96477549724987E-02 
845	 8.87584067704936E-02 
846	 8.86618600613773E-02 
847	 8.89834410296926E-02 
848	 8.92895129775685E-02 
849	 8.83424762209186E-02 
850	 8.85413329435338E-02 
851	 9.03106155216039E-02 
852	 8.98741968726762E-02 
853	 0.088763776588297 
854	 8.89430185214739E-02 
855	 8.96157762451643E-02 
856	 9.01413646828523E-02 
857	 8.92412226091696E-02 
858	 8.87535821061096E-02 
859	 8.91068039512356E-02 
860	 8.88674338630847E-02 
861	 8.87910953040806E-02 
862	 8.95685361198041E-02 
863	 8.96088422819838E-02 
864	 8.91970900006147E-02 
865	 8.97233242929914E-02 
866	 9.01424775517684E-02 
867	 9.02670077356084E-02 
868	 9.09449588490487E-02 
869	 0.091586477161958 
870	 9.16541388092275E-02 
871	 9.07837363845929E-02 
872	 8.99908256880734E-02 
873	 9.13618219935424E-02 
874	 9.17733309946105E-02 
875	 9.06736369067279E-02 
876	 9.00641990410787E-02 
877	 8.96361716622655E-02 
878	 8.92542141640603E-02 
879	 8.97025515703238E-02 
880	 9.04819295440242E-02 
881	 9.06648639829755E-02 
882	 0.089964877949377 
883	 8.87351024988858E-02 
884	 8.83819876896198E-02 
885	 8.87120951410009E-02 
886	 8.96819223581167E-02 
887	 0.09189778184565 
888	 9.35247358753268E-02 
889	 9.22205593518188E-02 
890	 9.11917645088609E-02 
891	 9.08746845921807E-02 
892	 0.089844201922473 
893	 8.97141734552839E-02 
894	 9.07914937073236E-02 
895	 8.96637234773629E-02 
896	 8.87751188923424E-02 
897	 9.11547388520245E-02 
898	 9.30899218894488E-02 
899	 9.37527545401353E-02 
900	 9.33992967230286E-02 
901	 9.21435814087332E-02 
902	 9.06082537018329E-02 
903	 9.07488544064412E-02 
904	 9.12988738206339E-02 
905	 9.11768399903956E-02 
906	 9.02277724775868E-02 
907	 0.089781047368539 
908	 9.22881698581655E-02 
909	 9.31672154019661E-02 
910	 9.18053308013109E-02 
911	 9.13570375454737E-02 
912	 9.22890697221313E-02 
913	 9.44079993395674E-02 
914	 9.44225656523072E-02 
915	 9.38765745823113E-02 
916	 0.095021324062547 
917	 9.54041168830993E-02 
918	 9.44224871650892E-02 
919	 9.15727944418029E-02 
920	 9.01903695295716E-02 
921	 9.10579437198652E-02 
922	 9.08909325240949E-02 
923	 9.08864558677675E-02 
924	 9.19713646530811E-02 
925	 9.00505557915058E-02 
926	 8.77881016042781E-02 
927	 9.27683839117449E-02 
928	 9.47897708869758E-02 
929	 9.06807419119113E-02 
930	 8.49498978035578E-02 
931	 8.21091906332203E-02 
932	 8.57371085426638E-02 
933	 8.76338465987673E-02 
934	 8.92889317705627E-02 
935	 9.43964569383685E-02 
936	 0.093575141436591 
937	 8.89803420023977E-02 
938	 9.20644160916507E-02 
939	 9.16472512264513E-02 
940	 8.76488215647923E-02 
941	 9.69877526271715E-02 
942	 9.89366923917164E-02 
943	 8.20187137425537E-02 
944	 8.74996090990699E-02 
945	 0.10159375050468 
946	 9.44208551397255E-02 
947	 9.45126230389438E-02 
948	 0.102601783278868 
949	 9.73964422958965E-02 
950	 9.43683336315847E-02 
951	 9.79773517913818E-02 
952	 9.45224691556446E-02 
953	 8.84065496343927E-02 
954	 8.48221632452317E-02 
955	 0.086034255538075 
956	 0.089583847890049 
957	 9.03167174719938E-02 
958	 9.18730885439055E-02 
959	 0.093288651232169 
960	 0.087822752266988 
961	 8.65001981003735E-02 
962	 9.32400694383856E-02 
963	 9.90373518649757E-02 
964	 9.90664513558004E-02 
965	 9.05007901720488E-02 
966	 8.77651438594003E-02 
967	 8.92052817749001E-02 
968	 8.63232426963723E-02 
969	 8.31108519450695E-02 
970	 8.13759724356416E-02 
971	 8.39573817033926E-02 
972	 8.60963602334764E-02 
973	 8.58272843613311E-02 
974	 8.83177809223271E-02 
975	 9.34796930248791E-02 
976	 9.99750163505675E-02 
977	 9.85680985087803E-02 
978	 9.17680235597548E-02 
979	 8.87361028202891E-02 
980	 8.98053228390997E-02 
981	 9.30863397895435E-02 
982	 9.06620587496853E-02 
983	 8.79890047598053E-02 
984	 8.83758775981576E-02 
985	 9.21512298976092E-02 
986	 9.48063287765714E-02 
987	 9.19037735168626E-02 
988	 8.84291159620386E-02 
989	 8.66179953042736E-02 
990	 8.91078497435099E-02 
991	 8.68374672843756E-02 
992	 8.08929753168882E-02 
993	 8.48513713381503E-02 
994	 9.14569960774429E-02 
995	 9.56126035901958E-02 
996	 9.20647885014617E-02 
997	 8.62349327109545E-02 
998	 8.42762647305243E-02 
999	 8.64173041595874E-02 
1000	 9.03984254982852E-02 
1001	 0.092317980299825 
1002	 8.74399170594718E-02 
1003	 7.85646816036975E-02 
1004	 7.85743676362217E-02 
1005	 8.35995568306891E-02 
1006	 8.99323106246636E-02 
1007	 8.73469258452025E-02 
1008	 8.54718599123265E-02 
1009	 9.09014998509737E-02 
1010	 8.90513662128499E-02 
1011	 8.55664004086649E-02 
1012	 9.03837308360645E-02 
1013	 9.34586371610114E-02 
1014	 9.26455610861676E-02 
1015	 8.81687999323971E-02 
1016	 8.71061174095298E-02 
1017	 0.09054078321133 
1018	 9.22235624925622E-02 
1019	 0.090754994779795 
1020	 8.65681117582264E-02 
1021	 0.087753433972756 
1022	 8.99222121786956E-02 
1023	 8.84373692557841E-02 
1024	 8.98291193050241E-02 
1025	 8.93531948057753E-02 
1026	 7.78427051723923E-02 
1027	 7.80948300501936E-02 
1028	 8.82816541518396E-02 
1029	 8.45506354318968E-02 
1030	 0.07974404948916 
1031	 0.079534402456947 
1032	 8.99616391842315E-02 
1033	 9.19899687182634E-02 
1034	 7.78930390199481E-02 
1035	 8.19690553861485E-02 
1036	 9.34941490343771E-02 
1037	 9.80806247886564E-02 
1038	 9.42621240409613E-02 
1039	 8.96000385767043E-02 
1040	 9.77596778911143E-02 
1041	 0.100822137867179 
1042	 9.64446738924951E-02 
1043	 8.95052671733326E-02 
1044	 9.30116854246373E-02 
1045	 0.108904431972039 
1046	 0.125475876468617 
1047	 0.11704217796344 
1048	 7.74829642374922E-02 
1049	 7.87034402239988E-02 
1050	 9.61100049684535E-02 
1051	 9.90017443901684E-02 
1052	 8.16688443349566E-02 
1053	 6.43309294454181E-02 
1054	 7.93915571560261E-02 
1055	 0.101580058810309 
1056	 0.118223339337609 
1057	 0.11762317628942 
1058	 0.103389595492304 
1059	 8.56730555961288E-02 
1060	 0.105451287311779 
1061	 0.109216372389578 
1062	 8.27658382494889E-02 
1063	 8.95048774983585E-02 
1064	 9.45165989959066E-02 
1065	 7.67347928947461E-02 
1066	 9.48336578481892E-02 
1067	 0.108411293787679 
1068	 7.45690281597483E-02 
1069	 7.85890890502447E-02 
1070	 0.103686978222764 
1071	 9.25443550081185E-02 
1072	 8.85244525782888E-02 
1073	 9.05795487378176E-02 
1074	 7.16355357958716E-02 
1075	 5.94447827279313E-02 
