Wavelength	A00060.asd
325	 4.29079333013757E-02 
326	 4.46566440618985E-02 
327	 4.25006860478619E-02 
328	 4.94058190139167E-02 
329	 5.26686831152088E-02 
330	 4.92219097515135E-02 
331	 4.84169042186878E-02 
332	 5.03057757812886E-02 
333	 5.39904622245094E-02 
334	 5.54153821784585E-02 
335	 5.44082010531682E-02 
336	 5.14838164762473E-02 
337	 5.26782601117884E-02 
338	 5.83139051305987E-02 
339	 6.18234801918609E-02 
340	 0.059016007694098 
341	 4.83484418618546E-02 
342	 4.70295941406569E-02 
343	 5.27003035574648E-02 
344	 5.65330270625024E-02 
345	 5.52408626613768E-02 
346	 0.050339563837767 
347	 5.19355634184064E-02 
348	 5.52083157363883E-02 
349	 5.64752049165338E-02 
350	 5.49449066208466E-02 
351	 5.24857959779221E-02 
352	 5.20867774842502E-02 
353	 0.051179913305054 
354	 5.02562300957457E-02 
355	 5.36778735139152E-02 
356	 5.49759143203327E-02 
357	 5.13127821390561E-02 
358	 5.29987375443109E-02 
359	 5.69352604868638E-02 
360	 5.67853603851825E-02 
361	 5.48872008929162E-02 
362	 5.27705967695135E-02 
363	 5.34551191825086E-02 
364	 5.42231640834926E-02 
365	 5.39005048828568E-02 
366	 5.53874973692341E-02 
367	 0.05640944982381 
368	 5.36175083766195E-02 
369	 5.38006376124585E-02 
370	 5.68568579813796E-02 
371	 5.68707332386562E-02 
372	 5.66463724217443E-02 
373	 5.74501506459357E-02 
374	 5.72458989599151E-02 
375	 5.66214576535525E-02 
376	 5.66276137466711E-02 
377	 5.73618210470335E-02 
378	 5.80839096376713E-02 
379	 5.61236008121281E-02 
380	 5.53393591090912E-02 
381	 5.73599535110374E-02 
382	 5.90514009589007E-02 
383	 0.059712439511805 
384	 5.88895235507611E-02 
385	 5.88990278402829E-02 
386	 5.92226017632741E-02 
387	 5.63316025373415E-02 
388	 5.41644079556632E-02 
389	 5.43842717377299E-02 
390	 5.53416913579464E-02 
391	 5.64680387217468E-02 
392	 0.057301799302032 
393	 5.74867726749065E-02 
394	 5.69558724271415E-02 
395	 5.57492227172359E-02 
396	 0.054933769235879 
397	 0.054657797269766 
398	 5.29556246718754E-02 
399	 5.11961924285122E-02 
400	 5.07936198386049E-02 
401	 5.11461945652037E-02 
402	 5.21467886331089E-02 
403	 5.41373770975174E-02 
404	 5.53397494834362E-02 
405	 5.52692037744155E-02 
406	 5.61510132004021E-02 
407	 5.70228134204533E-02 
408	 5.64891812806458E-02 
409	 5.58954113541133E-02 
410	 5.55271344928058E-02 
411	 5.51277522623023E-02 
412	 5.52669395291491E-02 
413	 5.59930956722251E-02 
414	 5.58159099786156E-02 
415	 5.55182304685032E-02 
416	 5.62760083744407E-02 
417	 5.66706399899878E-02 
418	 5.65819142967515E-02 
419	 5.67427385803866E-02 
420	 5.67408473556908E-02 
421	 5.65003618985557E-02 
422	 5.71045647087279E-02 
423	 5.78658015401329E-02 
424	 0.05763084595959 
425	 5.77135665980557E-02 
426	 5.83662947016487E-02 
427	 5.92688093186232E-02 
428	 5.98674226791409E-02 
429	 5.98044353073937E-02 
430	 5.95127870013483E-02 
431	 0.059024787033945 
432	 5.82783794021296E-02 
433	 5.76194728328873E-02 
434	 5.73664806002519E-02 
435	 5.82280753595973E-02 
436	 5.88688196676644E-02 
437	 5.85629226587561E-02 
438	 5.94460030522804E-02 
439	 6.05587336812173E-02 
440	 5.95560389976634E-02 
441	 5.89749026460902E-02 
442	 5.94084428426392E-02 
443	 5.98506876896703E-02 
444	 6.00934262740504E-02 
445	 6.00564798222402E-02 
446	 6.06021699948779E-02 
447	 6.13751417006567E-02 
448	 6.12906662852895E-02 
449	 6.10113759607006E-02 
450	 6.09114853721601E-02 
451	 6.16034249200465E-02 
452	 6.24992694088405E-02 
453	 6.29648680985498E-02 
454	 6.28502268301114E-02 
455	 6.24516492347088E-02 
456	 6.26963859395204E-02 
457	 6.27662943172923E-02 
458	 6.24802792193892E-02 
459	 6.28241102665232E-02 
460	 6.31910628646809E-02 
461	 6.28003497401065E-02 
462	 6.27441706173005E-02 
463	 6.30524738909873E-02 
464	 6.30054614816595E-02 
465	 6.29660902101103E-02 
466	 6.31377466472459E-02 
467	 6.36300635497134E-02 
468	 0.064009555954582 
469	 6.36484330291602E-02 
470	 0.063463701870444 
471	 6.35616814835279E-02 
472	 6.33318867221232E-02 
473	 6.33086217968749E-02 
474	 6.37386708077688E-02 
475	 6.37018069285679E-02 
476	 6.34629096179593E-02 
477	 6.37220778001428E-02 
478	 6.37121640723414E-02 
479	 6.34045934660454E-02 
480	 6.35672530176904E-02 
481	 6.40282097846066E-02 
482	 6.45882760662315E-02 
483	 6.47721111131954E-02 
484	 6.47211914800347E-02 
485	 6.50186142159834E-02 
486	 6.51792886700198E-02 
487	 6.50379091265507E-02 
488	 6.47326990489539E-02 
489	 6.43456563918122E-02 
490	 6.39634905952885E-02 
491	 6.37728289967446E-02 
492	 6.39211861722227E-02 
493	 6.47897954517394E-02 
494	 6.52095832291645E-02 
495	 6.48438063433636E-02 
496	 6.51829682581905E-02 
497	 0.065797914796322 
498	 6.59576089961834E-02 
499	 6.61083864645577E-02 
500	 6.62602622558829E-02 
501	 6.60789591664879E-02 
502	 6.60147618246293E-02 
503	 6.62840827049062E-02 
504	 0.066266077133195 
505	 6.61365515965354E-02 
506	 6.63272181373023E-02 
507	 6.63521215946635E-02 
508	 6.62358953917737E-02 
509	 6.66612422821601E-02 
510	 6.70194427699185E-02 
511	 0.06686317114566 
512	 6.69891468382738E-02 
513	 0.067407446770941 
514	 6.78670435552744E-02 
515	 6.81308349086793E-02 
516	 6.81039264326035E-02 
517	 6.79606110780255E-02 
518	 6.78044750391972E-02 
519	 6.77253380509626E-02 
520	 6.74062380040262E-02 
521	 6.71333009953625E-02 
522	 6.78211823134957E-02 
523	 6.85490556628584E-02 
524	 6.89120844700903E-02 
525	 6.93985332481542E-02 
526	 6.96350812136698E-02 
527	 6.90286766334191E-02 
528	 6.90012696442721E-02 
529	 0.069551016851077 
530	 6.92059754674969E-02 
531	 6.91124393422734E-02 
532	 6.99224992590145E-02 
533	 7.01974085843126E-02 
534	 7.00243932592559E-02 
535	 6.99833551430092E-02 
536	 7.00848548821335E-02 
537	 7.03558880502067E-02 
538	 7.07876664349164E-02 
539	 7.11175060513259E-02 
540	 7.11026985971667E-02 
541	 7.10138876921609E-02 
542	 7.09398645343504E-02 
543	 7.09209058708433E-02 
544	 7.09926934489215E-02 
545	 7.11896148086155E-02 
546	 7.16218893777657E-02 
547	 0.071997066057828 
548	 7.19349275118008E-02 
549	 7.19292009432883E-02 
550	 7.21359955045642E-02 
551	 7.26290652162255E-02 
552	 7.30586735875327E-02 
553	 7.31849806478984E-02 
554	 0.073050456933766 
555	 7.28908573837641E-02 
556	 7.31242794770134E-02 
557	 7.32887508506348E-02 
558	 7.33107373340872E-02 
559	 7.36158705527228E-02 
560	 7.37918376891448E-02 
561	 7.34944512875954E-02 
562	 7.34987193735903E-02 
563	 7.38093162207241E-02 
564	 7.40805199048447E-02 
565	 7.41654614178255E-02 
566	 7.40259805915376E-02 
567	 7.39809712959409E-02 
568	 7.39876565205631E-02 
569	 7.39509910177481E-02 
570	 7.42754957387594E-02 
571	 7.48050654391851E-02 
572	 7.46967977477742E-02 
573	 7.45253600786863E-02 
574	 7.46705100293892E-02 
575	 7.52260024048438E-02 
576	 7.56637307975864E-02 
577	 7.49744447727285E-02 
578	 7.46297051241643E-02 
579	 7.49548146641233E-02 
580	 7.51006483130967E-02 
581	 7.51387988018719E-02 
582	 7.51726746607697E-02 
583	 7.54315586195544E-02 
584	 7.57499767278044E-02 
585	 7.55660392484051E-02 
586	 7.55152493725819E-02 
587	 7.57611711258194E-02 
588	 7.56364277844951E-02 
589	 7.52612190702884E-02 
590	 7.48866787695709E-02 
591	 7.46246005205727E-02 
592	 7.45620610318838E-02 
593	 7.47981704657055E-02 
594	 7.51452102119761E-02 
595	 7.54580782101386E-02 
596	 7.56270557088474E-02 
597	 7.56651689524966E-02 
598	 7.56322873999708E-02 
599	 7.55585060998404E-02 
600	 7.54538251597113E-02 
601	 7.52637209954789E-02 
602	 7.51143270108574E-02 
603	 7.51316667077109E-02 
604	 0.075503053799085 
605	 7.59286300235467E-02 
606	 7.55037062858364E-02 
607	 7.55238916914225E-02 
608	 7.63091017450451E-02 
609	 0.076419416961438 
610	 7.60047941723691E-02 
611	 7.54337168772103E-02 
612	 7.53732758617753E-02 
613	 0.075743827082967 
614	 7.55894947852771E-02 
615	 7.55428624362231E-02 
616	 7.58788686115645E-02 
617	 7.55510375912293E-02 
618	 0.074993070754927 
619	 7.51896856874104E-02 
620	 7.53331821043295E-02 
621	 7.52530935129326E-02 
622	 7.52929223462756E-02 
623	 7.53743427559968E-02 
624	 7.54121578759245E-02 
625	 7.53428018997873E-02 
626	 7.52441677739768E-02 
627	 0.075323646029931 
628	 7.55735832108541E-02 
629	 7.58570556211589E-02 
630	 7.53595775625756E-02 
631	 7.48961791828513E-02 
632	 7.55351655743705E-02 
633	 0.076134441947562 
634	 7.62740250025983E-02 
635	 7.55107679323773E-02 
636	 7.50861973664394E-02 
637	 7.56483793488291E-02 
638	 7.58314320011703E-02 
639	 7.57748279272239E-02 
640	 7.60704072337692E-02 
641	 0.076263173157703 
642	 7.62051612308128E-02 
643	 7.58262263472989E-02 
644	 7.57312270932147E-02 
645	 7.63882941381199E-02 
646	 7.66738995426892E-02 
647	 7.65131753565323E-02 
648	 7.62972877228919E-02 
649	 7.61514361506034E-02 
650	 7.61290676361138E-02 
651	 7.60455281211001E-02 
652	 7.58690139103665E-02 
653	 7.55840127690644E-02 
654	 7.57677176387221E-02 
655	 7.62549806954403E-02 
656	 7.59262448320019E-02 
657	 7.54531459054527E-02 
658	 7.52400224438798E-02 
659	 7.48579577750007E-02 
660	 7.45783372546065E-02 
661	 7.49472274798308E-02 
662	 0.074825698657439 
663	 7.41566049216257E-02 
664	 7.42049658363315E-02 
665	 7.44313158262836E-02 
666	 7.43471537404434E-02 
667	 7.40643068732045E-02 
668	 7.37363789433555E-02 
669	 7.37320610345256E-02 
670	 7.35133868917439E-02 
671	 7.30505203277867E-02 
672	 7.33433936552819E-02 
673	 7.37709433150208E-02 
674	 7.35584987818378E-02 
675	 7.35922028776693E-02 
676	 7.39173813117918E-02 
677	 7.40613521810967E-02 
678	 7.41316719861967E-02 
679	 0.074222221248531 
680	 7.46633293021162E-02 
681	 7.50704074599452E-02 
682	 7.47683128582261E-02 
683	 7.47466700702345E-02 
684	 0.075238959259406 
685	 7.60126742665229E-02 
686	 7.66025295834041E-02 
687	 0.076571046580775 
688	 0.076401810084233 
689	 7.62979111947376E-02 
690	 7.63768675212359E-02 
691	 7.68206530588921E-02 
692	 7.75292160625388E-02 
693	 0.077730735442011 
694	 7.77327140763733E-02 
695	 7.79065440489796E-02 
696	 7.83267673259756E-02 
697	 7.88356396719175E-02 
698	 7.89594136308109E-02 
699	 7.91214380630899E-02 
700	 7.94636931541946E-02 
701	 7.95101865449711E-02 
702	 7.95168776893196E-02 
703	 7.99041820559272E-02 
704	 7.98607324698627E-02 
705	 7.94820761679696E-02 
706	 0.079844321694642 
707	 8.00186772830683E-02 
708	 7.94877865051168E-02 
709	 7.92683197988731E-02 
710	 7.94565634557266E-02 
711	 7.99674092338273E-02 
712	 8.03180914543012E-02 
713	 8.04031994974516E-02 
714	 8.05857699157532E-02 
715	 8.09322993712508E-02 
716	 8.14775168536966E-02 
717	 8.14130738181271E-02 
718	 8.10043709076604E-02 
719	 8.18699227206025E-02 
720	 0.082026765082024 
721	 8.11363541958732E-02 
722	 8.10168519136643E-02 
723	 8.10479963754319E-02 
724	 8.04679822994744E-02 
725	 8.06904664545765E-02 
726	 8.15889841092177E-02 
727	 8.17766259333615E-02 
728	 8.19009922395654E-02 
729	 8.22399802295395E-02 
730	 8.25188476240555E-02 
731	 8.25855278165363E-02 
732	 8.22905022141915E-02 
733	 8.20399554549267E-02 
734	 8.20175502719747E-02 
735	 8.25003055672285E-02 
736	 8.28553569045095E-02 
737	 8.26762375516648E-02 
738	 8.25011380528119E-02 
739	 8.24622562641263E-02 
740	 0.082653622123522 
741	 8.28032432972097E-02 
742	 8.28018486810464E-02 
743	 8.26180209475956E-02 
744	 8.24524399676882E-02 
745	 8.24809700327311E-02 
746	 8.27137536071158E-02 
747	 8.30039087871094E-02 
748	 8.30255063783233E-02 
749	 8.29676512727053E-02 
750	 8.28990808442459E-02 
751	 0.082795256030648 
752	 0.082795830366701 
753	 8.30265404504451E-02 
754	 8.30412989035754E-02 
755	 0.082887275389317 
756	 0.083065243978168 
757	 8.27471967543354E-02 
758	 8.17106400726212E-02 
759	 8.17975552203174E-02 
760	 8.35434127198022E-02 
761	 8.59064746085132E-02 
762	 8.62251114037771E-02 
763	 8.50534671375453E-02 
764	 8.48911864543744E-02 
765	 8.54902012657034E-02 
766	 8.63658564430505E-02 
767	 8.58101561479599E-02 
768	 8.48484325833496E-02 
769	 0.084767642498125 
770	 8.46882771379583E-02 
771	 8.44319471346741E-02 
772	 8.40003051386406E-02 
773	 8.39668977523215E-02 
774	 0.084616768196618 
775	 8.48548816449969E-02 
776	 8.48014582109763E-02 
777	 8.49901666079335E-02 
778	 8.50497263461595E-02 
779	 8.49509648585948E-02 
780	 8.49773221438249E-02 
781	 8.51522678054441E-02 
782	 8.54542621267832E-02 
783	 0.085519338438657 
784	 8.54510068686145E-02 
785	 8.56182138855079E-02 
786	 8.56543124636437E-02 
787	 8.55419019737812E-02 
788	 0.085778238866718 
789	 8.60650050255639E-02 
790	 8.61163629016232E-02 
791	 0.086307627204796 
792	 8.64807024141522E-02 
793	 8.60528108670428E-02 
794	 8.58335939874377E-02 
795	 8.60714578505573E-02 
796	 8.63963398984079E-02 
797	 8.65408065251146E-02 
798	 8.62889094794661E-02 
799	 8.61130752549483E-02 
800	 8.61326521455754E-02 
801	 0.086401000484001 
802	 8.65995812992386E-02 
803	 8.65881758414924E-02 
804	 8.64435803618782E-02 
805	 8.63371957042697E-02 
806	 8.64435027207513E-02 
807	 8.66766954714311E-02 
808	 8.69957618926273E-02 
809	 8.74450314393353E-02 
810	 8.73578978340954E-02 
811	 8.66045282931995E-02 
812	 8.64023780212725E-02 
813	 8.67232069705192E-02 
814	 8.73677567524348E-02 
815	 8.78353217760454E-02 
816	 8.80930622907294E-02 
817	 8.87050932407632E-02 
818	 0.088728630130966 
819	 8.80333149823921E-02 
820	 8.81384277777822E-02 
821	 8.87765056855438E-02 
822	 8.94617557113537E-02 
823	 8.89932765200017E-02 
824	 8.77694344390243E-02 
825	 8.75603398433326E-02 
826	 8.82115448518036E-02 
827	 8.94074582000267E-02 
828	 8.94626954863602E-02 
829	 8.86947072689861E-02 
830	 0.087775892697744 
831	 8.81081409377717E-02 
832	 8.92489853089821E-02 
833	 8.90115816347409E-02 
834	 8.83937853633128E-02 
835	 8.79920186869169E-02 
836	 0.088727811677357 
837	 8.93585248759974E-02 
838	 8.84692622984351E-02 
839	 8.81190412111175E-02 
840	 0.088397731375631 
841	 8.81626012999852E-02 
842	 8.83464679221367E-02 
843	 8.90989683590667E-02 
844	 8.89822632972736E-02 
845	 8.85581346756323E-02 
846	 8.85779262715254E-02 
847	 8.85699097187251E-02 
848	 8.83855829255225E-02 
849	 8.77176613142056E-02 
850	 8.78637118910933E-02 
851	 8.90190756241187E-02 
852	 8.88518370790343E-02 
853	 8.83246919831411E-02 
854	 8.86574939963628E-02 
855	 8.92413675532889E-02 
856	 8.95691789500939E-02 
857	 8.84789764671084E-02 
858	 8.86949454665471E-02 
859	 9.04272494749922E-02 
860	 8.95913194608053E-02 
861	 8.82759061046643E-02 
862	 8.86023095976697E-02 
863	 8.86151453523322E-02 
864	 8.85338048153931E-02 
865	 0.089740878903069 
866	 9.04249511331012E-02 
867	 9.01317053645076E-02 
868	 9.00228411566865E-02 
869	 8.99109424249628E-02 
870	 8.96969591058566E-02 
871	 9.03884002634539E-02 
872	 9.11807671993897E-02 
873	 9.02231036673908E-02 
874	 8.98303383210481E-02 
875	 9.01273779724479E-02 
876	 8.83286529770458E-02 
877	 0.087608163651744 
878	 8.97589345864377E-02 
879	 8.97232694633889E-02 
880	 8.88091917341103E-02 
881	 9.03123888860234E-02 
882	 9.01520352850376E-02 
883	 8.82447410231353E-02 
884	 8.81254326244435E-02 
885	 8.87840375612139E-02 
886	 8.95297542671567E-02 
887	 8.97365332906942E-02 
888	 8.95327304974243E-02 
889	 8.92399604041608E-02 
890	 9.04349647025087E-02 
891	 9.18739216343077E-02 
892	 8.80659257272905E-02 
893	 8.61340231696234E-02 
894	 8.88858464949477E-02 
895	 9.01394437673582E-02 
896	 9.03096215616033E-02 
897	 9.05016449397167E-02 
898	 9.09958977757357E-02 
899	 9.16531159908059E-02 
900	 9.19942321866981E-02 
901	 9.12864987683318E-02 
902	 8.96772804124595E-02 
903	 8.86853871104735E-02 
904	 8.88748539029554E-02 
905	 9.02999573366461E-02 
906	 8.96508084888675E-02 
907	 8.81093246147511E-02 
908	 8.86800557716529E-02 
909	 8.95456325283961E-02 
910	 9.01624783044261E-02 
911	 9.05002366211707E-02 
912	 9.06243445025266E-02 
913	 9.07579117535407E-02 
914	 9.21599402539561E-02 
915	 9.30184067307468E-02 
916	 9.11505606409436E-02 
917	 9.06377246257533E-02 
918	 9.14820815080969E-02 
919	 9.11575734015166E-02 
920	 9.14078705943383E-02 
921	 0.092225334890866 
922	 9.06334242186176E-02 
923	 8.90173517559141E-02 
924	 0.089416060053933 
925	 8.76050904266964E-02 
926	 0.085663050185109 
927	 8.99239194936318E-02 
928	 9.06996354588369E-02 
929	 8.60719113414255E-02 
930	 8.57309381736541E-02 
931	 8.75175835595707E-02 
932	 8.94067864371108E-02 
933	 8.93702146878551E-02 
934	 8.92211076793085E-02 
935	 9.21589082890069E-02 
936	 9.72479651302359E-02 
937	 0.100860848030736 
938	 9.46373123353724E-02 
939	 9.17001544398465E-02 
940	 9.49971261080528E-02 
941	 9.85319930612756E-02 
942	 9.43122480598322E-02 
943	 7.97318224177477E-02 
944	 8.49189731354486E-02 
945	 9.82814349291602E-02 
946	 9.56725773157095E-02 
947	 9.31663437824336E-02 
948	 0.093044015920082 
949	 8.96059668904195E-02 
950	 8.69035623223253E-02 
951	 8.71714592239347E-02 
952	 9.28539106667681E-02 
953	 9.48592103640899E-02 
954	 8.65284007075674E-02 
955	 8.86026752760649E-02 
956	 9.49016363856174E-02 
957	 0.088323022768218 
958	 8.32974011646693E-02 
959	 8.36906766772262E-02 
960	 8.92310086922451E-02 
961	 9.42115510850683E-02 
962	 9.60918514837041E-02 
963	 0.100185747470951 
964	 0.100793704825286 
965	 9.30194635775412E-02 
966	 8.98122114287114E-02 
967	 8.98696948818854E-02 
968	 8.58597114489208E-02 
969	 8.27104339443007E-02 
970	 8.23072651689898E-02 
971	 8.66712909352066E-02 
972	 8.97628139086006E-02 
973	 8.87518201934448E-02 
974	 8.81137880157327E-02 
975	 9.05519466004166E-02 
976	 9.76114095587919E-02 
977	 9.48951814049465E-02 
978	 8.63403309245237E-02 
979	 8.65447956499887E-02 
980	 8.79353844407794E-02 
981	 8.84682824247187E-02 
982	 8.83560364232902E-02 
983	 0.089956001043738 
984	 0.093470358314127 
985	 9.14797631892597E-02 
986	 8.98714311402641E-02 
987	 9.47612041478779E-02 
988	 9.37258211741609E-02 
989	 8.81348237582514E-02 
990	 8.51078046958438E-02 
991	 8.45017954888325E-02 
992	 8.63655348110395E-02 
993	 8.98658154565229E-02 
994	 9.44512602898272E-02 
995	 9.81837551421036E-02 
996	 9.30554869550738E-02 
997	 8.65948869618632E-02 
998	 8.67595174649184E-02 
999	 8.90308454579168E-02 
1000	 9.02963103450429E-02 
1001	 8.66692805660301E-02 
1002	 8.18073716055701E-02 
1003	 7.79551002325605E-02 
1004	 7.78936362591938E-02 
1005	 8.42420843904626E-02 
1006	 0.093478257100747 
1007	 8.25618379035937E-02 
1008	 7.57376855423363E-02 
1009	 8.98772043911701E-02 
1010	 0.093466338246135 
1011	 8.81698109706447E-02 
1012	 8.21338915999372E-02 
1013	 7.71141468419329E-02 
1014	 7.59053548118715E-02 
1015	 8.27078427447022E-02 
1016	 0.088710206440524 
1017	 9.13022916283581E-02 
1018	 9.40048897714181E-02 
1019	 0.095445871589948 
1020	 9.53948529251249E-02 
1021	 9.64766710939973E-02 
1022	 9.79082587495385E-02 
1023	 9.88784687926696E-02 
1024	 0.101785793695559 
1025	 0.10452074038213 
1026	 0.103130418673101 
1027	 9.92195347528228E-02 
1028	 9.38872646611591E-02 
1029	 8.86475916968031E-02 
1030	 8.40861997855657E-02 
1031	 8.29830383247043E-02 
1032	 9.68075962132292E-02 
1033	 0.100680284896995 
1034	 8.34461431745279E-02 
1035	 8.39618865040679E-02 
1036	 9.34133593536639E-02 
1037	 0.098657511304315 
1038	 9.55461319449321E-02 
1039	 9.20285241896968E-02 
1040	 0.103310153649944 
1041	 0.106608321341439 
1042	 9.97409069755361E-02 
1043	 0.093008157516359 
1044	 8.60078818092372E-02 
1045	 8.25366169430277E-02 
1046	 9.41216748922874E-02 
1047	 9.57908219822275E-02 
1048	 7.77753304182318E-02 
1049	 8.29648222976384E-02 
1050	 9.47340741352068E-02 
1051	 9.50049898958066E-02 
1052	 9.56989166234903E-02 
1053	 9.42746716183879E-02 
1054	 8.53740290652771E-02 
1055	 9.43411466137249E-02 
1056	 0.113366386445199 
1057	 0.112602992250706 
1058	 9.92558604664843E-02 
1059	 8.20422033601838E-02 
1060	 0.094093345708026 
1061	 9.69253516040941E-02 
1062	 7.95685509917799E-02 
1063	 8.49209582831696E-02 
1064	 8.44642834970262E-02 
1065	 6.51505004240179E-02 
1066	 9.42542472404145E-02 
1067	 0.135394178074067 
1068	 0.144839709205641 
1069	 0.130991151754156 
1070	 0.106636730570894 
1071	 9.37930173762397E-02 
1072	 9.71783535353725E-02 
1073	 0.103343927358168 
1074	 7.54101960927854E-02 
1075	 6.42430222667266E-02 
