Wavelength	A00007.asd
325	 2.56789774809497E-02 
326	 2.89109518204732E-02 
327	 3.82088596661908E-02 
328	 3.74589180087734E-02 
329	 3.82609108131431E-02 
330	 0.04306176769668 
331	 4.17189973930719E-02 
332	 3.92977206484852E-02 
333	 4.10051784830636E-02 
334	 0.043513884955718 
335	 4.40935926094834E-02 
336	 0.037015617351136 
337	 3.42284838381594E-02 
338	 3.77743089554959E-02 
339	 3.76075728802906E-02 
340	 3.60590335900011E-02 
341	 3.53685940562264E-02 
342	 3.36477362366096E-02 
343	 0.03251819149319 
344	 3.55042069041389E-02 
345	 0.037599915136567 
346	 3.78854399165118E-02 
347	 3.87532939883901E-02 
348	 3.97736558675605E-02 
349	 4.04509766494332E-02 
350	 3.94057936146361E-02 
351	 3.80470533815175E-02 
352	 3.88516765672228E-02 
353	 3.84412428729089E-02 
354	 3.65858940755357E-02 
355	 3.52288883325335E-02 
356	 3.56161933362467E-02 
357	 3.80537572527251E-02 
358	 0.039349240646832 
359	 3.89415377539164E-02 
360	 0.036663613376784 
361	 3.57961469306315E-02 
362	 3.64705792609835E-02 
363	 3.58176111972873E-02 
364	 3.62022070536208E-02 
365	 0.038183275716537 
366	 3.67115181670077E-02 
367	 3.50451297331555E-02 
368	 3.80923173690934E-02 
369	 3.91516881816316E-02 
370	 0.037715889530228 
371	 3.74101868462863E-02 
372	 3.74590853358836E-02 
373	 0.03759493641594 
374	 3.85522276364532E-02 
375	 3.94731916321088E-02 
376	 3.91724820812468E-02 
377	 3.76074333440288E-02 
378	 3.54075049514746E-02 
379	 3.43154012710366E-02 
380	 3.43836111189626E-02 
381	 0.035562377164086 
382	 3.74047369681585E-02 
383	 3.88799742322326E-02 
384	 0.038803139699066 
385	 3.72061868302795E-02 
386	 3.54349263383113E-02 
387	 3.73213743344346E-02 
388	 3.87413702119123E-02 
389	 3.80093635314295E-02 
390	 3.73755176897048E-02 
391	 3.69162550191136E-02 
392	 3.64767020548593E-02 
393	 3.66324274085844E-02 
394	 3.73593526614233E-02 
395	 3.83476397187109E-02 
396	 3.88821904747227E-02 
397	 3.87431971195926E-02 
398	 3.85924149818542E-02 
399	 3.85459228475025E-02 
400	 0.038634245120103 
401	 3.83947291265373E-02 
402	 3.79525139377094E-02 
403	 3.77043988975856E-02 
404	 0.03796378292282 
405	 3.86813377250819E-02 
406	 3.87004456076507E-02 
407	 3.85472393398528E-02 
408	 3.89770533855342E-02 
409	 3.83913343126029E-02 
410	 3.72909768842376E-02 
411	 3.81111404411797E-02 
412	 0.038896579624241 
413	 3.87600844559698E-02 
414	 3.84660203897419E-02 
415	 3.81089633492809E-02 
416	 3.77039036697307E-02 
417	 3.80099889024427E-02 
418	 3.87216702839497E-02 
419	 3.82823070751805E-02 
420	 3.81379298219553E-02 
421	 3.89125201929616E-02 
422	 3.91262346829961E-02 
423	 3.89294318969829E-02 
424	 3.87865551268689E-02 
425	 0.038668835323979 
426	 3.85685944346246E-02 
427	 3.83576899284837E-02 
428	 3.84066763982259E-02 
429	 3.88304978026529E-02 
430	 3.84590811169734E-02 
431	 3.79858230196138E-02 
432	 3.88081263537676E-02 
433	 0.039394837760537 
434	 3.94391879081321E-02 
435	 3.95055601048713E-02 
436	 3.95265142617766E-02 
437	 3.94747240822482E-02 
438	 3.95405390599128E-02 
439	 3.95836121095787E-02 
440	 3.92786294899923E-02 
441	 3.91230558330992E-02 
442	 3.92489226899172E-02 
443	 3.94884076334458E-02 
444	 0.039758118342395 
445	 3.99625540118413E-02 
446	 3.97229300560523E-02 
447	 3.93706699700274E-02 
448	 3.98145551555829E-02 
449	 3.99222341272389E-02 
450	 3.95002797342118E-02 
451	 3.95959879128477E-02 
452	 3.99189943156501E-02 
453	 4.01241408220284E-02 
454	 4.03004156290521E-02 
455	 4.03647777959321E-02 
456	 4.00267020275636E-02 
457	 3.99450437381783E-02 
458	 4.02899547870289E-02 
459	 4.02330799425114E-02 
460	 4.01327378069222E-02 
461	 4.04785548536265E-02 
462	 4.07498285718286E-02 
463	 4.07738344889106E-02 
464	 4.03582204119719E-02 
465	 4.02046573815957E-02 
466	 0.040637678900055 
467	 0.041044893570534 
468	 4.12878960499403E-02 
469	 4.12877047555581E-02 
470	 4.11308026453963E-02 
471	 4.09020084498876E-02 
472	 4.07293445802012E-02 
473	 4.07172876909984E-02 
474	 4.09070254595826E-02 
475	 4.10907599226597E-02 
476	 4.11114707024418E-02 
477	 4.07223529129224E-02 
478	 4.08452327965051E-02 
479	 4.15103676261762E-02 
480	 4.16416579234598E-02 
481	 4.15358453946278E-02 
482	 4.14820948214322E-02 
483	 0.041704924650116 
484	 0.042014579366708 
485	 4.18481326262396E-02 
486	 4.16792463127904E-02 
487	 4.16455859289266E-02 
488	 4.14198857095507E-02 
489	 4.14733971848329E-02 
490	 4.22299029990582E-02 
491	 4.24226603948992E-02 
492	 4.21282107250983E-02 
493	 0.042233561266491 
494	 4.24993531596123E-02 
495	 4.27658319189087E-02 
496	 4.25708811739391E-02 
497	 0.042453304797209 
498	 4.31536798585781E-02 
499	 0.04349584932832 
500	 4.33700370976726E-02 
501	 4.34537498943328E-02 
502	 4.36457811556062E-02 
503	 4.39036259446951E-02 
504	 4.43602076766953E-02 
505	 4.47819289325184E-02 
506	 4.47779759140209E-02 
507	 0.044715504763486 
508	 4.47554678078728E-02 
509	 4.50491667573279E-02 
510	 4.53707394995143E-02 
511	 4.55381637277971E-02 
512	 4.56316066665686E-02 
513	 4.58022270377552E-02 
514	 4.63663225326149E-02 
515	 4.69950327188407E-02 
516	 4.75251660752083E-02 
517	 4.78102340688578E-02 
518	 4.81674259266485E-02 
519	 4.89166469138237E-02 
520	 4.93376053850057E-02 
521	 4.94982053273302E-02 
522	 4.99986135553617E-02 
523	 5.05199763314147E-02 
524	 5.09165814495318E-02 
525	 5.11505283358521E-02 
526	 5.15000505688912E-02 
527	 5.23535711421674E-02 
528	 5.31158838966867E-02 
529	 5.35266149052122E-02 
530	 5.32919235998758E-02 
531	 5.32481220044543E-02 
532	 0.053874286987453 
533	 5.40240886203293E-02 
534	 5.39733475617487E-02 
535	 5.46201654965782E-02 
536	 5.50550663051784E-02 
537	 5.50758891387202E-02 
538	 5.51384148935412E-02 
539	 5.53372296443396E-02 
540	 5.57392324729057E-02 
541	 5.63271519986947E-02 
542	 5.68456541777851E-02 
543	 5.66449611388103E-02 
544	 5.65693771393647E-02 
545	 0.056926465659353 
546	 5.71353672981678E-02 
547	 5.73451543875547E-02 
548	 5.78138062246702E-02 
549	 5.80402930395908E-02 
550	 5.80100339578825E-02 
551	 5.80970390435306E-02 
552	 5.83407866180834E-02 
553	 5.87122301758698E-02 
554	 5.86966054559081E-02 
555	 5.85344251466955E-02 
556	 5.87961675832302E-02 
557	 0.059172115691868 
558	 5.95387806698193E-02 
559	 5.98728161014695E-02 
560	 5.98594345187619E-02 
561	 5.92811097188954E-02 
562	 5.90925456604729E-02 
563	 5.92842339763912E-02 
564	 5.93223468535363E-02 
565	 5.93374668544771E-02 
566	 5.93205169688007E-02 
567	 5.90161794484833E-02 
568	 5.87368411065506E-02 
569	 5.88982263696044E-02 
570	 5.90002194596984E-02 
571	 5.88847911799493E-02 
572	 5.84952089619843E-02 
573	 5.80989275411789E-02 
574	 5.78595041297504E-02 
575	 5.75708288064674E-02 
576	 5.74086673175882E-02 
577	 0.057752878038629 
578	 5.79405213958275E-02 
579	 5.78218988487549E-02 
580	 5.78460794956682E-02 
581	 5.77372200683011E-02 
582	 5.72667172036199E-02 
583	 5.67907568241535E-02 
584	 5.65509839016638E-02 
585	 5.70345624141716E-02 
586	 5.72234032616938E-02 
587	 0.05680367330688 
588	 5.67674705086073E-02 
589	 0.056907311419735 
590	 5.68357417707807E-02 
591	 5.68055753571394E-02 
592	 5.67686116373457E-02 
593	 5.63276328767643E-02 
594	 5.61780597343426E-02 
595	 5.66501011967512E-02 
596	 5.68693917137257E-02 
597	 5.67833450957768E-02 
598	 5.65074077658835E-02 
599	 0.056367595177715 
600	 0.056471999819803 
601	 5.67618627425767E-02 
602	 5.68372816854382E-02 
603	 5.63925500601562E-02 
604	 5.61316012658638E-02 
605	 0.056083731783232 
606	 5.59492414971211E-02 
607	 5.59201940399787E-02 
608	 5.59998436306951E-02 
609	 5.57945710620446E-02 
610	 5.54899749629615E-02 
611	 5.53631869942366E-02 
612	 5.53757912992489E-02 
613	 5.54177590933043E-02 
614	 5.51288437632359E-02 
615	 5.49415740746192E-02 
616	 5.50682751536319E-02 
617	 5.49103595475772E-02 
618	 5.46177906061212E-02 
619	 5.45877571181092E-02 
620	 5.46057428911185E-02 
621	 0.054552608339035 
622	 5.41851147624452E-02 
623	 5.38526519044808E-02 
624	 5.38667055363992E-02 
625	 0.053896609032886 
626	 5.39270701240337E-02 
627	 5.41246403510862E-02 
628	 5.41494437324745E-02 
629	 5.39373007135062E-02 
630	 0.054047826651006 
631	 5.41391887762213E-02 
632	 5.37403236199329E-02 
633	 5.33707862153847E-02 
634	 5.31443778703634E-02 
635	 5.29453441295547E-02 
636	 5.28994397399022E-02 
637	 5.30561680371894E-02 
638	 0.053241009937249 
639	 5.32760816308736E-02 
640	 5.29010154995469E-02 
641	 5.24920931452075E-02 
642	 5.22211579127287E-02 
643	 5.22821597490416E-02 
644	 5.19923345909351E-02 
645	 5.08627376785545E-02 
646	 5.08314489074305E-02 
647	 5.15931107174259E-02 
648	 5.13698818581934E-02 
649	 5.10570440729536E-02 
650	 5.09586261284918E-02 
651	 0.050891377682734 
652	 5.07293829667051E-02 
653	 5.03377480066063E-02 
654	 4.99795458489579E-02 
655	 4.97561892984829E-02 
656	 4.98220242543447E-02 
657	 0.049777642575476 
658	 4.94039518300169E-02 
659	 0.048932217129945 
660	 4.85943704326916E-02 
661	 4.87315929188981E-02 
662	 4.87279939775591E-02 
663	 4.83455349642963E-02 
664	 4.73627990253925E-02 
665	 4.68037742909779E-02 
666	 4.74293472515619E-02 
667	 4.76305417549193E-02 
668	 4.72953466492867E-02 
669	 4.68783257675955E-02 
670	 4.64998002704838E-02 
671	 0.046312004508147 
672	 0.046700446554844 
673	 4.69100873282133E-02 
674	 4.60955461642257E-02 
675	 4.59943910776295E-02 
676	 4.67157904762981E-02 
677	 4.74387913231424E-02 
678	 0.047501225537991 
679	 0.046714864491763 
680	 4.66959009569532E-02 
681	 4.73292581086231E-02 
682	 4.81132048426893E-02 
683	 4.85672752910003E-02 
684	 4.87422159762238E-02 
685	 4.96259824478702E-02 
686	 5.05256851305374E-02 
687	 5.08556796393395E-02 
688	 5.16626313279938E-02 
689	 5.29154890669494E-02 
690	 0.054301142844728 
691	 5.54212815032318E-02 
692	 0.056319740892555 
693	 5.77688449648839E-02 
694	 5.97342764134296E-02 
695	 6.20139416419792E-02 
696	 6.40592712803942E-02 
697	 6.57662798731382E-02 
698	 6.72009867881126E-02 
699	 6.89392591815407E-02 
700	 7.11932447236747E-02 
701	 7.33185015315791E-02 
702	 7.53431116665863E-02 
703	 7.74342638068939E-02 
704	 0.079047717767248 
705	 8.03064066112263E-02 
706	 8.19267172655043E-02 
707	 0.083900622425021 
708	 8.60729056990069E-02 
709	 8.71969847546613E-02 
710	 0.087930653335392 
711	 8.98367863053553E-02 
712	 9.14746327166356E-02 
713	 9.25220588824209E-02 
714	 9.36426245678143E-02 
715	 9.48658346895453E-02 
716	 9.62370609274528E-02 
717	 9.71329029195822E-02 
718	 9.77725861703584E-02 
719	 9.93260083971255E-02 
720	 0.100105764502429 
721	 9.99625182360236E-02 
722	 0.101117022133979 
723	 0.102749019534953 
724	 0.103741497485998 
725	 0.104074105252784 
726	 0.104143508270474 
727	 0.105426497888192 
728	 0.106212044003604 
729	 0.105809354004921 
730	 0.105828216213024 
731	 0.106330744728342 
732	 0.107106992374553 
733	 0.107954520468809 
734	 0.108693100618007 
735	 0.108943545828579 
736	 0.109136490990223 
737	 0.109548802657054 
738	 0.109944378979821 
739	 0.110369712204783 
740	 0.111008820463457 
741	 0.111159989632255 
742	 0.110791171600767 
743	 0.110698004725028 
744	 0.110958865745455 
745	 0.111565156761785 
746	 0.111839178806595 
747	 0.111879217794267 
748	 0.112215937694319 
749	 0.112799211952424 
750	 0.113411090026396 
751	 0.112976253028196 
752	 0.112422457232385 
753	 0.112781334087166 
754	 0.113134941556076 
755	 0.113370599291477 
756	 0.113743769070962 
757	 0.114068740365878 
758	 0.114272406130187 
759	 0.114274842809878 
760	 0.114317495644977 
761	 0.115011461947853 
762	 0.115308559602917 
763	 0.11509411583466 
764	 0.114783962421332 
765	 0.114600249072208 
766	 0.114639858231228 
767	 0.114929827548392 
768	 0.115294235792191 
769	 0.115539376476203 
770	 0.116009930153302 
771	 0.116532741024041 
772	 0.116183309665228 
773	 0.11591400263426 
774	 0.116343068651077 
775	 0.116886477188715 
776	 0.117259064347572 
777	 0.117129691851821 
778	 0.116838481018531 
779	 0.116610460132073 
780	 0.116839337172412 
781	 0.117083194475947 
782	 0.117001953551686 
783	 0.116914525437136 
784	 0.117095855131384 
785	 0.118099334466402 
786	 0.118363573236295 
787	 0.11767764246613 
788	 0.117831084788006 
789	 0.118278871226355 
790	 0.118452688781025 
791	 0.118868266602386 
792	 0.119269727905176 
793	 0.118824894379997 
794	 0.118487006578776 
795	 0.118557596231705 
796	 0.118616989774244 
797	 0.118616706667517 
798	 0.118543262461958 
799	 0.118576023402289 
800	 0.118800427345651 
801	 0.119421759894539 
802	 0.119639881768842 
803	 0.119199352461575 
804	 0.118652297746553 
805	 0.118500466695615 
806	 0.119185099321026 
807	 0.119787716903817 
808	 0.1201272237627 
809	 0.120358911356666 
810	 0.120358879433025 
811	 0.120154971244917 
812	 0.120221285717116 
813	 0.120358772369587 
814	 0.120279976434798 
815	 0.12133375982593 
816	 0.122829723961075 
817	 0.121685408167001 
818	 0.120294612029564 
819	 0.119917866388061 
820	 0.121028276271876 
821	 0.122092560477186 
822	 0.121319198979555 
823	 0.121390322062987 
824	 0.12239900515135 
825	 0.122896022346703 
826	 0.123080836644027 
827	 0.123055774852398 
828	 0.123090271077832 
829	 0.123255305282396 
830	 0.123586234334701 
831	 0.124015550887746 
832	 0.124230275800383 
833	 0.123336857504934 
834	 0.122957831507937 
835	 0.123609937077261 
836	 0.123771007074536 
837	 0.123620894995195 
838	 0.123520821434618 
839	 0.123706874753812 
840	 0.124174624585411 
841	 0.124821156065302 
842	 0.124980227969076 
843	 0.124517138552254 
844	 0.124506883511489 
845	 0.124967586173088 
846	 0.125764422685515 
847	 0.125888538469121 
848	 0.125415353223141 
849	 0.125234870781969 
850	 0.125152324982029 
851	 0.125043216627517 
852	 0.124408093614027 
853	 0.124055999514877 
854	 0.124807504963848 
855	 0.125216143017151 
856	 0.12510458829342 
857	 0.124753000833011 
858	 0.124761892489188 
859	 0.125215382387641 
860	 0.125194217422554 
861	 0.125267833631843 
862	 0.125945036960586 
863	 0.12592151069851 
864	 0.125437465771259 
865	 0.125559909540903 
866	 0.126479146136703 
867	 0.127650116880737 
868	 0.126244800401052 
869	 0.124788510037907 
870	 0.125382594269918 
871	 0.126652193056401 
872	 0.127594365858553 
873	 0.126698447158687 
874	 0.126473113581715 
875	 0.127231419114534 
876	 0.126776248737132 
877	 0.126400710658245 
878	 0.126966807618178 
879	 0.127359337529413 
880	 0.127701220228686 
881	 0.128448463363818 
882	 0.128790993336604 
883	 0.12868047103436 
884	 0.128776007520083 
885	 0.128910594385755 
886	 0.128995856546778 
887	 0.128961945610054 
888	 0.129212514969224 
889	 0.130242529590416 
890	 0.129789966090373 
891	 0.128438092499483 
892	 0.129917614772404 
893	 0.130776811391242 
894	 0.129713057778363 
895	 0.129581719846737 
896	 0.130096999361295 
897	 0.130620225824888 
898	 0.131073297697467 
899	 0.131183852662251 
900	 0.130419196563539 
901	 0.129941330397939 
902	 0.130173218086536 
903	 0.130951964156511 
904	 0.13166196811601 
905	 0.131931640112419 
906	 0.133251852194097 
907	 0.134274511488531 
908	 0.132278126899795 
909	 0.130804441647314 
910	 0.130726538451073 
911	 0.130835768248271 
912	 0.130840235997475 
913	 0.13061916567168 
914	 0.130641792915253 
915	 0.131555430789566 
916	 0.133899303926992 
917	 0.133114655275237 
918	 0.13042831568053 
919	 0.131776793156086 
920	 0.132976656461273 
921	 0.13293906645128 
922	 0.13388957953052 
923	 0.134941622421971 
924	 0.135175398493339 
925	 0.134586185170664 
926	 0.133831040040669 
927	 0.134368924588151 
928	 0.135356905787858 
929	 0.136376349345219 
930	 0.137504972475058 
931	 0.135019578707983 
932	 0.127150196914762 
933	 0.125424547428712 
934	 0.129721824705616 
935	 0.13580351206405 
936	 0.134870522287604 
937	 0.130303113422717 
938	 0.137495549832778 
939	 0.137640467978549 
940	 0.129040035870107 
941	 0.13120001056291 
942	 0.135408005335329 
943	 0.134602404178014 
944	 0.128508654184916 
945	 0.123616735826352 
946	 0.130079009656401 
947	 0.130232066270563 
948	 0.124331903645797 
949	 0.12871933066635 
950	 0.133179478575587 
951	 0.133574299483267 
952	 0.132681983572307 
953	 0.133236433075269 
954	 0.136699758596572 
955	 0.131281977852939 
956	 0.124473778032242 
957	 0.132566836635017 
958	 0.135124323543684 
959	 0.129495631853077 
960	 0.125807657999165 
961	 0.125014659262317 
962	 0.126923230282207 
963	 0.127262418122874 
964	 0.128043614847137 
965	 0.131275543331176 
966	 0.132905724333293 
967	 0.132536396506667 
968	 0.130704059164311 
969	 0.130438801736052 
970	 0.131660727072283 
971	 0.130205143991813 
972	 0.129768630802822 
973	 0.132070086454014 
974	 0.134129422675123 
975	 0.134913123126013 
976	 0.13376006321637 
977	 0.132880182632425 
978	 0.132442999927895 
979	 0.131520120325991 
980	 0.133104809002753 
981	 0.136600098856781 
982	 0.136794811494678 
983	 0.134800763031874 
984	 0.13208561222626 
985	 0.132809430061105 
986	 0.135401223665576 
987	 0.137501256055355 
988	 0.13635482798769 
989	 0.133595768018634 
990	 0.133463150125275 
991	 0.134140685805652 
992	 0.135491162422884 
993	 0.139618051616149 
994	 0.138299546662599 
995	 0.129918271340924 
996	 0.13181942040121 
997	 0.13701496416541 
998	 0.137355294680059 
999	 0.13274569472301 
1000	 0.128991013077624 
1001	 0.135928043445297 
1002	 0.137499905913563 
1003	 0.133577200303651 
1004	 0.139035779544621 
1005	 0.139218397641038 
1006	 0.131529906243736 
1007	 0.135312546298618 
1008	 0.137135302459671 
1009	 0.128128619397276 
1010	 0.130963628870731 
1011	 0.139741531631807 
1012	 0.142191378027702 
1013	 0.140455474573547 
1014	 0.137603202531636 
1015	 0.140332249245458 
1016	 0.140390341712458 
1017	 0.137289323781644 
1018	 0.140609076551317 
1019	 0.142422831831375 
1020	 0.138874273595347 
1021	 0.13617069477941 
1022	 0.133052865239388 
1023	 0.128711689756794 
1024	 0.130242789623481 
1025	 0.137346178776511 
1026	 0.147606506104153 
1027	 0.141959756396776 
1028	 0.12654024788025 
1029	 0.133740020690919 
1030	 0.139853021537998 
1031	 0.140419419762071 
1032	 0.157120594159652 
1033	 0.161585248634004 
1034	 0.140260773095302 
1035	 0.127171857584752 
1036	 0.12561545685464 
1037	 0.13356766949835 
1038	 0.133599135910248 
1039	 0.129750421387372 
1040	 0.135212034700061 
1041	 0.144047917681142 
1042	 0.151771035624786 
1043	 0.149328419906855 
1044	 0.144895506287958 
1045	 0.14232227677103 
1046	 0.144226174809748 
1047	 0.146336602997001 
1048	 0.14666944783424 
1049	 0.1514208866652 
1050	 0.15049214440042 
1051	 0.135928845749236 
1052	 0.132786164739957 
1053	 0.141135428849553 
1054	 0.152984905568315 
1055	 0.146966511141135 
1056	 0.131494979331277 
1057	 0.137974786649142 
1058	 0.132311038641327 
1059	 0.117019969363004 
1060	 0.142629784102161 
1061	 0.155217505635177 
1062	 0.13746114830248 
1063	 0.142398883805526 
1064	 0.140028070696081 
1065	 0.113878124987656 
1066	 0.133900051804594 
1067	 0.168103988867721 
1068	 0.172658448862598 
1069	 0.136128721553744 
1070	 9.33543463344889E-02 
1071	 0.117896901210194 
1072	 0.113156940555002 
1073	 8.12336783727651E-02 
1074	 0.096703741571315 
1075	 0.13412232289433 
