Wavelength	A00015.asd
325	 3.80276252202436E-02 
326	 4.20423177086768E-02 
327	 4.19698478780044E-02 
328	 3.81973291232103E-02 
329	 0.035902908460193 
330	 3.66881010888543E-02 
331	 3.63486118891625E-02 
332	 3.86413126849728E-02 
333	 4.65645313354219E-02 
334	 4.54170692613364E-02 
335	 3.84143384396081E-02 
336	 3.78448088073823E-02 
337	 3.89588776939824E-02 
338	 3.98066785072902E-02 
339	 3.78979118694658E-02 
340	 3.63695685178409E-02 
341	 3.75402517570085E-02 
342	 0.036834489388995 
343	 3.53959088157528E-02 
344	 3.67198034609591E-02 
345	 3.74832538842289E-02 
346	 3.71958815254188E-02 
347	 3.76118893951571E-02 
348	 3.82209325942719E-02 
349	 3.86246369489606E-02 
350	 0.038873987090037 
351	 3.87844840130013E-02 
352	 3.80855156363702E-02 
353	 3.71367052063829E-02 
354	 3.61270811984993E-02 
355	 0.034952062026223 
356	 3.52718707698703E-02 
357	 3.76238384404124E-02 
358	 3.82188623756431E-02 
359	 3.79504972559259E-02 
360	 3.89075431189874E-02 
361	 3.78596349481966E-02 
362	 0.035731773410109 
363	 3.81819615765212E-02 
364	 4.00168452518301E-02 
365	 3.87148493167441E-02 
366	 3.71879706967435E-02 
367	 0.03680815605058 
368	 3.89511463079037E-02 
369	 3.87207814717611E-02 
370	 0.036591424674809 
371	 3.83508699932051E-02 
372	 3.89754327638517E-02 
373	 3.64980652512896E-02 
374	 0.036850144282522 
375	 0.038509429763472 
376	 3.85969495329108E-02 
377	 3.82267897408048E-02 
378	 3.76365608243963E-02 
379	 3.68393364580406E-02 
380	 3.62300297414348E-02 
381	 3.60709500363928E-02 
382	 0.036337389571454 
383	 0.03708281179689 
384	 3.83681695893197E-02 
385	 3.76000878309485E-02 
386	 3.58215683322444E-02 
387	 3.81587935213136E-02 
388	 4.03745002149118E-02 
389	 4.03971491625239E-02 
390	 3.83034128056988E-02 
391	 3.66767494686693E-02 
392	 0.038276961267412 
393	 3.84663855633121E-02 
394	 3.71575773895409E-02 
395	 3.68876259750753E-02 
396	 3.73023139186375E-02 
397	 3.81701173455049E-02 
398	 3.91131204265775E-02 
399	 3.95378768687046E-02 
400	 3.89966486815798E-02 
401	 3.83901668776707E-02 
402	 3.80642756259911E-02 
403	 3.83783007652815E-02 
404	 3.86372337404531E-02 
405	 3.85480796057675E-02 
406	 3.82437675361249E-02 
407	 0.038028066061985 
408	 3.82404483481304E-02 
409	 3.80768895872276E-02 
410	 0.037783663793442 
411	 3.86920195635061E-02 
412	 3.91392453935612E-02 
413	 3.85462695285027E-02 
414	 3.86571281124272E-02 
415	 3.89290857385385E-02 
416	 3.84533692601285E-02 
417	 3.86287762106367E-02 
418	 0.039245072783224 
419	 3.85489592276936E-02 
420	 3.82665515019012E-02 
421	 3.91246323657609E-02 
422	 3.91854723620094E-02 
423	 3.87860615180865E-02 
424	 3.87330433843272E-02 
425	 3.86289903106139E-02 
426	 3.84620027787101E-02 
427	 3.84767679226398E-02 
428	 3.85806209761182E-02 
429	 3.86657855324581E-02 
430	 3.83276765163668E-02 
431	 3.81013960422898E-02 
432	 3.89632856257685E-02 
433	 3.93276666770967E-02 
434	 3.90391893913696E-02 
435	 3.92844586686151E-02 
436	 3.93788250412763E-02 
437	 3.89695992400704E-02 
438	 3.92238747519684E-02 
439	 3.98119803226268E-02 
440	 3.98508624420529E-02 
441	 0.039764778277005 
442	 3.96708656498445E-02 
443	 3.95492702708182E-02 
444	 3.94406562603558E-02 
445	 3.93974736670772E-02 
446	 3.97081175613316E-02 
447	 4.00356662393123E-02 
448	 3.94944211814706E-02 
449	 3.92379764714361E-02 
450	 0.039586437140517 
451	 4.00059087976612E-02 
452	 4.02270172547008E-02 
453	 4.00521089936098E-02 
454	 4.02274497101706E-02 
455	 4.06304103816355E-02 
456	 4.05062544126561E-02 
457	 4.02745367768921E-02 
458	 0.040161996088897 
459	 4.04059421288825E-02 
460	 0.040719701383085 
461	 4.07471064071957E-02 
462	 4.09062441309984E-02 
463	 0.041076645132366 
464	 4.05618915607279E-02 
465	 4.02442761612658E-02 
466	 4.05344434759271E-02 
467	 4.07504551497635E-02 
468	 4.08861152786701E-02 
469	 4.10515721630401E-02 
470	 4.11321851362646E-02 
471	 4.10951413722334E-02 
472	 4.09221743279866E-02 
473	 4.07872023911931E-02 
474	 4.08053430390508E-02 
475	 4.09153158119037E-02 
476	 4.10136805712002E-02 
477	 0.040921914774605 
478	 4.10985298669455E-02 
479	 4.15202792612967E-02 
480	 4.15031372607062E-02 
481	 4.14589319123068E-02 
482	 4.17145628197682E-02 
483	 4.18965715698478E-02 
484	 0.041924881951514 
485	 4.17259178981526E-02 
486	 0.041739258494999 
487	 4.20199534771832E-02 
488	 4.18166543853263E-02 
489	 4.17636719648877E-02 
490	 4.24891708234226E-02 
491	 0.042762814014432 
492	 4.25613630863248E-02 
493	 4.24523777705079E-02 
494	 4.26196137467431E-02 
495	 4.30246572774325E-02 
496	 0.0427325680884 
497	 0.042348382660177 
498	 4.27525777658459E-02 
499	 4.34564546063373E-02 
500	 4.40795376182889E-02 
501	 4.37939791911125E-02 
502	 4.35473947150525E-02 
503	 4.39077532008021E-02 
504	 4.44476255892412E-02 
505	 4.48152943071826E-02 
506	 0.044513906407669 
507	 4.45635642931738E-02 
508	 0.04509002601415 
509	 4.53049175671506E-02 
510	 0.04539653156713 
511	 4.55486785190025E-02 
512	 4.59200473332414E-02 
513	 4.63846645362652E-02 
514	 4.65487618215872E-02 
515	 4.69261576826158E-02 
516	 4.75949821432319E-02 
517	 4.78570546139101E-02 
518	 4.82427452140576E-02 
519	 4.93147731363713E-02 
520	 4.97472994449224E-02 
521	 4.96774269881324E-02 
522	 0.050255221350508 
523	 5.07590699290851E-02 
524	 0.050910587515124 
525	 5.10541389499867E-02 
526	 5.14031452789431E-02 
527	 5.21960958111868E-02 
528	 5.29521630401645E-02 
529	 5.34122892737491E-02 
530	 0.053181515598207 
531	 0.053208906463719 
532	 0.054026067037879 
533	 5.42730531707512E-02 
534	 5.41719760781739E-02 
535	 5.45712245067665E-02 
536	 5.48417761418377E-02 
537	 5.48650815723633E-02 
538	 5.49777383925933E-02 
539	 5.52129256850633E-02 
540	 0.055587520573812 
541	 5.61351556485263E-02 
542	 5.67192421931488E-02 
543	 5.70209195281468E-02 
544	 5.72210467987868E-02 
545	 5.73772620096316E-02 
546	 5.73438455697804E-02 
547	 0.057300405820297 
548	 5.74848506730867E-02 
549	 5.78896196862313E-02 
550	 0.058361873840495 
551	 5.84060256455912E-02 
552	 5.84771935039037E-02 
553	 5.88127211586857E-02 
554	 5.87934551695568E-02 
555	 5.86577806284717E-02 
556	 0.059002440964762 
557	 5.93273509923342E-02 
558	 5.94784028421326E-02 
559	 5.95500229231959E-02 
560	 5.95659300708561E-02 
561	 5.95516034395597E-02 
562	 5.95513731382974E-02 
563	 5.95550477888549E-02 
564	 5.95106581215328E-02 
565	 5.94453311439767E-02 
566	 5.93505402809236E-02 
567	 0.059094166384074 
568	 5.88823582102637E-02 
569	 5.89844010282269E-02 
570	 5.89828654111453E-02 
571	 5.87983496637912E-02 
572	 5.85653733203191E-02 
573	 5.82903146745218E-02 
574	 5.80008242260621E-02 
575	 5.78295346572017E-02 
576	 5.77739814628766E-02 
577	 5.77980819120596E-02 
578	 5.77882251148386E-02 
579	 5.77190646149148E-02 
580	 5.77584711202852E-02 
581	 5.75253397888533E-02 
582	 5.67649436552349E-02 
583	 5.66995085377783E-02 
584	 0.057209289790563 
585	 5.74681854924204E-02 
586	 5.72876276986577E-02 
587	 5.67424569330122E-02 
588	 5.71272904375136E-02 
589	 0.057587549932363 
590	 5.68715617552079E-02 
591	 5.64953442526788E-02 
592	 5.66426494408464E-02 
593	 0.056600250137663 
594	 5.66356328191682E-02 
595	 0.056849058638757 
596	 5.68378404082982E-02 
597	 5.66350261708403E-02 
598	 5.63780535252067E-02 
599	 0.05630396529695 
600	 5.64318325266523E-02 
601	 5.64679053668814E-02 
602	 5.63500623582469E-02 
603	 5.60611537197693E-02 
604	 5.59364250451325E-02 
605	 5.60075593142671E-02 
606	 5.62353859307707E-02 
607	 5.62210636950991E-02 
608	 5.58459892530745E-02 
609	 5.55596955573775E-02 
610	 5.54011492946658E-02 
611	 5.53599362388266E-02 
612	 5.54185224471333E-02 
613	 5.54481552779915E-02 
614	 0.055062163827339 
615	 0.054740480684344 
616	 5.47463451930357E-02 
617	 5.45706292072257E-02 
618	 5.44011617667237E-02 
619	 5.47012705321223E-02 
620	 5.47140512210693E-02 
621	 5.43662564034907E-02 
622	 5.44532246295572E-02 
623	 5.44305791107705E-02 
624	 0.053848704004585 
625	 5.37738639134808E-02 
626	 5.40603046921118E-02 
627	 5.37894224177407E-02 
628	 5.35324105032501E-02 
629	 5.35504980071484E-02 
630	 0.054013785566902 
631	 5.44582877247598E-02 
632	 5.43067272111628E-02 
633	 5.39642021824571E-02 
634	 0.053642583567963 
635	 5.36681770651795E-02 
636	 5.36873255882463E-02 
637	 5.35049011845528E-02 
638	 0.053383090562982 
639	 0.053322011299157 
640	 5.32948449996409E-02 
641	 5.28567507333301E-02 
642	 5.20962118738591E-02 
643	 5.20805269695267E-02 
644	 5.18818667187687E-02 
645	 5.07775295341862E-02 
646	 5.09331184707188E-02 
647	 5.18835293328627E-02 
648	 0.05132439949234 
649	 5.08030188407488E-02 
650	 5.08357683903484E-02 
651	 5.07819882253011E-02 
652	 5.05823250652213E-02 
653	 5.02263305623909E-02 
654	 5.00762541890336E-02 
655	 5.01426776206745E-02 
656	 5.01433406789706E-02 
657	 5.00218875419836E-02 
658	 4.97291250640565E-02 
659	 4.90884968531406E-02 
660	 4.85448139821102E-02 
661	 4.88629956060316E-02 
662	 4.87851335246816E-02 
663	 0.048065080794025 
664	 4.73105170056628E-02 
665	 0.046844427650585 
666	 4.68972147641086E-02 
667	 4.70181195057478E-02 
668	 0.047038320553475 
669	 4.67697676932509E-02 
670	 4.65632769469802E-02 
671	 4.65735061307105E-02 
672	 0.046871663938261 
673	 4.69564565873252E-02 
674	 4.62870998921508E-02 
675	 4.61014067745241E-02 
676	 4.64865351342192E-02 
677	 4.67687883138314E-02 
678	 4.70612112723642E-02 
679	 4.73788080635751E-02 
680	 4.75018776879685E-02 
681	 4.76398003602241E-02 
682	 4.81641861199496E-02 
683	 4.85603012710338E-02 
684	 4.88203683776431E-02 
685	 4.95623538996191E-02 
686	 5.03721575791136E-02 
687	 5.08928973267423E-02 
688	 5.16973894520765E-02 
689	 5.27835668408149E-02 
690	 5.40714250030472E-02 
691	 5.53014734630376E-02 
692	 5.65224864193953E-02 
693	 5.83208716515059E-02 
694	 0.060332939924752 
695	 6.20677839332262E-02 
696	 6.37947169215141E-02 
697	 6.55016531005792E-02 
698	 6.69938328024237E-02 
699	 6.88255718027429E-02 
700	 7.11724931718827E-02 
701	 7.33467261638034E-02 
702	 7.53667561890224E-02 
703	 0.07739772404947 
704	 7.90065711682286E-02 
705	 8.03272988291967E-02 
706	 8.20588980594569E-02 
707	 8.38517393567536E-02 
708	 8.54772828818135E-02 
709	 8.71010768262725E-02 
710	 0.088712896590089 
711	 9.02776380634811E-02 
712	 9.16410975861651E-02 
713	 9.27851021820361E-02 
714	 9.38798224141437E-02 
715	 9.50182020627182E-02 
716	 9.63266095605013E-02 
717	 9.73771218779341E-02 
718	 9.83126958745591E-02 
719	 0.099866180189676 
720	 0.100643898348963 
721	 0.100529039166911 
722	 0.101326193160139 
723	 0.102566737183526 
724	 0.103570879784698 
725	 0.104097636066393 
726	 0.104399843100945 
727	 0.105708876054958 
728	 0.10660126747489 
729	 0.106459696886816 
730	 0.106374109338562 
731	 0.106608945486885 
732	 0.107314574664769 
733	 0.107880428556186 
734	 0.108296677070301 
735	 0.109136481091778 
736	 0.109690889319919 
737	 0.109544907445251 
738	 0.109655562254116 
739	 0.110113222337462 
740	 0.110844525903173 
741	 0.111134550051928 
742	 0.110950666243233 
743	 0.111254509239914 
744	 0.111634171967073 
745	 0.111735323732218 
746	 0.111930182421118 
747	 0.112244396683729 
748	 0.112596377422619 
749	 0.112962245214196 
750	 0.113264541812034 
751	 0.113237425885222 
752	 0.113122083266474 
753	 0.11318861900693 
754	 0.113196249291843 
755	 0.113231749778656 
756	 0.113678357742374 
757	 0.114120684640665 
758	 0.114389414250083 
759	 0.114570964201436 
760	 0.114846192112737 
761	 0.115363048251032 
762	 0.115270930346571 
763	 0.114777579887987 
764	 0.114695638920655 
765	 0.114663077723568 
766	 0.114653370376373 
767	 0.115309722219379 
768	 0.116070396870146 
769	 0.116250611623566 
770	 0.116362521083894 
771	 0.116446775089626 
772	 0.116202985346003 
773	 0.115989162027385 
774	 0.116087684648542 
775	 0.116704153847988 
776	 0.117349293414712 
777	 0.117124241988581 
778	 0.116826671607088 
779	 0.116769845982265 
780	 0.117131780104607 
781	 0.117482073022102 
782	 0.117498710760504 
783	 0.117626029652095 
784	 0.117873220016504 
785	 0.118121101636809 
786	 0.118209536097506 
787	 0.118167278930186 
788	 0.118438647739489 
789	 0.118730622220649 
790	 0.118766145880454 
791	 0.118869880189619 
792	 0.119065489274626 
793	 0.119337101756046 
794	 0.119110216989492 
795	 0.118427309589216 
796	 0.118626287446991 
797	 0.119095941414645 
798	 0.119152840184589 
799	 0.119199433572897 
800	 0.119285750519722 
801	 0.119323220950004 
802	 0.119618249419946 
803	 0.120075484747706 
804	 0.119484561986095 
805	 0.118810193810991 
806	 0.119153668855724 
807	 0.119743060628782 
808	 0.120244315490648 
809	 0.120174421712677 
810	 0.120152732829129 
811	 0.120433609342889 
812	 0.120669577185655 
813	 0.120992993037049 
814	 0.12158991665646 
815	 0.12200074827743 
816	 0.122056159444087 
817	 0.12171276016939 
818	 0.121304768589662 
819	 0.121115243077735 
820	 0.121609938375342 
821	 0.122253688820586 
822	 0.122379809029673 
823	 0.122329700820503 
824	 0.122275193326813 
825	 0.122423782879093 
826	 0.122869492079688 
827	 0.123553715909392 
828	 0.123829669716974 
829	 0.123705137676057 
830	 0.123306404593015 
831	 0.123388420745778 
832	 0.123772630625964 
833	 0.123353617750543 
834	 0.123180870012545 
835	 0.123664167889382 
836	 0.12444783642146 
837	 0.124811494981032 
838	 0.124046759276848 
839	 0.123957196638149 
840	 0.124505712069206 
841	 0.124289905775627 
842	 0.12469135018941 
843	 0.125876922672198 
844	 0.125326692078616 
845	 0.124370245648562 
846	 0.12469175826357 
847	 0.125110298092782 
848	 0.125230954014425 
849	 0.124571740808494 
850	 0.12428202929197 
851	 0.124675224671352 
852	 0.124370554817182 
853	 0.12410921778305 
854	 0.124732733574037 
855	 0.125062408833532 
856	 0.125040747554783 
857	 0.125144147084079 
858	 0.125203508750147 
859	 0.125216136571665 
860	 0.125422230352965 
861	 0.125447349019626 
862	 0.124990496871365 
863	 0.125071484590518 
864	 0.125588298564207 
865	 0.125840699997237 
866	 0.126023132888727 
867	 0.126041422975545 
868	 0.125159402352414 
869	 0.124965367594825 
870	 0.12651926262894 
871	 0.126776092949813 
872	 0.126270521229728 
873	 0.127016861047545 
874	 0.127285854629813 
875	 0.126888810724614 
876	 0.127253579423821 
877	 0.12743732491234 
878	 0.126868232082085 
879	 0.126640116754451 
880	 0.127016615473444 
881	 0.128158551937215 
882	 0.128764284357639 
883	 0.128749083730453 
884	 0.129191566810099 
885	 0.13015882612214 
886	 0.131427419800158 
887	 0.13123809689833 
888	 0.130427822718081 
889	 0.130362620319092 
890	 0.129980623070464 
891	 0.129448361669981 
892	 0.129996518494446 
893	 0.130598034265246 
894	 0.130691699147855 
895	 0.130128457792796 
896	 0.129746127223509 
897	 0.130456804450429 
898	 0.130217398074957 
899	 0.129557167732809 
900	 0.130952962813665 
901	 0.131460446134826 
902	 0.130614154103058 
903	 0.130948310573843 
904	 0.13143911372968 
905	 0.131362121118548 
906	 0.13232490196274 
907	 0.133590503092942 
908	 0.133509692485673 
909	 0.133251092470956 
910	 0.132898599318809 
911	 0.131408080293349 
912	 0.130255449674153 
913	 0.130480430051344 
914	 0.13272300555287 
915	 0.134574648250797 
916	 0.133234210001151 
917	 0.131605376789256 
918	 0.130885261961333 
919	 0.132430111029281 
920	 0.13378866675672 
921	 0.134273528525613 
922	 0.135468616483962 
923	 0.136993982088571 
924	 0.138256620747108 
925	 0.137412851658442 
926	 0.135249160312275 
927	 0.134194707769596 
928	 0.135433432140751 
929	 0.138333459628142 
930	 0.137104298484166 
931	 0.133897394563682 
932	 0.130841842723728 
933	 0.128911013929011 
934	 0.129760880993517 
935	 0.134667143798399 
936	 0.136792942521746 
937	 0.136088005190404 
938	 0.137297078871256 
939	 0.136232354939446 
940	 0.133688022835853 
941	 0.139342322672565 
942	 0.140425285365506 
943	 0.129046784928601 
944	 0.123098497947138 
945	 0.124130465299371 
946	 0.130208133259001 
947	 0.132708166684984 
948	 0.130997411751663 
949	 0.131977684181138 
950	 0.133291583983925 
951	 0.133888425054802 
952	 0.133340452299751 
953	 0.133000882488301 
954	 0.133878082703259 
955	 0.132468998277133 
956	 0.130520094140127 
957	 0.132058146884395 
958	 0.132011349468808 
959	 0.129637632824893 
960	 0.126368191058537 
961	 0.128241530849248 
962	 0.135273424833319 
963	 0.131620824321874 
964	 0.125973601176503 
965	 0.127551036794906 
966	 0.129277023735121 
967	 0.130778406775033 
968	 0.133932353709214 
969	 0.133866337126428 
970	 0.130445601123615 
971	 0.127996868678915 
972	 0.127910696685632 
973	 0.130443616940555 
974	 0.131871077677239 
975	 0.131938166956954 
976	 0.130935065516153 
977	 0.130482686926706 
978	 0.130848703408662 
979	 0.131717938514495 
980	 0.133105219850244 
981	 0.133864135333429 
982	 0.129657119223407 
983	 0.127455393276043 
984	 0.130301380249962 
985	 0.131695021638742 
986	 0.131811543969848 
987	 0.131501234022225 
988	 0.130280904874267 
989	 0.130563328546874 
990	 0.137336756212047 
991	 0.139158296183982 
992	 0.135174195057392 
993	 0.1358295245106 
994	 0.134165136972941 
995	 0.128591731990221 
996	 0.131267626993259 
997	 0.136214382590036 
998	 0.136920703386009 
999	 0.135621511070712 
1000	 0.134407085687774 
1001	 0.136319504481988 
1002	 0.134584062677457 
1003	 0.131765599968179 
1004	 0.142345385800805 
1005	 0.147750572378212 
1006	 0.142521150647194 
1007	 0.142942729057561 
1008	 0.141397276912655 
1009	 0.132799907505868 
1010	 0.12982812971497 
1011	 0.133729821221197 
1012	 0.142926541023786 
1013	 0.14428530742584 
1014	 0.139680291731784 
1015	 0.141388601245301 
1016	 0.143970108673443 
1017	 0.143738503074838 
1018	 0.131479339794857 
1019	 0.1267117697099 
1020	 0.137556981222173 
1021	 0.141125638410868 
1022	 0.140934436915669 
1023	 0.141875307758603 
1024	 0.138157600621681 
1025	 0.135431636487398 
1026	 0.143889617356873 
1027	 0.143191579228518 
1028	 0.134491207108038 
1029	 0.137240252723226 
1030	 0.135855961107238 
1031	 0.130596010996081 
1032	 0.147739412573421 
1033	 0.15789919080735 
1034	 0.144812059299132 
1035	 0.130806126410439 
1036	 0.125781408349389 
1037	 0.135649083053836 
1038	 0.135770967057716 
1039	 0.129257856911793 
1040	 0.130044472282517 
1041	 0.136078688879379 
1042	 0.144533533413355 
1043	 0.148993980083174 
1044	 0.143723521769379 
1045	 0.131708054482853 
1046	 0.136973310997423 
1047	 0.138225937575792 
1048	 0.126601065579397 
1049	 0.130968775920315 
1050	 0.140862739792592 
1051	 0.144096716065889 
1052	 0.140745817511303 
1053	 0.139670839076237 
1054	 0.15277474758388 
1055	 0.141535761404098 
1056	 0.118394199766009 
1057	 0.130544808308188 
1058	 0.141856148331611 
1059	 0.14122098345784 
1060	 0.133185097920106 
1061	 0.120392828308372 
1062	 0.11068891317713 
1063	 0.132121868433381 
1064	 0.139905513792817 
1065	 0.107615311995134 
1066	 0.126047460243366 
1067	 0.157170286847307 
1068	 0.151291767238472 
1069	 0.132378159354482 
1070	 0.114723100958234 
1071	 0.122007074260599 
1072	 0.121695997901803 
1073	 0.11442786993059 
1074	 0.12403090968268 
1075	 0.135588611954911 
