Wavelength	A00003.asd
325	 4.83026789357359E-02 
326	 4.40593894867124E-02 
327	 3.94397256165889E-02 
328	 4.00432069476628E-02 
329	 4.16965884469112E-02 
330	 4.26092724365614E-02 
331	 4.27529793023387E-02 
332	 4.24534831948337E-02 
333	 4.21399542007389E-02 
334	 4.48757813159067E-02 
335	 4.69449324770542E-02 
336	 3.79779671435886E-02 
337	 3.33268015439636E-02 
338	 3.63142774181789E-02 
339	 3.70635363424277E-02 
340	 3.69999649644584E-02 
341	 3.76289970109232E-02 
342	 3.80015794286265E-02 
343	 3.83056213611224E-02 
344	 3.89700705754448E-02 
345	 4.10051642567062E-02 
346	 4.34894915847193E-02 
347	 4.20966700771911E-02 
348	 4.08731633828718E-02 
349	 4.23241772292413E-02 
350	 4.32929619714056E-02 
351	 4.29183452491391E-02 
352	 4.05458647390186E-02 
353	 3.77795689373552E-02 
354	 3.59145240696358E-02 
355	 3.74645691021243E-02 
356	 3.95929732549216E-02 
357	 4.03765519302499E-02 
358	 3.95776223060256E-02 
359	 3.85348159733103E-02 
360	 3.92595780861297E-02 
361	 0.038891212238914 
362	 3.76369981939413E-02 
363	 3.85346353829581E-02 
364	 3.95005557961683E-02 
365	 3.94076546071206E-02 
366	 3.86379001148626E-02 
367	 3.85089545870881E-02 
368	 4.06940475624626E-02 
369	 3.99880573539543E-02 
370	 3.70261982951985E-02 
371	 3.80083954765714E-02 
372	 3.91854342825341E-02 
373	 3.88597302008726E-02 
374	 0.039796276081594 
375	 4.12269317719847E-02 
376	 4.17865731261953E-02 
377	 0.039578372271945 
378	 3.59657394901312E-02 
379	 3.67188357796104E-02 
380	 3.80115950768033E-02 
381	 3.80074330694713E-02 
382	 3.83385188075297E-02 
383	 3.91252171418356E-02 
384	 4.03332855284191E-02 
385	 3.89345182477548E-02 
386	 3.62502345722746E-02 
387	 0.038525373615407 
388	 4.04937677992787E-02 
389	 3.98669438944706E-02 
390	 3.84199091334384E-02 
391	 3.75287952700872E-02 
392	 3.84766188234645E-02 
393	 3.88795311480225E-02 
394	 3.87698208315997E-02 
395	 3.98373587267135E-02 
396	 4.05794284788226E-02 
397	 4.04659393195597E-02 
398	 4.03981689489929E-02 
399	 4.01082212900609E-02 
400	 3.92795292498291E-02 
401	 3.89522795477738E-02 
402	 3.90175629457907E-02 
403	 3.86906378939496E-02 
404	 3.85288247220869E-02 
405	 0.038681828346098 
406	 3.85977132696808E-02 
407	 3.85985956863571E-02 
408	 3.91191344348092E-02 
409	 3.93473153052019E-02 
410	 3.92159692060623E-02 
411	 3.90895522637243E-02 
412	 3.90241950269676E-02 
413	 3.90308113251298E-02 
414	 3.89655503262208E-02 
415	 3.87373519265037E-02 
416	 3.82446834375853E-02 
417	 3.86632865235488E-02 
418	 3.97129456899412E-02 
419	 3.96937750783605E-02 
420	 3.95055828066972E-02 
421	 3.96273869304032E-02 
422	 3.98221827969167E-02 
423	 3.99150932604643E-02 
424	 3.96939296784635E-02 
425	 3.93722201822878E-02 
426	 3.91086791776079E-02 
427	 3.92172522678179E-02 
428	 3.93863840225466E-02 
429	 3.93918440422387E-02 
430	 3.91557283011155E-02 
431	 3.90391150856823E-02 
432	 3.96554362779831E-02 
433	 0.039999186919972 
434	 3.98869402229499E-02 
435	 3.97568376840987E-02 
436	 3.96764246015799E-02 
437	 3.97229186893406E-02 
438	 4.02522966521011E-02 
439	 4.07268302333415E-02 
440	 4.00578612568961E-02 
441	 3.96981527450171E-02 
442	 3.99688321171551E-02 
443	 4.02136018981155E-02 
444	 4.01941691839484E-02 
445	 3.98113176309099E-02 
446	 4.00309500586322E-02 
447	 0.040585333393538 
448	 4.05286652805656E-02 
449	 4.04049922747173E-02 
450	 4.03918085385866E-02 
451	 4.04776465591175E-02 
452	 4.04957984514953E-02 
453	 4.03257881006401E-02 
454	 4.09322335550261E-02 
455	 4.17979305828756E-02 
456	 4.09354118405822E-02 
457	 0.040365032527896 
458	 4.07920667654067E-02 
459	 4.09745137478217E-02 
460	 4.10909525087946E-02 
461	 4.14575618728081E-02 
462	 4.16456836470158E-02 
463	 4.14918056018059E-02 
464	 4.06811547091942E-02 
465	 4.05267798380784E-02 
466	 4.15277109024727E-02 
467	 4.18251482769708E-02 
468	 4.17064656940781E-02 
469	 4.19185438273589E-02 
470	 4.19209321790303E-02 
471	 4.16976924695343E-02 
472	 4.16428841393506E-02 
473	 4.15803503634733E-02 
474	 4.14225451270422E-02 
475	 4.14099965885946E-02 
476	 4.14425958273947E-02 
477	 4.12694338681066E-02 
478	 4.13843798755758E-02 
479	 4.18396502929433E-02 
480	 4.22355802187931E-02 
481	 4.25279215751347E-02 
482	 4.26728347756886E-02 
483	 4.24808413676743E-02 
484	 4.21928452986094E-02 
485	 4.24415657568601E-02 
486	 4.26743308362626E-02 
487	 4.26820238668991E-02 
488	 4.24710056790102E-02 
489	 0.042473711123916 
490	 4.30679594143938E-02 
491	 4.31361218294364E-02 
492	 4.27404314234256E-02 
493	 4.25866190470531E-02 
494	 4.28350788939485E-02 
495	 4.34373295876736E-02 
496	 4.34815081286615E-02 
497	 4.33673451257961E-02 
498	 4.37223963056468E-02 
499	 4.40800675838342E-02 
500	 4.43209490935362E-02 
501	 4.44488422266811E-02 
502	 4.45276858952741E-02 
503	 0.044634826875003 
504	 4.50249960091823E-02 
505	 4.54617633070628E-02 
506	 0.045511959143049 
507	 4.55455628323149E-02 
508	 4.56300404844059E-02 
509	 4.55398770694315E-02 
510	 4.55903362271012E-02 
511	 4.60297395714475E-02 
512	 0.046705099912259 
513	 4.73778640721727E-02 
514	 4.76007082828559E-02 
515	 4.76856143969321E-02 
516	 4.78239939826244E-02 
517	 4.83091603682397E-02 
518	 0.049047299004096 
519	 0.049873112737148 
520	 5.02778378186269E-02 
521	 5.03940774715562E-02 
522	 5.08594916924237E-02 
523	 5.14901157534651E-02 
524	 5.21462135216336E-02 
525	 5.24115949684607E-02 
526	 5.25771480595249E-02 
527	 5.31070232990826E-02 
528	 5.37281593313163E-02 
529	 5.42427883238985E-02 
530	 0.054223403039123 
531	 5.43610743078828E-02 
532	 5.50149987066802E-02 
533	 5.48991210105036E-02 
534	 5.45335207575783E-02 
535	 5.53306201963898E-02 
536	 5.58393230267202E-02 
537	 5.57436908122933E-02 
538	 5.58334155233344E-02 
539	 0.056076234621176 
540	 5.64153737078845E-02 
541	 5.71052461180936E-02 
542	 5.78289077515979E-02 
543	 5.76542695529258E-02 
544	 5.75072271007622E-02 
545	 5.77554118333424E-02 
546	 5.79925462017947E-02 
547	 5.82310914429283E-02 
548	 5.85297056412628E-02 
549	 5.88417594874848E-02 
550	 0.059073032429636 
551	 5.88900826376659E-02 
552	 5.90599454701771E-02 
553	 5.99097620851563E-02 
554	 5.97684754642532E-02 
555	 0.059211748550614 
556	 5.97398040101059E-02 
557	 0.060302301177919 
558	 6.05509477271067E-02 
559	 6.05178945144163E-02 
560	 6.03410221023523E-02 
561	 6.01779404528081E-02 
562	 6.03398683491743E-02 
563	 6.06407613337838E-02 
564	 6.04235682559981E-02 
565	 6.02794809739795E-02 
566	 6.03625522980806E-02 
567	 6.00412592086431E-02 
568	 5.96814127312934E-02 
569	 5.98096127361422E-02 
570	 6.00260049416575E-02 
571	 6.00734017959474E-02 
572	 5.94621033783942E-02 
573	 5.88940408074769E-02 
574	 5.87781437240282E-02 
575	 5.85834826723504E-02 
576	 5.84322823097787E-02 
577	 5.86902201881995E-02 
578	 5.88078979528739E-02 
579	 5.86521365138525E-02 
580	 5.85367825452465E-02 
581	 5.83330824884879E-02 
582	 5.79419784214193E-02 
583	 5.76621060001856E-02 
584	 5.75598450941695E-02 
585	 5.76416234505345E-02 
586	 0.057802791369841 
587	 5.79507589996065E-02 
588	 5.79139018757153E-02 
589	 5.77384931048436E-02 
590	 5.75179369574104E-02 
591	 0.057590543032058 
592	 5.78305442713752E-02 
593	 0.057513121248786 
594	 5.73645744702913E-02 
595	 5.77287378252506E-02 
596	 5.77532336868542E-02 
597	 0.057423909158625 
598	 0.056886719350744 
599	 5.67412675975413E-02 
600	 5.70297983311867E-02 
601	 5.69399573378467E-02 
602	 5.68374152200738E-02 
603	 5.70397141500463E-02 
604	 5.70255902489337E-02 
605	 5.68277602047191E-02 
606	 5.67494707910729E-02 
607	 5.67496713166059E-02 
608	 5.68160731569676E-02 
609	 5.69343557718918E-02 
610	 5.69117869294313E-02 
611	 5.65225600913477E-02 
612	 5.62101891940581E-02 
613	 5.60321470763256E-02 
614	 5.57303625149587E-02 
615	 5.55477592863959E-02 
616	 5.56139413219099E-02 
617	 5.57133514812476E-02 
618	 5.57239924700248E-02 
619	 5.55161255519718E-02 
620	 5.50895226478633E-02 
621	 5.45706465211749E-02 
622	 5.44388441444568E-02 
623	 5.44780797994981E-02 
624	 5.44860026145691E-02 
625	 5.46961319514495E-02 
626	 5.49248870529141E-02 
627	 5.46167009441528E-02 
628	 5.42839289143673E-02 
629	 5.42011099923035E-02 
630	 5.46385466762232E-02 
631	 5.50312135520655E-02 
632	 5.46714198923593E-02 
633	 5.45069616705391E-02 
634	 0.054629203079062 
635	 0.054545352173097 
636	 5.44131596848403E-02 
637	 5.43102455813587E-02 
638	 0.054093654613545 
639	 0.053873140340779 
640	 5.38965172611233E-02 
641	 5.35817642528227E-02 
642	 5.29881044468354E-02 
643	 5.32764359196123E-02 
644	 5.32643483638736E-02 
645	 5.20000194761473E-02 
646	 5.16123499016941E-02 
647	 5.20316728078147E-02 
648	 5.19954721688617E-02 
649	 5.18740375370059E-02 
650	 5.17640316393831E-02 
651	 5.16364371469516E-02 
652	 5.14312424511702E-02 
653	 5.10770687226578E-02 
654	 5.07826882397499E-02 
655	 5.06228862546654E-02 
656	 5.07172333505035E-02 
657	 5.06265666344983E-02 
658	 5.01440395894411E-02 
659	 4.97352851473646E-02 
660	 4.94931655586221E-02 
661	 0.049501190948655 
662	 4.92591728618359E-02 
663	 4.86720302907333E-02 
664	 4.79743262054812E-02 
665	 0.047627898187956 
666	 4.79418825936139E-02 
667	 0.04787238665005 
668	 4.74667206220191E-02 
669	 4.72934819640486E-02 
670	 4.73197748306628E-02 
671	 4.74549199294679E-02 
672	 4.71446862523583E-02 
673	 4.67557602784075E-02 
674	 4.67552371568794E-02 
675	 4.71066960663107E-02 
676	 4.76455836527948E-02 
677	 4.80380406875208E-02 
678	 4.77878196825655E-02 
679	 4.68566271335105E-02 
680	 4.70471328924142E-02 
681	 4.79414290393665E-02 
682	 4.85303857784536E-02 
683	 4.89245384524536E-02 
684	 4.92634596050193E-02 
685	 5.01596542716139E-02 
686	 5.11497292042738E-02 
687	 5.18173387183007E-02 
688	 5.26417754217631E-02 
689	 5.36887025154745E-02 
690	 5.50925892398273E-02 
691	 5.62793571783849E-02 
692	 5.72660353793993E-02 
693	 5.89605518268795E-02 
694	 6.10405053285328E-02 
695	 6.30183929948838E-02 
696	 6.48351420587723E-02 
697	 6.64924339185898E-02 
698	 0.068015002573848 
699	 6.99950675484711E-02 
700	 7.25840488673632E-02 
701	 7.47896450167637E-02 
702	 0.076626293391531 
703	 7.83037588542592E-02 
704	 8.01372289805981E-02 
705	 8.21277633244525E-02 
706	 8.38877467402636E-02 
707	 8.54230579674833E-02 
708	 8.67692458762518E-02 
709	 8.82309290509192E-02 
710	 8.98421373513318E-02 
711	 9.15979518345775E-02 
712	 9.30721432692973E-02 
713	 9.42128732348533E-02 
714	 9.55325428527758E-02 
715	 9.67923278841065E-02 
716	 9.78337614143051E-02 
717	 9.91239375424625E-02 
718	 0.100620693613974 
719	 0.101662183842876 
720	 0.102416320212398 
721	 0.103049234930026 
722	 0.104048574914251 
723	 0.105153935888959 
724	 0.105954179494518 
725	 0.106204576860488 
726	 0.106225594235358 
727	 0.10732162424561 
728	 0.10803795497191 
729	 0.1077807275974 
730	 0.107852441681218 
731	 0.108399621039069 
732	 0.109383777528451 
733	 0.110073980239534 
734	 0.110408868624339 
735	 0.110801694139184 
736	 0.111288717639107 
737	 0.111847189316778 
738	 0.112150768076733 
739	 0.1123081888409 
740	 0.112613331147412 
741	 0.112824887429857 
742	 0.112905865144847 
743	 0.11296069435547 
744	 0.113187076067585 
745	 0.113722846555821 
746	 0.11417349200619 
747	 0.114486799341758 
748	 0.114709489791798 
749	 0.115127484044371 
750	 0.115647020091832 
751	 0.115154777465187 
752	 0.114597889142954 
753	 0.115024526183107 
754	 0.115473934690389 
755	 0.115772609291769 
756	 0.116024578324199 
757	 0.116304045603932 
758	 0.116687767174219 
759	 0.117254859422019 
760	 0.118079718360116 
761	 0.118401778803093 
762	 0.118106465310462 
763	 0.117545349081966 
764	 0.117140936096575 
765	 0.116938675000633 
766	 0.11698746160223 
767	 0.117567956550709 
768	 0.118105437634638 
769	 0.117897963066998 
770	 0.118049456237696 
771	 0.118558345792981 
772	 0.118362420943174 
773	 0.118252804436803 
774	 0.118713804849894 
775	 0.119064698552384 
776	 0.119177425111517 
777	 0.119007477512633 
778	 0.118825739177037 
779	 0.118792406882384 
780	 0.119087711187881 
781	 0.119477108044749 
782	 0.1197583568258 
783	 0.119896497232912 
784	 0.120062642777398 
785	 0.120716324817088 
786	 0.120649091523115 
787	 0.119854708572186 
788	 0.120391186998802 
789	 0.121131967223624 
790	 0.120987769291811 
791	 0.121090532910453 
792	 0.121453342686155 
793	 0.121696066464203 
794	 0.121368447233103 
795	 0.120585946185958 
796	 0.120842642116507 
797	 0.121425548894034 
798	 0.121522894117694 
799	 0.121243497373871 
800	 0.120922695692827 
801	 0.121460158154088 
802	 0.121863364972619 
803	 0.121763836707676 
804	 0.121498652305236 
805	 0.121368881837001 
806	 0.121660999732983 
807	 0.12216997064528 
808	 0.122707375796789 
809	 0.12295394292661 
810	 0.122821371064537 
811	 0.122447420972048 
812	 0.12296561333515 
813	 0.123769052047102 
814	 0.123927294008122 
815	 0.124300028603096 
816	 0.124788107162107 
817	 0.124551337221938 
818	 0.12385296066655 
819	 0.123138352207341 
820	 0.124039559844839 
821	 0.125004308942733 
822	 0.124123081622435 
823	 0.124301119230815 
824	 0.125416001420221 
825	 0.125206304867654 
826	 0.125206234936299 
827	 0.125907595250434 
828	 0.12621539833979 
829	 0.126062434509775 
830	 0.125530575138501 
831	 0.125535058969686 
832	 0.125994207821997 
833	 0.125967429581476 
834	 0.126189907320205 
835	 0.12681665186411 
836	 0.127009759259451 
837	 0.126665045706918 
838	 0.125800852035799 
839	 0.125833770585341 
840	 0.126687118766005 
841	 0.127239496846289 
842	 0.127563502121927 
843	 0.127599275866108 
844	 0.127079246933805 
845	 0.126782344562807 
846	 0.127547234576811 
847	 0.128243213021957 
848	 0.128427592153671 
849	 0.127505670531534 
850	 0.127189231251899 
851	 0.127905403502154 
852	 0.12739941192544 
853	 0.126662178645357 
854	 0.126920701987096 
855	 0.127568199763177 
856	 0.128153110231485 
857	 0.127807918496599 
858	 0.127923344446951 
859	 0.128672907623267 
860	 0.128290467914542 
861	 0.127804016282545 
862	 0.128190831927781 
863	 0.127702203697491 
864	 0.127066831527641 
865	 0.128825649971623 
866	 0.129822468463825 
867	 0.129221290228373 
868	 0.128654410076689 
869	 0.128462994148813 
870	 0.128841002691846 
871	 0.129374808351192 
872	 0.12962300517075 
873	 0.128821326293464 
874	 0.129221685754609 
875	 0.130826845360368 
876	 0.130636915650067 
877	 0.130216438722349 
878	 0.130630373675242 
879	 0.130704338443281 
880	 0.130546661925231 
881	 0.130553304035758 
882	 0.131132638767984 
883	 0.132121987852632 
884	 0.132608643633232 
885	 0.132690256586642 
886	 0.132432077423818 
887	 0.131825562423125 
888	 0.131619103947449 
889	 0.132726966065754 
890	 0.133118571774019 
891	 0.132809254871556 
892	 0.13354780075914 
893	 0.134061320233695 
894	 0.133828981511163 
895	 0.133708461962137 
896	 0.133178341790179 
897	 0.131743929600981 
898	 0.132268571436979 
899	 0.134458968390955 
900	 0.136335187191374 
901	 0.135096864728371 
902	 0.131511586351288 
903	 0.133613265542325 
904	 0.135788135324661 
905	 0.133885418798924 
906	 0.133873625522607 
907	 0.135286422368108 
908	 0.135840556018105 
909	 0.134719609800273 
910	 0.132787125307614 
911	 0.134307724958062 
912	 0.136619122490033 
913	 0.13785228076998 
914	 0.137224575763589 
915	 0.13592419467693 
916	 0.135526646696054 
917	 0.136276894576621 
918	 0.137161050919739 
919	 0.135100177826212 
920	 0.134233560993678 
921	 0.135660154991332 
922	 0.136681119249704 
923	 0.137814306538857 
924	 0.139500543219817 
925	 0.140238812009202 
926	 0.139944962115862 
927	 0.138958800249535 
928	 0.139296174745693 
929	 0.141002496879683 
930	 0.139925079855968 
931	 0.138638614690633 
932	 0.139009431986532 
933	 0.137431410319871 
934	 0.136182524160105 
935	 0.139021685551463 
936	 0.13887282579669 
937	 0.137461665639244 
938	 0.143893287805199 
939	 0.147271143572598 
940	 0.14481803567705 
941	 0.141450984898546 
942	 0.136748001254936 
943	 0.131049319806411 
944	 0.130436986432526 
945	 0.133507085238502 
946	 0.136652154249764 
947	 0.135141878969654 
948	 0.13020485918913 
949	 0.129011070937803 
950	 0.136058087848505 
951	 0.148921716005258 
952	 0.146389988536181 
953	 0.138101954909923 
954	 0.134596004388612 
955	 0.13768616908318 
956	 0.142793312087994 
957	 0.141518897962106 
958	 0.136629304716271 
959	 0.132349184668632 
960	 0.140198165607542 
961	 0.145968634680274 
962	 0.143050280324384 
963	 0.135750129366964 
964	 0.129181367201524 
965	 0.128025200133273 
966	 0.134351809660876 
967	 0.141509104855779 
968	 0.13602987875056 
969	 0.135322485346796 
970	 0.140487863479879 
971	 0.136750593697781 
972	 0.132588451569531 
973	 0.133440425910869 
974	 0.14133284262964 
975	 0.147530166846957 
976	 0.142785146640544 
977	 0.136749711625061 
978	 0.134064788575654 
979	 0.14031695562897 
980	 0.14228659307676 
981	 0.138510023778371 
982	 0.140088191920453 
983	 0.139841548307197 
984	 0.135217903183405 
985	 0.135820112953972 
986	 0.137698247541767 
987	 0.13611216732894 
988	 0.13759943203653 
989	 0.140586384426292 
990	 0.139744613325417 
991	 0.139461579774763 
992	 0.140260116322909 
993	 0.139705576512955 
994	 0.137287713305289 
995	 0.133913148664703 
996	 0.136679105752902 
997	 0.139877163625265 
998	 0.137808026280356 
999	 0.134045626549949 
1000	 0.133290055769361 
1001	 0.142186902779373 
1002	 0.147053442769102 
1003	 0.145298069347109 
1004	 0.141861174441682 
1005	 0.139790114016769 
1006	 0.140206738606112 
1007	 0.139732881066547 
1008	 0.139032659086368 
1009	 0.138670848331481 
1010	 0.137615857046735 
1011	 0.137946260199248 
1012	 0.142440245445809 
1013	 0.149291540765475 
1014	 0.153856912036505 
1015	 0.146710173505816 
1016	 0.143944772423262 
1017	 0.147313398667873 
1018	 0.1396457717791 
1019	 0.135948675162595 
1020	 0.143052085958559 
1021	 0.148101932518877 
1022	 0.147058011107922 
1023	 0.138745473181382 
1024	 0.144864071864502 
1025	 0.154135584568905 
1026	 0.142616670615372 
1027	 0.137613251102841 
1028	 0.13952514923165 
1029	 0.126212409943489 
1030	 0.124153272155119 
1031	 0.140848217068089 
1032	 0.165255515450574 
1033	 0.172640449326862 
1034	 0.153041123728901 
1035	 0.148116283244209 
1036	 0.150068206705081 
1037	 0.146026128336305 
1038	 0.138703382894992 
1039	 0.133604389617318 
1040	 0.139770305455816 
1041	 0.147654286374793 
1042	 0.154950419530951 
1043	 0.163927445253655 
1044	 0.161493853963513 
1045	 0.147059458693213 
1046	 0.139311295637155 
1047	 0.13905534568813 
1048	 0.146105785987372 
1049	 0.158235435654746 
1050	 0.165336067244789 
1051	 0.160383702085094 
1052	 0.16737700915222 
1053	 0.17162543201817 
1054	 0.147807979032994 
1055	 0.133883453591278 
1056	 0.13795221531163 
1057	 0.157408319295063 
1058	 0.170597393467051 
1059	 0.168918740050582 
1060	 0.154685645820789 
1061	 0.143360741196901 
1062	 0.140808371473461 
1063	 0.129419919675642 
1064	 0.125401538206528 
1065	 0.139412764999348 
1066	 0.143689160378681 
1067	 0.144891334858249 
1068	 0.153321777962872 
1069	 0.164627346604316 
1070	 0.165713944641548 
1071	 0.136064695357078 
1072	 0.109303520700923 
1073	 0.100039162625121 
1074	 0.137679542634224 
1075	 0.172197285851539 
