Wavelength	A00019.asd
325	 3.63508977398229E-02 
326	 3.84348015400088E-02 
327	 4.36436457649028E-02 
328	 4.18785874573284E-02 
329	 4.18992402382253E-02 
330	 4.54077292419108E-02 
331	 4.38947293833809E-02 
332	 4.08955958229349E-02 
333	 4.02418942424338E-02 
334	 4.02847647096149E-02 
335	 4.00065790949259E-02 
336	 0.03743938151553 
337	 3.61257179007241E-02 
338	 3.70271168646933E-02 
339	 0.038802862365018 
340	 3.99469243984917E-02 
341	 3.93303747441101E-02 
342	 0.037343384982157 
343	 3.50091870469941E-02 
344	 3.36732167191699E-02 
345	 3.48621086070166E-02 
346	 3.78039702355864E-02 
347	 3.83874001772529E-02 
348	 3.79827153586378E-02 
349	 3.77674532352043E-02 
350	 3.87318341668672E-02 
351	 0.040353054094762 
352	 0.041784739251809 
353	 4.08002424426368E-02 
354	 0.038215072351465 
355	 3.87570533107338E-02 
356	 4.02733746309462E-02 
357	 4.10935294683609E-02 
358	 0.039354946226104 
359	 3.72490590926687E-02 
360	 0.038282724555449 
361	 3.87820304304186E-02 
362	 3.83374089524133E-02 
363	 3.87076478439578E-02 
364	 3.93733133968665E-02 
365	 3.97774033901558E-02 
366	 3.81241170856217E-02 
367	 3.65667448964747E-02 
368	 3.81259341588697E-02 
369	 3.90496978868903E-02 
370	 3.87601245007293E-02 
371	 0.038458681553151 
372	 3.79729143225342E-02 
373	 3.75297465102239E-02 
374	 3.91347650387722E-02 
375	 4.07705433805088E-02 
376	 3.95488285025596E-02 
377	 3.78869395193809E-02 
378	 3.66266979503431E-02 
379	 3.62636214873486E-02 
380	 3.65117725204217E-02 
381	 3.71578212368686E-02 
382	 3.81327188161284E-02 
383	 3.87936337988708E-02 
384	 3.83761090698105E-02 
385	 3.71822756029625E-02 
386	 3.64067212544376E-02 
387	 3.93343416248784E-02 
388	 4.13106810936226E-02 
389	 4.04093255599842E-02 
390	 0.039176489496962 
391	 3.79507507274595E-02 
392	 3.68210638015364E-02 
393	 3.65411562986609E-02 
394	 3.73349715901242E-02 
395	 3.94990405199609E-02 
396	 4.08146477676836E-02 
397	 4.04803999172602E-02 
398	 3.99633039821677E-02 
399	 3.94058688864471E-02 
400	 3.87935974493824E-02 
401	 3.82503305953131E-02 
402	 0.037992897621646 
403	 3.85758474517587E-02 
404	 3.88094268780325E-02 
405	 3.83355044221853E-02 
406	 3.82067069612653E-02 
407	 3.83521266813373E-02 
408	 3.85623098079873E-02 
409	 3.88043280610818E-02 
410	 3.89560105216388E-02 
411	 3.87378967477911E-02 
412	 3.85384817088557E-02 
413	 3.85326874025978E-02 
414	 3.85446787596835E-02 
415	 3.84786826186116E-02 
416	 3.82356363934388E-02 
417	 3.83460295113403E-02 
418	 3.87011233723189E-02 
419	 3.85389857937423E-02 
420	 3.85269982977835E-02 
421	 3.89223089994166E-02 
422	 3.88603139124816E-02 
423	 3.85149695621035E-02 
424	 3.82727143001836E-02 
425	 3.81171371518394E-02 
426	 3.80862104939224E-02 
427	 3.82449784805498E-02 
428	 3.85469078083434E-02 
429	 3.88843401873781E-02 
430	 3.86809487977233E-02 
431	 3.84427734277424E-02 
432	 3.91346690981561E-02 
433	 3.94786400263686E-02 
434	 3.93221330631692E-02 
435	 3.94881378590719E-02 
436	 3.96065582289854E-02 
437	 3.94680290016296E-02 
438	 3.95561955906293E-02 
439	 3.97064803364695E-02 
440	 3.94824548982622E-02 
441	 3.93816955836532E-02 
442	 3.94723748609225E-02 
443	 3.93268899408514E-02 
444	 3.93171817961606E-02 
445	 3.96981658335541E-02 
446	 3.96981182952324E-02 
447	 3.95045839258628E-02 
448	 3.98339623943463E-02 
449	 4.00991681899164E-02 
450	 4.01313132325664E-02 
451	 4.01510508660716E-02 
452	 0.040107911926844 
453	 3.99647267628381E-02 
454	 0.040168719919016 
455	 4.05492014707515E-02 
456	 4.03722071750954E-02 
457	 4.03121783284951E-02 
458	 4.05444043346191E-02 
459	 4.03300533883094E-02 
460	 4.01805896078894E-02 
461	 0.040744588630056 
462	 4.13017198164184E-02 
463	 4.15034040671145E-02 
464	 4.07781567872447E-02 
465	 4.04419093761318E-02 
466	 4.10803761919153E-02 
467	 4.14063803540449E-02 
468	 4.15119194413488E-02 
469	 0.041758927967803 
470	 4.16912730839973E-02 
471	 4.13534320812745E-02 
472	 4.12634015811809E-02 
473	 4.13638821791422E-02 
474	 0.041547712483076 
475	 4.12118386679218E-02 
476	 4.08027253029152E-02 
477	 4.12404991951284E-02 
478	 4.16073685543078E-02 
479	 4.16596912952837E-02 
480	 0.041596914831298 
481	 4.16484734248174E-02 
482	 4.19654175260621E-02 
483	 4.20848574990758E-02 
484	 4.20141363812259E-02 
485	 4.19501329106919E-02 
486	 4.20195944034219E-02 
487	 4.21757308262165E-02 
488	 4.17485743287434E-02 
489	 4.16896925838995E-02 
490	 4.28850949546428E-02 
491	 4.30690850887324E-02 
492	 0.042347118340701 
493	 4.21661253104689E-02 
494	 4.24250471615053E-02 
495	 4.29764921747432E-02 
496	 4.29303850079154E-02 
497	 4.27146739451314E-02 
498	 4.29927744508447E-02 
499	 4.31587372021868E-02 
500	 4.31821113412181E-02 
501	 4.34509165892504E-02 
502	 4.37876736601142E-02 
503	 4.40818016206341E-02 
504	 4.43947492615515E-02 
505	 4.46827710032192E-02 
506	 4.48797298618026E-02 
507	 4.49378396718788E-02 
508	 4.49064126587337E-02 
509	 4.49836905994116E-02 
510	 4.52223032622772E-02 
511	 4.56445339999204E-02 
512	 4.60565214997314E-02 
513	 4.64640951687501E-02 
514	 0.047003045999287 
515	 4.74100264492181E-02 
516	 4.76279918360988E-02 
517	 4.78793970494438E-02 
518	 4.83809772240106E-02 
519	 4.92932257055874E-02 
520	 4.95956599859601E-02 
521	 4.94846025237168E-02 
522	 5.00980909581626E-02 
523	 5.06564114154359E-02 
524	 0.050851635935518 
525	 5.10735882751319E-02 
526	 5.14300100023852E-02 
527	 5.20059325848874E-02 
528	 5.26286595182779E-02 
529	 0.053170150512843 
530	 5.34154006020258E-02 
531	 5.36896473446625E-02 
532	 5.41677372775647E-02 
533	 5.42937629748599E-02 
534	 5.42767612509054E-02 
535	 0.054696488229872 
536	 5.49422800885405E-02 
537	 0.054912458289269 
538	 5.50451539983158E-02 
539	 5.53175265450699E-02 
540	 5.56851764905503E-02 
541	 5.61579571952692E-02 
542	 5.66409660483846E-02 
543	 5.69600669284736E-02 
544	 5.70261903112983E-02 
545	 5.68961391839907E-02 
546	 5.71380037059041E-02 
547	 5.75401124388484E-02 
548	 5.77541863300987E-02 
549	 5.78968662703105E-02 
550	 5.80139888289161E-02 
551	 5.81625947101325E-02 
552	 5.84013076604131E-02 
553	 5.87471252722469E-02 
554	 5.90291426313868E-02 
555	 5.92009030542074E-02 
556	 5.92259693014744E-02 
557	 5.92666088741335E-02 
558	 5.93601600440807E-02 
559	 5.93770731070675E-02 
560	 5.94104818630564E-02 
561	 5.95296758420858E-02 
562	 5.93806019284651E-02 
563	 5.91258294688935E-02 
564	 0.059389130902136 
565	 5.94875710672271E-02 
566	 5.92012497693182E-02 
567	 0.059039438890214 
568	 5.89700993580716E-02 
569	 5.88922695959669E-02 
570	 5.89837083521801E-02 
571	 5.91056195066528E-02 
572	 5.86517523545836E-02 
573	 5.82822651349043E-02 
574	 5.83482008378895E-02 
575	 5.81365573439342E-02 
576	 5.78445850060987E-02 
577	 5.80126572606224E-02 
578	 0.058125040375296 
579	 5.80455758209876E-02 
580	 5.79843850469343E-02 
581	 5.78126853464691E-02 
582	 5.74360033665546E-02 
583	 5.71789887739729E-02 
584	 5.70786363095261E-02 
585	 5.70331307196197E-02 
586	 5.71654268260536E-02 
587	 5.74174245229804E-02 
588	 5.71596819208391E-02 
589	 5.68240245323088E-02 
590	 5.70441876008098E-02 
591	 5.71663955318957E-02 
592	 5.70456055914494E-02 
593	 5.67398786916711E-02 
594	 5.65430860555167E-02 
595	 5.66373710701849E-02 
596	 5.69581312507596E-02 
597	 5.71681535540474E-02 
598	 5.66889938621532E-02 
599	 5.64332427670433E-02 
600	 5.65947009914796E-02 
601	 0.056642433460482 
602	 5.66319054159123E-02 
603	 0.05662297190282 
604	 5.65371846754767E-02 
605	 5.64305303217643E-02 
606	 5.64812642041306E-02 
607	 5.65072630381818E-02 
608	 5.64046359775838E-02 
609	 5.60222221150091E-02 
610	 5.57049428509354E-02 
611	 5.58889777820696E-02 
612	 5.59443867542971E-02 
613	 5.57724024981176E-02 
614	 5.56221520452485E-02 
615	 5.54334426971505E-02 
616	 5.51910594296615E-02 
617	 5.50017990515531E-02 
618	 5.49188398431955E-02 
619	 5.50170628046199E-02 
620	 0.054935537676409 
621	 5.46486926600579E-02 
622	 5.45952287042509E-02 
623	 5.45375431446228E-02 
624	 5.42751014195076E-02 
625	 5.42480348446021E-02 
626	 5.43852442432656E-02 
627	 5.42963718802855E-02 
628	 5.41701112535051E-02 
629	 5.40958187471803E-02 
630	 5.41775446246448E-02 
631	 5.42440294377437E-02 
632	 5.40775730963514E-02 
633	 5.39654766436605E-02 
634	 5.39060657314961E-02 
635	 5.36153578035767E-02 
636	 5.35012238951467E-02 
637	 5.37410638549195E-02 
638	 5.36859187546104E-02 
639	 5.34196438803715E-02 
640	 5.32552216197983E-02 
641	 5.30188890527615E-02 
642	 0.052733774956338 
643	 0.052746465436247 
644	 5.24755264390208E-02 
645	 5.14933614160828E-02 
646	 5.13705225877427E-02 
647	 5.18290234466249E-02 
648	 5.12930031900133E-02 
649	 5.09649823952533E-02 
650	 5.12030501779586E-02 
651	 5.12524528718396E-02 
652	 5.11400478565171E-02 
653	 5.09726712794281E-02 
654	 5.06165193322874E-02 
655	 5.02044254413022E-02 
656	 5.03476509068743E-02 
657	 5.04239925629151E-02 
658	 5.00843849738071E-02 
659	 4.97027521526672E-02 
660	 4.94022812737159E-02 
661	 4.93374341000523E-02 
662	 4.89192122016844E-02 
663	 0.048097644779592 
664	 4.73489048227773E-02 
665	 4.70782019852853E-02 
666	 4.75340240039275E-02 
667	 4.76562630981854E-02 
668	 4.73810266629955E-02 
669	 4.70387156161648E-02 
670	 4.68333111411649E-02 
671	 0.046828082688906 
672	 4.67602405247039E-02 
673	 4.65854467150812E-02 
674	 0.046293266919874 
675	 4.65040279897292E-02 
676	 4.71518743085631E-02 
677	 4.76953735134408E-02 
678	 4.77114203568241E-02 
679	 4.71145757572376E-02 
680	 4.71450866263592E-02 
681	 4.77234942592736E-02 
682	 4.84858960344698E-02 
683	 4.88113107500665E-02 
684	 4.87908103813146E-02 
685	 4.96953534365303E-02 
686	 5.06767254233981E-02 
687	 5.10363577864605E-02 
688	 0.05222250151962 
689	 5.38795034159074E-02 
690	 5.49207304671404E-02 
691	 0.055743264671848 
692	 5.66382156775837E-02 
693	 5.82403987317955E-02 
694	 6.02967184665188E-02 
695	 6.23914960782914E-02 
696	 6.41543888781365E-02 
697	 6.56539377827373E-02 
698	 6.72944620121594E-02 
699	 6.92950199140784E-02 
700	 7.16783721489488E-02 
701	 0.073884798224723 
702	 7.57886554535809E-02 
703	 7.73457383290132E-02 
704	 7.89949317535745E-02 
705	 8.07999048523085E-02 
706	 8.24158863400941E-02 
707	 8.41175436362025E-02 
708	 8.60015533265419E-02 
709	 8.73346490760883E-02 
710	 8.84615526762747E-02 
711	 9.02179375370668E-02 
712	 0.091805457554643 
713	 0.093027820655268 
714	 9.42110278058686E-02 
715	 9.53638766406406E-02 
716	 9.65632380712944E-02 
717	 9.80900127119941E-02 
718	 9.97184258614992E-02 
719	 0.10036311548277 
720	 0.100807433978724 
721	 0.101377010693662 
722	 0.101989802399038 
723	 0.102653713666653 
724	 0.103328828965146 
725	 0.104143822512473 
726	 0.105044921311724 
727	 0.106020276739413 
728	 0.106713196664481 
729	 0.106952261310108 
730	 0.10694449041249 
731	 0.107092793837372 
732	 0.107872779896124 
733	 0.108528161407308 
734	 0.1089472306497 
735	 0.109453482560758 
736	 0.109633187012484 
737	 0.109338969290828 
738	 0.109920677080593 
739	 0.110973490787011 
740	 0.111413438395133 
741	 0.111459922842199 
742	 0.111290931644979 
743	 0.111405147735617 
744	 0.111780972899361 
745	 0.112328764778163 
746	 0.112354952638702 
747	 0.112073814658241 
748	 0.112237367431355 
749	 0.112863813951553 
750	 0.113724234717667 
751	 0.113495897482225 
752	 0.11305018174565 
753	 0.113394941064443 
754	 0.113912216176088 
755	 0.114420669676897 
756	 0.11480576261917 
757	 0.115097751795946 
758	 0.115276336447861 
759	 0.114805681719588 
760	 0.114165300034146 
761	 0.115487960995805 
762	 0.116094975166186 
763	 0.115650907579078 
764	 0.115375673076195 
765	 0.115185307148223 
766	 0.115121148838588 
767	 0.115502880885808 
768	 0.115950326809242 
769	 0.115998909648853 
770	 0.116387120451145 
771	 0.117004078139698 
772	 0.11682180624883 
773	 0.116475115591703 
774	 0.11644145124188 
775	 0.116923219098042 
776	 0.117387508605511 
777	 0.116816332222222 
778	 0.116452319304981 
779	 0.116685842049412 
780	 0.117393848455762 
781	 0.117981760807081 
782	 0.117993267954429 
783	 0.117819708471448 
784	 0.117751211163719 
785	 0.118286938494419 
786	 0.118429552769237 
787	 0.11807561536794 
788	 0.118470311777915 
789	 0.119041377481483 
790	 0.119213646470938 
791	 0.119453149511664 
792	 0.119619738600614 
793	 0.1191443700697 
794	 0.118913208024307 
795	 0.119123295244691 
796	 0.118888446732896 
797	 0.118801830298873 
798	 0.119439363349323 
799	 0.119529634419851 
800	 0.119214031547494 
801	 0.119614874205954 
802	 0.119812959080856 
803	 0.119532581784652 
804	 0.119249136673999 
805	 0.119343025937691 
806	 0.120130904958506 
807	 0.120553673251755 
808	 0.120571058278647 
809	 0.120787961644845 
810	 0.120915885364135 
811	 0.120869645581059 
812	 0.120786888741475 
813	 0.120948426304284 
814	 0.121684751747905 
815	 0.122318702338814 
816	 0.122688067996544 
817	 0.123106601281449 
818	 0.12273533394359 
819	 0.121595373001937 
820	 0.121722575652508 
821	 0.122230342185416 
822	 0.121919471672968 
823	 0.122061827563368 
824	 0.122781220588447 
825	 0.123776980962475 
826	 0.12410912664944 
827	 0.123580645107156 
828	 0.123799020240168 
829	 0.124376508740767 
830	 0.12463949825358 
831	 0.124736182513152 
832	 0.124574672632585 
833	 0.12373416753433 
834	 0.123439539653274 
835	 0.124116867962514 
836	 0.124805154784315 
837	 0.125172449596073 
838	 0.124961889526077 
839	 0.124495582065463 
840	 0.124088177089035 
841	 0.124248489001839 
842	 0.125031244690844 
843	 0.126122201223817 
844	 0.125680842123456 
845	 0.124890142359088 
846	 0.125220184683758 
847	 0.125649495314811 
848	 0.12576444926546 
849	 0.12494472936912 
850	 0.12434376280993 
851	 0.124548927407088 
852	 0.12574421288314 
853	 0.126625289068368 
854	 0.12587850824407 
855	 0.12531258436632 
856	 0.125366727993043 
857	 0.126273946853192 
858	 0.126482487132616 
859	 0.125649163899021 
860	 0.125074154017943 
861	 0.12520043539199 
862	 0.126242861272532 
863	 0.126103706499634 
864	 0.125316326600932 
865	 0.126163283318805 
866	 0.126738550507908 
867	 0.126549420524389 
868	 0.126400494904678 
869	 0.126668303493621 
870	 0.127503358290295 
871	 0.127467690556905 
872	 0.126972858941787 
873	 0.12724910826849 
874	 0.127530530549365 
875	 0.127774466063728 
876	 0.12875704127668 
877	 0.129569427226535 
878	 0.12950894894432 
879	 0.128499718792261 
880	 0.127576212173943 
881	 0.128343037470592 
882	 0.129438893813013 
883	 0.130263964043907 
884	 0.130243945146335 
885	 0.129990404501918 
886	 0.129926447174857 
887	 0.130254755290165 
888	 0.130652382358159 
889	 0.130658063425741 
890	 0.130489307315499 
891	 0.130285450956952 
892	 0.130184638965699 
893	 0.130862390677455 
894	 0.132325890130432 
895	 0.132418639818597 
896	 0.131992187250862 
897	 0.132234460898267 
898	 0.131978366869582 
899	 0.131315235262777 
900	 0.130991037236723 
901	 0.13087323897801 
902	 0.130983993851817 
903	 0.131514711198269 
904	 0.132091447762861 
905	 0.132413214627384 
906	 0.132628897535641 
907	 0.13273700648351 
908	 0.132689626222139 
909	 0.132966708291388 
910	 0.133548937529789 
911	 0.133821999005921 
912	 0.133728655962437 
913	 0.133424028014647 
914	 0.134087379523494 
915	 0.135036440288081 
916	 0.135299315694895 
917	 0.13498985550562 
918	 0.134342398131938 
919	 0.133704319597986 
920	 0.13435007545553 
921	 0.136066660244856 
922	 0.135297269678497 
923	 0.134048938879453 
924	 0.134378720605081 
925	 0.136508731472509 
926	 0.13883136251343 
927	 0.13755861895677 
928	 0.13656136157859 
929	 0.137361010475372 
930	 0.140301974350551 
931	 0.140324019241722 
932	 0.134614179763519 
933	 0.137365055864639 
934	 0.144603309127091 
935	 0.14644613689464 
936	 0.141834371515709 
937	 0.134727786287721 
938	 0.135760201169214 
939	 0.13695796909795 
940	 0.136549921669949 
941	 0.139280018006461 
942	 0.139104088836675 
943	 0.132716274128309 
944	 0.132293562901762 
945	 0.136047297782972 
946	 0.138379290037544 
947	 0.136502450536439 
948	 0.13198545767431 
949	 0.13231632307736 
950	 0.135509786518337 
951	 0.138980730433583 
952	 0.134217839944378 
953	 0.130591633976781 
954	 0.135989285335404 
955	 0.134237071033674 
956	 0.128754424376264 
957	 0.130145224234548 
958	 0.129768925501816 
959	 0.127820279112015 
960	 0.132758733591093 
961	 0.135416787161806 
962	 0.132921988199302 
963	 0.1353748988284 
964	 0.137896569223121 
965	 0.135427303998541 
966	 0.134196519202981 
967	 0.134260072840807 
968	 0.133543797773601 
969	 0.13322835007408 
970	 0.133614564648282 
971	 0.134804450075598 
972	 0.135224239924325 
973	 0.134585907465536 
974	 0.137214319238485 
975	 0.140010478496699 
976	 0.139233667886137 
977	 0.137183979004883 
978	 0.135140109435134 
979	 0.134638424467598 
980	 0.136253626345382 
981	 0.138474641020009 
982	 0.134856529341573 
983	 0.132954185120319 
984	 0.136224405662916 
985	 0.138745826531393 
986	 0.139416459176796 
987	 0.137927897581997 
988	 0.138268479161387 
989	 0.139503044029167 
990	 0.138221481401672 
991	 0.136600489031792 
992	 0.135963243340337 
993	 0.139569023514196 
994	 0.137037211309746 
995	 0.126374513576035 
996	 0.129491317261319 
997	 0.137484573256423 
998	 0.140263079063797 
999	 0.14122938752927 
1000	 0.141255304439733 
1001	 0.141363017434646 
1002	 0.139993405586142 
1003	 0.138293814175611 
1004	 0.140520730406895 
1005	 0.14453570188416 
1006	 0.147915096471555 
1007	 0.14444236367157 
1008	 0.139846508118881 
1009	 0.139159476294975 
1010	 0.143227434792417 
1011	 0.146781899507065 
1012	 0.1429865335781 
1013	 0.143621498902296 
1014	 0.148274848330973 
1015	 0.150173840238969 
1016	 0.14812784181462 
1017	 0.142287804601258 
1018	 0.134746199457159 
1019	 0.135110695390337 
1020	 0.145743559813887 
1021	 0.14760401520041 
1022	 0.144235851631567 
1023	 0.141422725077762 
1024	 0.144343906373439 
1025	 0.147676623331416 
1026	 0.141326533391066 
1027	 0.13862180169913 
1028	 0.140271572297465 
1029	 0.137887529607432 
1030	 0.133546891782397 
1031	 0.131160773100832 
1032	 0.144579224755304 
1033	 0.153029369154757 
1034	 0.145548266815945 
1035	 0.140582668553514 
1036	 0.14591472058104 
1037	 0.163882719424445 
1038	 0.148096216921849 
1039	 0.119722962632257 
1040	 0.131379866551907 
1041	 0.151453958791384 
1042	 0.167388242472823 
1043	 0.16602418560787 
1044	 0.157494941223039 
1045	 0.146704792998163 
1046	 0.135599720311633 
1047	 0.139041502993627 
1048	 0.160189012427006 
1049	 0.164300638168729 
1050	 0.158629026978034 
1051	 0.152567584856751 
1052	 0.135622595121623 
1053	 0.125904923088572 
1054	 0.148232477250311 
1055	 0.163967287769045 
1056	 0.164420743959815 
1057	 0.151101649419649 
1058	 0.159373744405348 
1059	 0.182589620324885 
1060	 0.14835357584505 
1061	 0.125762523618174 
1062	 0.14117340665346 
1063	 0.147945597976898 
1064	 0.148977072467756 
1065	 0.149695253218308 
1066	 0.16802325026342 
1067	 0.181525631914127 
1068	 0.167419916492407 
1069	 0.141279904379917 
1070	 0.119673349319423 
1071	 0.132765712694013 
1072	 0.132280573350318 
1073	 0.122540039608077 
1074	 0.147340831120378 
1075	 0.165717510587327 
