Wavelength	A00048.asd
325	 5.84583032114189E-02 
326	 0.059750913017732 
327	 6.21669432984173E-02 
328	 6.86376468718937E-02 
329	 7.12393574976593E-02 
330	 6.80590659644122E-02 
331	 6.52515271571926E-02 
332	 6.41046781475267E-02 
333	 6.53138927255687E-02 
334	 6.69222964364759E-02 
335	 0.068310757218545 
336	 6.93982370582027E-02 
337	 6.88967557062721E-02 
338	 6.73548437260073E-02 
339	 0.069463183912883 
340	 6.97174096080391E-02 
341	 6.42809598680302E-02 
342	 6.28766648648746E-02 
343	 6.51738829805925E-02 
344	 6.81958823756503E-02 
345	 6.69052684657389E-02 
346	 6.24352065664815E-02 
347	 6.51299340520491E-02 
348	 6.79755761687729E-02 
349	 6.66191008599545E-02 
350	 0.067432560690558 
351	 6.83143045699327E-02 
352	 6.46176896136629E-02 
353	 6.30443610496541E-02 
354	 6.46856422501593E-02 
355	 6.69451755454752E-02 
356	 6.81930159023502E-02 
357	 6.76328608663103E-02 
358	 6.71866725477693E-02 
359	 6.72644694603532E-02 
360	 6.81115298885905E-02 
361	 6.70786183371788E-02 
362	 6.48039849115001E-02 
363	 6.55653773444126E-02 
364	 6.64545714510274E-02 
365	 6.59740196252648E-02 
366	 6.52631378072644E-02 
367	 6.45754002707583E-02 
368	 6.40776253361016E-02 
369	 6.39615100982468E-02 
370	 6.42851478940587E-02 
371	 6.51188639908294E-02 
372	 6.57477699301728E-02 
373	 6.58365165855304E-02 
374	 6.61148866109185E-02 
375	 6.67352741123473E-02 
376	 6.77725299373237E-02 
377	 6.83635471147649E-02 
378	 6.80995859374893E-02 
379	 6.62073503173346E-02 
380	 0.065665251696039 
381	 6.75846272724626E-02 
382	 6.83630903445474E-02 
383	 6.83218840480957E-02 
384	 6.83765407606545E-02 
385	 6.95589608297068E-02 
386	 7.08189308272388E-02 
387	 6.82638811572863E-02 
388	 0.066374148968166 
389	 6.68059526723749E-02 
390	 6.60917563906531E-02 
391	 6.59232914474628E-02 
392	 6.84740768229249E-02 
393	 6.81849348352748E-02 
394	 0.065765028150875 
395	 6.68620302236461E-02 
396	 6.73003759918193E-02 
397	 6.58032901558284E-02 
398	 6.54376353456344E-02 
399	 6.52148782558217E-02 
400	 6.39570758197698E-02 
401	 6.47964109043502E-02 
402	 6.69514982098527E-02 
403	 6.73604870250215E-02 
404	 6.70463688712262E-02 
405	 6.66684211773583E-02 
406	 0.067640248247399 
407	 6.88927584747908E-02 
408	 6.89731643035576E-02 
409	 6.80655571242009E-02 
410	 6.68710995967785E-02 
411	 6.71577932289052E-02 
412	 6.76038093985446E-02 
413	 6.76135758851328E-02 
414	 6.77353371410967E-02 
415	 6.78861971104517E-02 
416	 6.79036854554736E-02 
417	 6.79606202779735E-02 
418	 6.81103029230293E-02 
419	 6.83972169928376E-02 
420	 0.068613989240629 
421	 6.86842318970831E-02 
422	 6.89649729065331E-02 
423	 6.92517713925102E-02 
424	 6.91870746573991E-02 
425	 6.94871143621791E-02 
426	 7.01603183509743E-02 
427	 0.070568736550444 
428	 7.07669444610476E-02 
429	 7.08045796181207E-02 
430	 7.08252110612463E-02 
431	 7.08730584155936E-02 
432	 7.10117799532523E-02 
433	 7.04253137492717E-02 
434	 6.94576033352203E-02 
435	 7.00259492106738E-02 
436	 7.07339107158811E-02 
437	 7.07297318022675E-02 
438	 7.14176308145638E-02 
439	 7.22156443320722E-02 
440	 7.16766416888244E-02 
441	 7.15923915421132E-02 
442	 7.22444289655434E-02 
443	 7.23872395678678E-02 
444	 7.22848267021583E-02 
445	 7.22312308496651E-02 
446	 7.27196029781159E-02 
447	 7.34100384889904E-02 
448	 7.33483385582324E-02 
449	 7.33947812177664E-02 
450	 0.073746541341554 
451	 7.38306500656222E-02 
452	 7.40242047360255E-02 
453	 7.46764523380221E-02 
454	 7.47126509080693E-02 
455	 7.43038335804276E-02 
456	 7.45332278202109E-02 
457	 7.46666048350721E-02 
458	 0.074560829510982 
459	 7.51819157609511E-02 
460	 7.57201651776968E-02 
461	 7.51714561644963E-02 
462	 7.49920600968234E-02 
463	 7.52546716666027E-02 
464	 7.50431969086603E-02 
465	 7.50221529095825E-02 
466	 7.54579325696849E-02 
467	 7.57027913531474E-02 
468	 7.57702111086713E-02 
469	 7.57958548960087E-02 
470	 7.58107380833019E-02 
471	 7.58427612672051E-02 
472	 7.59018758385911E-02 
473	 7.60331011210396E-02 
474	 0.076242664077812 
475	 7.63272324677596E-02 
476	 7.64036059759978E-02 
477	 7.67747069417782E-02 
478	 7.64288460809239E-02 
479	 0.075545924233817 
480	 7.60966098870473E-02 
481	 7.68722337660969E-02 
482	 7.69009127020248E-02 
483	 0.077222586765152 
484	 7.76812906005532E-02 
485	 7.75400633821256E-02 
486	 0.077088422286876 
487	 7.66720471612043E-02 
488	 7.74642320600276E-02 
489	 7.81921195588867E-02 
490	 0.077580484113353 
491	 7.72553481295477E-02 
492	 7.74703484307564E-02 
493	 7.80782564105539E-02 
494	 7.82856754887202E-02 
495	 7.78723625642419E-02 
496	 7.79617960384303E-02 
497	 7.83152201277504E-02 
498	 7.84832137368765E-02 
499	 0.078767464119081 
500	 7.91404779058768E-02 
501	 7.93133098916487E-02 
502	 7.94120573325783E-02 
503	 0.079515118141697 
504	 7.95854551113969E-02 
505	 7.96876027991534E-02 
506	 7.99483447317068E-02 
507	 7.99144126728056E-02 
508	 7.96396906675919E-02 
509	 7.98629998111774E-02 
510	 8.02336860859268E-02 
511	 8.04490573680731E-02 
512	 8.05277288452151E-02 
513	 8.06544741287708E-02 
514	 8.13218612837588E-02 
515	 8.17018643104518E-02 
516	 8.15373911200439E-02 
517	 8.12825916075896E-02 
518	 8.11798452975759E-02 
519	 8.14302539418077E-02 
520	 0.081566600127552 
521	 8.16860749991437E-02 
522	 8.23904367553215E-02 
523	 8.28697547255014E-02 
524	 8.28406988032924E-02 
525	 8.31918018629209E-02 
526	 8.34709251827761E-02 
527	 8.29070844223252E-02 
528	 8.27252021241734E-02 
529	 8.30968869668927E-02 
530	 8.34179644411523E-02 
531	 8.36739831902481E-02 
532	 8.38725844011395E-02 
533	 8.42405837236928E-02 
534	 8.46327043879225E-02 
535	 8.46942248996995E-02 
536	 8.48334978745654E-02 
537	 8.51123664498753E-02 
538	 8.51475387138726E-02 
539	 8.52114007872296E-02 
540	 8.55564434639655E-02 
541	 8.56550734284608E-02 
542	 8.55114354079522E-02 
543	 8.53533242456897E-02 
544	 8.55497163433922E-02 
545	 8.61487255913419E-02 
546	 8.63301291115686E-02 
547	 8.63163127150218E-02 
548	 8.65006594936749E-02 
549	 8.65739318083282E-02 
550	 8.65614470551915E-02 
551	 8.67621641320358E-02 
552	 8.70872780278114E-02 
553	 8.74219320342785E-02 
554	 8.72751693378323E-02 
555	 8.70563670838218E-02 
556	 8.76577609260466E-02 
557	 8.81971009375248E-02 
558	 8.83840950844692E-02 
559	 0.088356422353634 
560	 8.82250967539737E-02 
561	 8.81090186849522E-02 
562	 8.81770568402076E-02 
563	 8.83805635054497E-02 
564	 8.84956616408104E-02 
565	 8.86421760284724E-02 
566	 8.88545652168918E-02 
567	 8.90893563877293E-02 
568	 8.92616992776999E-02 
569	 8.92740951467701E-02 
570	 8.92042450513326E-02 
571	 8.91649762870285E-02 
572	 8.94528811403603E-02 
573	 8.96590167294692E-02 
574	 8.95776528665611E-02 
575	 8.97718252993727E-02 
576	 0.090002765652419 
577	 8.96810131681291E-02 
578	 8.95540619824661E-02 
579	 8.97427985424903E-02 
580	 8.96190765489054E-02 
581	 8.95771975923064E-02 
582	 8.99574795212442E-02 
583	 0.090331955236442 
584	 9.05558407770777E-02 
585	 9.04731254395782E-02 
586	 9.04291127642436E-02 
587	 9.05200319212277E-02 
588	 9.03375518366452E-02 
589	 9.01016710853585E-02 
590	 9.01451665187969E-02 
591	 9.02113152019805E-02 
592	 9.02139309804145E-02 
593	 9.00642974876272E-02 
594	 9.00447449308912E-02 
595	 9.03077327405648E-02 
596	 0.090621917874007 
597	 0.090882807683248 
598	 9.09992161425096E-02 
599	 9.07942636765121E-02 
600	 9.03722840401387E-02 
601	 0.090379637325204 
602	 9.06079671863676E-02 
603	 0.090828351244732 
604	 9.08786402728471E-02 
605	 9.08141636743507E-02 
606	 9.08590096018646E-02 
607	 9.09694963534809E-02 
608	 9.11126144179438E-02 
609	 9.12190094390732E-02 
610	 9.10685219619047E-02 
611	 9.04147786808243E-02 
612	 0.090446189480368 
613	 0.091101548566979 
614	 9.11585698862545E-02 
615	 9.09782036238939E-02 
616	 9.07948275198356E-02 
617	 9.06919976154588E-02 
618	 9.07050260929654E-02 
619	 9.08585492694969E-02 
620	 9.09844426205172E-02 
621	 9.10135664495353E-02 
622	 9.09398471221914E-02 
623	 9.08092493748988E-02 
624	 9.06760472338248E-02 
625	 9.06747539439184E-02 
626	 9.07440800137589E-02 
627	 9.06296350910865E-02 
628	 9.06442370184842E-02 
629	 9.08795424280478E-02 
630	 9.10755904427872E-02 
631	 9.12322544867191E-02 
632	 9.13797788281607E-02 
633	 9.15931119267576E-02 
634	 9.16898363453666E-02 
635	 9.09685161326457E-02 
636	 9.04902921389401E-02 
637	 9.08358645709139E-02 
638	 9.11246335583076E-02 
639	 9.12171288154721E-02 
640	 9.10632484674865E-02 
641	 9.12443111995057E-02 
642	 9.17323012011983E-02 
643	 9.14936661138053E-02 
644	 9.13664632913825E-02 
645	 9.20499333713643E-02 
646	 9.23111813447949E-02 
647	 9.21014691290727E-02 
648	 9.19180606224799E-02 
649	 9.17714016870437E-02 
650	 9.16683644277421E-02 
651	 9.14212308963922E-02 
652	 9.11550160058961E-02 
653	 9.10332186418388E-02 
654	 9.14414995847421E-02 
655	 0.092083309349608 
656	 9.15651140935498E-02 
657	 9.08341715262991E-02 
658	 9.05202056243429E-02 
659	 9.04229526260021E-02 
660	 9.04343076031829E-02 
661	 9.04540271973669E-02 
662	 9.00810710309589E-02 
663	 8.94202468326428E-02 
664	 8.94562768055573E-02 
665	 8.95873497220277E-02 
666	 8.92918728793739E-02 
667	 8.87947941800629E-02 
668	 0.088477347423317 
669	 8.93440737481295E-02 
670	 8.92688867833491E-02 
671	 8.79153771191691E-02 
672	 8.82962143572933E-02 
673	 8.91146066627626E-02 
674	 8.86557720936736E-02 
675	 8.85705144044264E-02 
676	 8.89279008108372E-02 
677	 8.87769854488264E-02 
678	 8.87365637700746E-02 
679	 8.91078848091159E-02 
680	 0.089534431156419 
681	 8.99324949186961E-02 
682	 0.090252761327279 
683	 9.04922129896801E-02 
684	 9.06352138603261E-02 
685	 9.05341588891197E-02 
686	 9.08490098966527E-02 
687	 9.20717861147614E-02 
688	 9.24553798137657E-02 
689	 0.092183072223947 
690	 9.24613979362679E-02 
691	 9.30135930560004E-02 
692	 9.37213664529222E-02 
693	 0.094289152976374 
694	 0.094657323343756 
695	 9.47862019248599E-02 
696	 9.50120832589912E-02 
697	 9.52983808636241E-02 
698	 9.53171617266163E-02 
699	 9.53833082094911E-02 
700	 0.095626966243 
701	 9.58149896478463E-02 
702	 9.60037500991742E-02 
703	 0.096306444692929 
704	 9.64326185960601E-02 
705	 9.64111636140579E-02 
706	 9.66127841098743E-02 
707	 9.67213005664455E-02 
708	 9.65678425001579E-02 
709	 9.65388819899236E-02 
710	 9.66979066670081E-02 
711	 9.70618050358093E-02 
712	 9.73469030632161E-02 
713	 9.74987519744599E-02 
714	 9.78385585665611E-02 
715	 9.78997473381677E-02 
716	 9.72873151474047E-02 
717	 9.74183772267447E-02 
718	 9.81753314778508E-02 
719	 9.79912759450738E-02 
720	 9.77289874558754E-02 
721	 9.76785747865065E-02 
722	 0.097555625329472 
723	 0.09737391486837 
724	 9.71805272127751E-02 
725	 0.097484796802654 
726	 9.81896895617781E-02 
727	 9.87023915383873E-02 
728	 9.90692254900236E-02 
729	 9.92087972829273E-02 
730	 9.85252453285984E-02 
731	 0.097928684259865 
732	 9.86890247264093E-02 
733	 9.91625914357263E-02 
734	 9.90878373863122E-02 
735	 9.89641865199877E-02 
736	 0.098887467955436 
737	 9.89572488420324E-02 
738	 9.93586270630516E-02 
739	 9.98190444019328E-02 
740	 0.09980671178716 
741	 9.96596245552705E-02 
742	 0.0995736626467 
743	 9.99142502232482E-02 
744	 0.100163428302841 
745	 9.99083723260545E-02 
746	 9.97299912901294E-02 
747	 9.97476198348656E-02 
748	 0.100001840956633 
749	 0.10018540272601 
750	 0.100165835892099 
751	 9.99454372506093E-02 
752	 9.98894421001679E-02 
753	 0.100340879729922 
754	 0.100331007528311 
755	 9.99925466689628E-02 
756	 0.100295971080409 
757	 0.100653658574056 
758	 0.100831210807667 
759	 0.100943685677354 
760	 0.101278853025237 
761	 0.102201767521478 
762	 0.101908535075964 
763	 0.101000252847189 
764	 0.101726090745995 
765	 0.102343863224898 
766	 0.102273914969533 
767	 0.102068601123811 
768	 0.101909890858677 
769	 0.101962434007985 
770	 0.101863958961132 
771	 0.101642860425881 
772	 0.101697153070213 
773	 0.101968803436594 
774	 0.102343602300179 
775	 0.102205490767726 
776	 0.101885984219514 
777	 0.102147547911704 
778	 0.102337982047989 
779	 0.102301370701854 
780	 0.102212398707223 
781	 0.102306730261318 
782	 0.102698861765055 
783	 0.102496972253433 
784	 0.102146889833486 
785	 0.102946949047842 
786	 0.103413788773762 
787	 0.103168928749711 
788	 0.102947995903932 
789	 0.102937798109311 
790	 0.103262943921239 
791	 0.10356684866841 
792	 0.103807600324112 
793	 0.104095440453607 
794	 0.104307926480488 
795	 0.104312239693164 
796	 0.103660043646293 
797	 0.103147966189718 
798	 0.103540894910224 
799	 0.103764773083126 
800	 0.103712576533032 
801	 0.103627190395147 
802	 0.103972782413395 
803	 0.104746037115774 
804	 0.104811078796797 
805	 0.104492546883907 
806	 0.104264821042041 
807	 0.104633891056908 
808	 0.105236199250825 
809	 0.104656572294975 
810	 0.104218005717588 
811	 0.104415776509047 
812	 0.104349719266854 
813	 0.104412027071508 
814	 0.1051772227946 
815	 0.105503767309899 
816	 0.105293437077014 
817	 0.105304930043629 
818	 0.10518779520547 
819	 0.104979642861167 
820	 0.105630644805992 
821	 0.10638393801447 
822	 0.106270209742777 
823	 0.105643769039522 
824	 0.104938386758209 
825	 0.10495358997186 
826	 0.105460331091242 
827	 0.106245884557504 
828	 0.106726672710542 
829	 0.106363281776682 
830	 0.104708681621453 
831	 0.10483118671814 
832	 0.106389792887943 
833	 0.106344260501598 
834	 0.106090635845808 
835	 0.106201512349367 
836	 0.106566246708842 
837	 0.106827061718777 
838	 0.106611416249459 
839	 0.106708358457108 
840	 0.106964082036334 
841	 0.106289970959892 
842	 0.106472709371123 
843	 0.107823842108453 
844	 0.107416249856286 
845	 0.106350540153231 
846	 0.10612914772427 
847	 0.10624373323977 
848	 0.106507087772146 
849	 0.106732406035868 
850	 0.106331607435155 
851	 0.105327320482854 
852	 0.105370575494825 
853	 0.10596798408982 
854	 0.106406781350277 
855	 0.106646526230374 
856	 0.106569819424237 
857	 0.105847964308204 
858	 0.105885644083177 
859	 0.106838828715557 
860	 0.106668184491307 
861	 0.106591188751857 
862	 0.10773233388298 
863	 0.10775515064006 
864	 0.107160162187422 
865	 0.108348539802642 
866	 0.107798030816688 
867	 0.105372487659058 
868	 0.106242257554351 
869	 0.107632815242794 
870	 0.107243376228841 
871	 0.1072240880085 
872	 0.107756186303085 
873	 0.108573777900297 
874	 0.10952293246475 
875	 0.11000525580299 
876	 0.107942897805282 
877	 0.106466952482294 
878	 0.107521493949174 
879	 0.107296959605067 
880	 0.106727153693228 
881	 0.108198890874929 
882	 0.107941550499371 
883	 0.105989994929614 
884	 0.106097187099625 
885	 0.106912315698599 
886	 0.107571893290832 
887	 0.107671714442723 
888	 0.107594397658356 
889	 0.107932033832933 
890	 0.108832963906672 
891	 0.109715859127474 
892	 0.108631574619786 
893	 0.107612364090631 
894	 0.107528294075541 
895	 0.106869593197752 
896	 0.106910507216268 
897	 0.109039384549226 
898	 0.109246182210318 
899	 0.10813865624508 
900	 0.109727868112014 
901	 0.109250130908976 
902	 0.106517521174878 
903	 0.107847884829447 
904	 0.109137491738919 
905	 0.107458172722126 
906	 0.107887169859749 
907	 0.109645684547915 
908	 0.110052654592881 
909	 0.110242439249593 
910	 0.110166557365058 
911	 0.108380184543248 
912	 0.108180525558701 
913	 0.110864979203238 
914	 0.111501610332064 
915	 0.111080197182137 
916	 0.111455907593074 
917	 0.111553242232953 
918	 0.11092789819503 
919	 0.108605008569134 
920	 0.107858432784454 
921	 0.109415264673825 
922	 0.110064775020411 
923	 0.11099290988879 
924	 0.112991323570288 
925	 0.110869279414316 
926	 0.107336332784862 
927	 0.110457731392499 
928	 0.111967518618903 
929	 0.109194168384435 
930	 0.104481064216189 
931	 0.102857986577321 
932	 0.107796227468934 
933	 0.1078082913687 
934	 0.105847829686171 
935	 0.10889777087063 
936	 0.11320445571602 
937	 0.115783338220908 
938	 0.111551965626697 
939	 0.108933346877807 
940	 0.110409883026087 
941	 0.114254107149663 
942	 0.114185240800685 
943	 0.106976789503065 
944	 0.105544975681363 
945	 0.108799657625109 
946	 0.111968946757137 
947	 0.115781686973841 
948	 0.120347597986576 
949	 0.12837342856494 
950	 0.125457495577273 
951	 0.11021986383001 
952	 0.110486722086773 
953	 0.116257433066834 
954	 0.11647277426746 
955	 0.113542303548394 
956	 0.11097035495147 
957	 0.114610172639832 
958	 0.115884968730674 
959	 0.113558048691504 
960	 0.110549149158283 
961	 0.112709055607016 
962	 0.120084611224807 
963	 0.117080484971039 
964	 0.112220676736599 
965	 0.114192719980917 
966	 0.113803397452368 
967	 0.110829592965164 
968	 0.107714125094289 
969	 0.104525852091886 
970	 0.10326369071372 
971	 0.11107850633672 
972	 0.115467658546397 
973	 0.111010447740078 
974	 0.109782679966466 
975	 0.112874315625385 
976	 0.119269612583993 
977	 0.115704103143079 
978	 0.107167294917774 
979	 0.110443598283606 
980	 0.110257008440844 
981	 0.105952094067314 
982	 0.11175176758554 
983	 0.117507265676315 
984	 0.117608284680048 
985	 0.11515622388037 
986	 0.114316861578846 
987	 0.118412118412756 
988	 0.115376288352423 
989	 0.108830425623084 
990	 0.110290857763871 
991	 0.11238735565671 
992	 0.113709821104901 
993	 0.117550261924563 
994	 0.117569112294466 
995	 0.112086088091068 
996	 0.110982464698475 
997	 0.111473403704476 
998	 0.110306506489158 
999	 0.110734029616469 
1000	 0.113496719769833 
1001	 0.119090073001413 
1002	 0.116327928500458 
1003	 0.107861066118759 
1004	 0.113113909408326 
1005	 0.116135521874084 
1006	 0.111374296661795 
1007	 0.105162324496933 
1008	 0.104330411485348 
1009	 0.112399980407728 
1010	 0.115690255031624 
1011	 0.113145006188916 
1012	 0.106356814890444 
1013	 0.104834314889457 
1014	 0.108088878688336 
1015	 0.108988479530271 
1016	 0.109879948511834 
1017	 0.111489567657555 
1018	 0.114616634568715 
1019	 0.117325297882116 
1020	 0.117979801096724 
1021	 0.113219015524689 
1022	 0.110205269880878 
1023	 0.115015622102949 
1024	 0.115016440537142 
1025	 0.11039601943851 
1026	 0.105036287996959 
1027	 0.108331295153791 
1028	 0.116362417895941 
1029	 0.108892986270193 
1030	 0.106377211998908 
1031	 0.113020914566904 
1032	 0.113161245570042 
1033	 0.111975771312557 
1034	 0.113722534094902 
1035	 0.122456920218779 
1036	 0.127962006964676 
1037	 0.120873084482793 
1038	 0.120081728677484 
1039	 0.123323875542934 
1040	 0.120481213389232 
1041	 0.123817832495298 
1042	 0.130465494517971 
1043	 0.124563514187623 
1044	 0.1181215314671 
1045	 0.1185246045465 
1046	 0.137530710457348 
1047	 0.135711470929699 
1048	 9.96152158159568E-02 
1049	 0.112267981158594 
1050	 0.128543614969245 
1051	 0.104745653538126 
1052	 9.84115767934167E-02 
1053	 0.106788613225206 
1054	 0.111344197197729 
1055	 0.121527647712516 
1056	 0.136619309830506 
1057	 0.153653747440459 
1058	 0.150274587908048 
1059	 0.13037166871336 
1060	 0.144872553329679 
1061	 0.147314011615934 
1062	 0.125021371911666 
1063	 0.128977742105784 
1064	 0.136285185691049 
1065	 0.130446659796679 
1066	 0.137083470887208 
1067	 0.141656320266555 
1068	 0.127804964094463 
1069	 0.11570585520108 
1070	 0.120525122613293 
1071	 0.157432166926573 
1072	 0.150851078621664 
1073	 0.111341631208292 
1074	 0.10716767139082 
1075	 0.134172084551541 
