Wavelength	A00029.asd
325	 4.91927923905129E-02 
326	 5.19327867681109E-02 
327	 5.53925042402211E-02 
328	 5.40156713397519E-02 
329	 5.28848145090959E-02 
330	 5.30745181273468E-02 
331	 4.90569620327043E-02 
332	 4.65733101867981E-02 
333	 0.051140594494815 
334	 5.54225314116641E-02 
335	 5.70069527128589E-02 
336	 5.30232176285216E-02 
337	 5.25742522816657E-02 
338	 5.70178648939205E-02 
339	 5.85180473443692E-02 
340	 5.74514327177142E-02 
341	 5.47967800798693E-02 
342	 0.054049764728592 
343	 5.46845640701595E-02 
344	 5.47293522667145E-02 
345	 0.053282837270349 
346	 5.14692721171791E-02 
347	 5.46229871173524E-02 
348	 5.78663158264059E-02 
349	 0.05800363158182 
350	 5.77731691065724E-02 
351	 5.67337483798122E-02 
352	 5.33722754192913E-02 
353	 5.28279344328709E-02 
354	 5.54618720099879E-02 
355	 5.78748473807096E-02 
356	 5.77525522426565E-02 
357	 5.45662324937944E-02 
358	 5.53083424747104E-02 
359	 5.82045994940333E-02 
360	 5.94018430201047E-02 
361	 5.78189930993217E-02 
362	 5.52673566108908E-02 
363	 5.89887615172514E-02 
364	 6.08355478899623E-02 
365	 5.74047355120984E-02 
366	 5.66864818542644E-02 
367	 5.74775289149511E-02 
368	 5.70652553161612E-02 
369	 5.64818785660672E-02 
370	 5.63529711878583E-02 
371	 5.81208172843025E-02 
372	 5.96448885369383E-02 
373	 5.96767292110486E-02 
374	 5.84810275020071E-02 
375	 5.80900070474713E-02 
376	 6.10577123494066E-02 
377	 6.07258300519181E-02 
378	 5.75480459071092E-02 
379	 5.82643257740673E-02 
380	 5.99023642756139E-02 
381	 6.08009580725815E-02 
382	 6.04006445500195E-02 
383	 5.98433087657057E-02 
384	 6.06945756546416E-02 
385	 0.061339561501178 
386	 6.12350081674675E-02 
387	 6.00579985741971E-02 
388	 5.90563264197223E-02 
389	 0.058827514427462 
390	 5.88756003629142E-02 
391	 5.96404727378908E-02 
392	 6.16165329773661E-02 
393	 6.21006912344081E-02 
394	 6.11123912457769E-02 
395	 6.05265777866769E-02 
396	 5.99929148411215E-02 
397	 5.93627704942376E-02 
398	 5.83083351189201E-02 
399	 5.75562246962401E-02 
400	 5.77743935470323E-02 
401	 5.85642758737304E-02 
402	 5.96160173335527E-02 
403	 6.05875192192376E-02 
404	 6.10895033177086E-02 
405	 6.10870820312336E-02 
406	 6.15304249339528E-02 
407	 6.20328731151531E-02 
408	 6.20180018571526E-02 
409	 6.14538916583656E-02 
410	 6.06350392993077E-02 
411	 6.01966518174474E-02 
412	 6.05718565760093E-02 
413	 6.17109049268894E-02 
414	 6.20323484627366E-02 
415	 6.17685814736526E-02 
416	 6.14379495767917E-02 
417	 6.14462073127743E-02 
418	 6.17318906950925E-02 
419	 6.17157713182294E-02 
420	 6.16557112554039E-02 
421	 6.16899493012574E-02 
422	 6.16404437442263E-02 
423	 6.19689117618865E-02 
424	 6.33781709440526E-02 
425	 6.38984454297352E-02 
426	 6.34538305077056E-02 
427	 6.37413494003536E-02 
428	 6.43075688848788E-02 
429	 6.47514149154205E-02 
430	 6.43694383252472E-02 
431	 6.37132760886143E-02 
432	 6.38742527230924E-02 
433	 6.34690875706448E-02 
434	 6.26653959780029E-02 
435	 6.33004826498516E-02 
436	 6.41842693082312E-02 
437	 6.45277791605777E-02 
438	 6.49537840169626E-02 
439	 6.52823596160078E-02 
440	 6.50155668358714E-02 
441	 6.50207555053698E-02 
442	 6.54258673767506E-02 
443	 6.55338866474324E-02 
444	 6.55868697214845E-02 
445	 6.57900706637034E-02 
446	 6.59702990089812E-02 
447	 6.60894359760638E-02 
448	 6.61088301588125E-02 
449	 6.62016084288171E-02 
450	 6.64406325253816E-02 
451	 6.68345535754693E-02 
452	 6.72464736504845E-02 
453	 6.75229470660866E-02 
454	 6.73019437360683E-02 
455	 6.69058265776716E-02 
456	 6.74304510530991E-02 
457	 6.77478231955434E-02 
458	 6.75571285981724E-02 
459	 6.80510921034964E-02 
460	 6.85461955270106E-02 
461	 6.81508417039912E-02 
462	 0.067785094898888 
463	 6.76688556972986E-02 
464	 6.77292387793285E-02 
465	 6.79791828285827E-02 
466	 6.83908477722245E-02 
467	 6.88083426168347E-02 
468	 6.90908038188738E-02 
469	 6.90790925027615E-02 
470	 6.90948935259042E-02 
471	 6.92238360575333E-02 
472	 6.94020174460077E-02 
473	 6.96389979365377E-02 
474	 6.98550428476748E-02 
475	 6.93518194475405E-02 
476	 6.86920546642453E-02 
477	 0.069005032660834 
478	 6.92127647398398E-02 
479	 6.91196191700687E-02 
480	 6.92620715773053E-02 
481	 6.96453124635465E-02 
482	 7.02081282830517E-02 
483	 7.02310829974923E-02 
484	 7.00314343891693E-02 
485	 7.07606338501961E-02 
486	 7.09220890786145E-02 
487	 7.02485832716155E-02 
488	 7.04374337474685E-02 
489	 7.07516149859503E-02 
490	 7.03750692587468E-02 
491	 7.01113392184513E-02 
492	 7.02397398354158E-02 
493	 7.11699712544561E-02 
494	 7.16378221631192E-02 
495	 7.12611699893981E-02 
496	 7.15573225056482E-02 
497	 0.072072328923362 
498	 7.20408997856874E-02 
499	 7.20110456710862E-02 
500	 7.20795739063112E-02 
501	 7.20973294452033E-02 
502	 7.21635414376381E-02 
503	 7.23502919627925E-02 
504	 7.27395674308977E-02 
505	 7.31375376371081E-02 
506	 7.32184044690481E-02 
507	 7.33388164827159E-02 
508	 0.073525193410204 
509	 7.34274759080548E-02 
510	 7.33796055451272E-02 
511	 7.36374519403317E-02 
512	 7.39031364252259E-02 
513	 7.40683014801632E-02 
514	 7.39761581530557E-02 
515	 7.40401629277614E-02 
516	 7.43605868090094E-02 
517	 7.45509142351003E-02 
518	 7.46446415225312E-02 
519	 7.47119681140053E-02 
520	 7.47601971609158E-02 
521	 7.48302454746927E-02 
522	 7.49588170121449E-02 
523	 7.53547560167304E-02 
524	 7.60195907866373E-02 
525	 7.63159871923441E-02 
526	 7.63140902189782E-02 
527	 7.62201985798518E-02 
528	 7.60573673008757E-02 
529	 7.59578778212076E-02 
530	 7.62196929725913E-02 
531	 0.076698252110009 
532	 7.72400408888004E-02 
533	 7.74248328615063E-02 
534	 7.73609743744339E-02 
535	 7.73678926820149E-02 
536	 7.76150269999706E-02 
537	 7.80218411858675E-02 
538	 7.78543717790361E-02 
539	 7.77001116653517E-02 
540	 7.81298362506051E-02 
541	 7.84389482386854E-02 
542	 7.85059097259192E-02 
543	 7.83704490212625E-02 
544	 7.83891698001123E-02 
545	 0.078695204236556 
546	 7.90229657658798E-02 
547	 7.92164494377287E-02 
548	 7.91143281765857E-02 
549	 0.079121976575796 
550	 7.93465516472067E-02 
551	 0.079805745372746 
552	 8.00133631376597E-02 
553	 0.079711753805046 
554	 7.95187758473797E-02 
555	 0.079603975920302 
556	 8.01146257258784E-02 
557	 0.080532288035668 
558	 8.06616667204893E-02 
559	 8.05432610690098E-02 
560	 8.05343732004049E-02 
561	 8.09244076924337E-02 
562	 8.10628607359511E-02 
563	 8.09738708219316E-02 
564	 8.10345698063585E-02 
565	 8.11912777840974E-02 
566	 8.13845591732905E-02 
567	 8.13441751890305E-02 
568	 8.11667799289798E-02 
569	 8.10101003427395E-02 
570	 8.12274874234779E-02 
571	 8.17108166949842E-02 
572	 8.17769111883824E-02 
573	 8.17822864821696E-02 
574	 8.19584880382277E-02 
575	 8.23713091031497E-02 
576	 8.26877095418176E-02 
577	 8.22727334181105E-02 
578	 8.19975627018348E-02 
579	 8.21140654717475E-02 
580	 0.082366553505772 
581	 8.25103915687582E-02 
582	 8.23807108841075E-02 
583	 0.082685524913894 
584	 0.083252325607636 
585	 8.33573745179544E-02 
586	 8.31740023952184E-02 
587	 8.28083125685062E-02 
588	 0.082583300131525 
589	 8.24540448811677E-02 
590	 8.23183074738987E-02 
591	 8.22272312668006E-02 
592	 8.21954494259893E-02 
593	 8.21887417076227E-02 
594	 8.24354047328463E-02 
595	 8.29954405506114E-02 
596	 8.32252433318584E-02 
597	 8.32410996255679E-02 
598	 8.34425762990194E-02 
599	 0.083221429938074 
600	 8.26216911517643E-02 
601	 8.25921261825423E-02 
602	 8.28674285781485E-02 
603	 8.31524695403521E-02 
604	 8.32592655961882E-02 
605	 8.31804489684074E-02 
606	 0.082951351291459 
607	 8.30516802622194E-02 
608	 8.35693908444411E-02 
609	 0.083715007007182 
610	 8.34800027268626E-02 
611	 8.29637035309899E-02 
612	 0.082884780335993 
613	 8.32285389373883E-02 
614	 8.33065775298391E-02 
615	 8.31138193132323E-02 
616	 0.082709971995772 
617	 8.26889854721379E-02 
618	 8.28476965164393E-02 
619	 8.26501547063393E-02 
620	 8.28734180147291E-02 
621	 8.35094258059711E-02 
622	 8.35799155509516E-02 
623	 8.32101991992392E-02 
624	 8.26048887212002E-02 
625	 8.25350580310535E-02 
626	 8.28402269278976E-02 
627	 8.26664317845904E-02 
628	 8.25418023641965E-02 
629	 8.26661492698782E-02 
630	 8.29897562814973E-02 
631	 8.32598909064394E-02 
632	 8.31789558626194E-02 
633	 8.32057571204478E-02 
634	 8.33610250931198E-02 
635	 8.33156586930777E-02 
636	 8.32927791574684E-02 
637	 8.34118700993924E-02 
638	 8.35033469493926E-02 
639	 8.35555564385281E-02 
640	 8.35814095678146E-02 
641	 8.36970431956769E-02 
642	 8.38812634694985E-02 
643	 8.38632362037249E-02 
644	 8.38729587886702E-02 
645	 0.084105138820415 
646	 8.42884796104166E-02 
647	 8.43057525588227E-02 
648	 0.083984462689849 
649	 8.37015355390542E-02 
650	 8.36032368198819E-02 
651	 8.34548901499786E-02 
652	 8.33579332959452E-02 
653	 8.34506138126751E-02 
654	 8.37866963041196E-02 
655	 8.41789273386804E-02 
656	 8.39929100128605E-02 
657	 8.33781356537997E-02 
658	 8.25989555775244E-02 
659	 8.24124448667946E-02 
660	 8.25616717276856E-02 
661	 8.25316036945806E-02 
662	 8.22216939953302E-02 
663	 8.17457948075357E-02 
664	 8.18208088406435E-02 
665	 8.18332625426645E-02 
666	 0.081304166903359 
667	 8.10779675319262E-02 
668	 8.11386091431839E-02 
669	 8.11489758871631E-02 
670	 8.07317501762503E-02 
671	 7.99984563081051E-02 
672	 8.04911082635368E-02 
673	 8.12561524632996E-02 
674	 8.10882180989347E-02 
675	 8.07877650505622E-02 
676	 8.06814672406822E-02 
677	 0.081240383216771 
678	 8.15902241858027E-02 
679	 8.13708646559752E-02 
680	 8.17623962373784E-02 
681	 8.23092848463165E-02 
682	 8.20536199952445E-02 
683	 8.23106814982263E-02 
684	 0.083152560371135 
685	 8.33082461931359E-02 
686	 8.34819035390094E-02 
687	 8.42274840328373E-02 
688	 8.42679193624748E-02 
689	 8.39624175099495E-02 
690	 8.46202246367306E-02 
691	 0.085210511183647 
692	 8.54421996706477E-02 
693	 0.085542127156233 
694	 8.55551781791256E-02 
695	 0.08554802469885 
696	 8.63165335941682E-02 
697	 0.087473384408595 
698	 0.087631071987995 
699	 8.75450106715468E-02 
700	 8.75540194315612E-02 
701	 0.087416196851373 
702	 8.75596983924612E-02 
703	 8.85712825238737E-02 
704	 8.89916388517586E-02 
705	 8.86873237038973E-02 
706	 8.85345575304405E-02 
707	 8.85478196220826E-02 
708	 8.87159890448526E-02 
709	 8.87248366711837E-02 
710	 8.87049111869499E-02 
711	 8.89850136809197E-02 
712	 0.089300409236821 
713	 0.089534239903132 
714	 8.95877854231574E-02 
715	 8.95877125878954E-02 
716	 8.96783364744099E-02 
717	 9.01534488511099E-02 
718	 9.07868729576811E-02 
719	 9.06063730121966E-02 
720	 9.02541657412644E-02 
721	 9.00618658940569E-02 
722	 9.01827068052811E-02 
723	 9.01616200270109E-02 
724	 8.94830740059156E-02 
725	 8.94944287227823E-02 
726	 9.01896555344071E-02 
727	 0.090516661790584 
728	 9.06792184905849E-02 
729	 9.07571792503398E-02 
730	 9.07561687697013E-02 
731	 9.07645025025234E-02 
732	 9.08870954803106E-02 
733	 9.10402963336957E-02 
734	 9.11929978369151E-02 
735	 9.12861609259019E-02 
736	 9.14977792619427E-02 
737	 9.18836954428013E-02 
738	 9.18748945238331E-02 
739	 9.16594356369732E-02 
740	 9.17355384081684E-02 
741	 9.18172091066958E-02 
742	 9.18506706043795E-02 
743	 0.092018168725983 
744	 9.19331385001626E-02 
745	 9.13631901932587E-02 
746	 9.16562774715747E-02 
747	 9.25064806439026E-02 
748	 9.26368012750702E-02 
749	 9.26688538668492E-02 
750	 9.27142637947137E-02 
751	 0.092249345692794 
752	 9.19498148464853E-02 
753	 0.092515895509202 
754	 0.092972492907728 
755	 0.093064389990377 
756	 9.26571729845104E-02 
757	 9.24690037875903E-02 
758	 9.28030814552334E-02 
759	 9.29508207992791E-02 
760	 9.31650969883161E-02 
761	 9.40662904601747E-02 
762	 9.39743679495487E-02 
763	 9.32197962807833E-02 
764	 0.093371842494531 
765	 9.38498708301606E-02 
766	 9.42843498178585E-02 
767	 9.41282034864247E-02 
768	 9.38393492228821E-02 
769	 0.093983727964362 
770	 9.40051210469328E-02 
771	 9.38101618790764E-02 
772	 9.34699006916585E-02 
773	 9.35636387533733E-02 
774	 9.43396505094003E-02 
775	 9.43313396541197E-02 
776	 9.39561440317797E-02 
777	 9.43568782739333E-02 
778	 9.48087485350374E-02 
779	 9.49675318699977E-02 
780	 9.43016734441154E-02 
781	 9.38501490795167E-02 
782	 9.43686906481738E-02 
783	 9.44990040824586E-02 
784	 9.44209558190323E-02 
785	 9.50345678005094E-02 
786	 9.54223134625256E-02 
787	 0.095338589381852 
788	 9.51588708521108E-02 
789	 9.51334478207726E-02 
790	 9.54505925240901E-02 
791	 9.56129092149893E-02 
792	 9.56084956348316E-02 
793	 9.56493456318422E-02 
794	 0.095727318182968 
795	 9.58215148377396E-02 
796	 0.095810807240099 
797	 9.56884659073142E-02 
798	 0.095488412766692 
799	 0.095783822392669 
800	 9.63093938318839E-02 
801	 9.60799106971326E-02 
802	 0.095590027956571 
803	 9.51609177389632E-02 
804	 9.53758236782176E-02 
805	 9.58273602569192E-02 
806	 9.60279231303003E-02 
807	 9.62222342123014E-02 
808	 9.64469172525505E-02 
809	 9.67674433768978E-02 
810	 9.66545986719273E-02 
811	 9.60307219485243E-02 
812	 9.60193503578322E-02 
813	 9.63002346666094E-02 
814	 9.63353090983911E-02 
815	 9.67833420335417E-02 
816	 9.75028606219417E-02 
817	 9.76504585809149E-02 
818	 9.74520818780272E-02 
819	 9.71014950079711E-02 
820	 0.096981500367691 
821	 9.70537656004794E-02 
822	 9.72269163075448E-02 
823	 9.71771580709719E-02 
824	 9.70110720192662E-02 
825	 0.097307235107001 
826	 9.73252542366319E-02 
827	 9.69526139860029E-02 
828	 9.76526216335796E-02 
829	 9.82138483386469E-02 
830	 9.70862267114099E-02 
831	 9.69714160561552E-02 
832	 0.097832944844989 
833	 9.77874503498077E-02 
834	 9.76053697038272E-02 
835	 9.76104009493969E-02 
836	 9.78778996271613E-02 
837	 9.78968400057866E-02 
838	 9.71283031557274E-02 
839	 9.67529846106526E-02 
840	 9.70083407592146E-02 
841	 0.097826859727963 
842	 9.84130076831452E-02 
843	 9.83472750508333E-02 
844	 9.76265599593447E-02 
845	 9.70876437444666E-02 
846	 9.75972787548674E-02 
847	 9.74106582712251E-02 
848	 9.68327792054374E-02 
849	 9.79325354172051E-02 
850	 9.84444812549512E-02 
851	 9.77116684139221E-02 
852	 9.77801307968319E-02 
853	 9.82597336278055E-02 
854	 9.85475764285811E-02 
855	 0.098756272681824 
856	 9.87852196257125E-02 
857	 9.84363553371871E-02 
858	 9.76886242852152E-02 
859	 9.68291126982799E-02 
860	 9.71242713364515E-02 
861	 9.79303840776685E-02 
862	 9.85082862971071E-02 
863	 9.83362401817725E-02 
864	 0.097909456033282 
865	 9.86865990703169E-02 
866	 9.92746701484332E-02 
867	 9.92616648347363E-02 
868	 9.92269361012632E-02 
869	 9.89053574636284E-02 
870	 9.81955207155423E-02 
871	 9.83734132186729E-02 
872	 9.90762700260167E-02 
873	 9.91965760037726E-02 
874	 9.96754782677533E-02 
875	 0.100215223236056 
876	 9.84396371009033E-02 
877	 9.73081189887643E-02 
878	 9.86029514943016E-02 
879	 9.83119497781463E-02 
880	 9.76090485223381E-02 
881	 9.93071980529849E-02 
882	 9.93693279459098E-02 
883	 9.76108056096105E-02 
884	 9.72762444619187E-02 
885	 9.77864668184324E-02 
886	 9.86034012611691E-02 
887	 9.82834988356941E-02 
888	 9.75770583536299E-02 
889	 9.76844897803843E-02 
890	 9.73755614564495E-02 
891	 9.67893739835643E-02 
892	 9.71672827962463E-02 
893	 9.79773671188362E-02 
894	 9.88450935904836E-02 
895	 9.90657396913626E-02 
896	 9.92837181000299E-02 
897	 0.100256439986382 
898	 0.100557311805442 
899	 0.100231192292169 
900	 0.100354028463598 
901	 9.90793637227155E-02 
902	 0.096686014183952 
903	 0.096769545174198 
904	 9.79859857369689E-02 
905	 9.91174976160271E-02 
906	 0.09998128823638 
907	 0.100662599023457 
908	 0.101501477090591 
909	 0.100731334632933 
910	 9.88729088698877E-02 
911	 9.97989251689842E-02 
912	 0.101291801566147 
913	 0.101867296243388 
914	 0.101101635057817 
915	 0.100129568092837 
916	 0.10035433070199 
917	 0.10018250314547 
918	 0.099743625076425 
919	 0.100181382937331 
920	 0.101276223035161 
921	 0.102273198350166 
922	 9.97180587861765E-02 
923	 9.84573181033423E-02 
924	 0.102355757266619 
925	 0.101527375413071 
926	 9.78029617441382E-02 
927	 9.91035590134969E-02 
928	 9.98607128497237E-02 
929	 9.87654481274059E-02 
930	 9.89192593455825E-02 
931	 0.100386092664152 
932	 0.102397996137838 
933	 0.098254366008695 
934	 9.31754577269795E-02 
935	 9.60787624756783E-02 
936	 9.89816079254326E-02 
937	 9.88646065895016E-02 
938	 9.28259390278657E-02 
939	 9.13305357582321E-02 
940	 9.65455632781713E-02 
941	 0.102454453032968 
942	 0.103024179214793 
943	 9.56342624486048E-02 
944	 9.55480293074523E-02 
945	 0.10039555374063 
946	 0.103047722495733 
947	 0.1020231426359 
948	 9.90040158191729E-02 
949	 0.101411112006918 
950	 0.10332332089485 
951	 0.102254401344659 
952	 0.100050249285245 
953	 9.66531045798124E-02 
954	 9.27461431826212E-02 
955	 9.79184685759449E-02 
956	 0.105486407215768 
957	 0.101022521231698 
958	 9.62548858669052E-02 
959	 9.49982696523201E-02 
960	 9.88481366284609E-02 
961	 0.102836407643008 
962	 0.104217630762365 
963	 0.103754290612261 
964	 0.103317502154675 
965	 0.104423752124519 
966	 0.103684739898886 
967	 0.102227904185014 
968	 0.103552526502078 
969	 0.10149939390594 
970	 9.65328035971502E-02 
971	 9.71702912307531E-02 
972	 9.75668658743521E-02 
973	 9.52467035657015E-02 
974	 9.58626218372651E-02 
975	 9.99571181529361E-02 
976	 0.106723337455503 
977	 0.104472661447855 
978	 9.79961668939256E-02 
979	 0.102706521890391 
980	 0.106468581702166 
981	 0.105938731009997 
982	 0.102169378457037 
983	 0.100870891406257 
984	 0.104311620512048 
985	 0.105006701098445 
986	 0.10435602356121 
987	 0.104467744009477 
988	 0.102811601249478 
989	 0.100509604309368 
990	 0.100630291927646 
991	 0.099372832216803 
992	 0.096950553561319 
993	 9.76490649590466E-02 
994	 0.101280090320599 
995	 0.106035662558304 
996	 0.102677014278462 
997	 9.90435739466884E-02 
998	 0.102820154992222 
999	 0.102120220959215 
1000	 0.099828737987089 
1001	 0.104316782293602 
1002	 0.101574963144713 
1003	 9.38817477825114E-02 
1004	 0.101551855183884 
1005	 0.105657566781131 
1006	 9.98488251629823E-02 
1007	 9.40070454660652E-02 
1008	 9.08619713919195E-02 
1009	 9.24953259924841E-02 
1010	 0.100297701406114 
1011	 0.105405723273598 
1012	 9.62406589681045E-02 
1013	 9.30883244201074E-02 
1014	 9.76457762540703E-02 
1015	 0.102558732603341 
1016	 0.104590327580319 
1017	 0.102505674798238 
1018	 9.79483894844992E-02 
1019	 9.48933495923284E-02 
1020	 9.56198833682478E-02 
1021	 9.91694149056443E-02 
1022	 0.101899245038003 
1023	 0.100691225499352 
1024	 9.96690097237072E-02 
1025	 9.80968111601644E-02 
1026	 9.36860908665478E-02 
1027	 9.42064722653884E-02 
1028	 9.95303020802308E-02 
1029	 0.103695132818373 
1030	 0.103152853185984 
1031	 0.097160317397922 
1032	 8.91650805616371E-02 
1033	 0.08633830913911 
1034	 9.29410093053365E-02 
1035	 0.104409977110022 
1036	 0.111795456360418 
1037	 0.107212363415768 
1038	 9.73097060551544E-02 
1039	 9.04572416733056E-02 
1040	 9.77522997425553E-02 
1041	 0.100450870402638 
1042	 9.76043802680151E-02 
1043	 0.101529082877567 
1044	 0.101590501463538 
1045	 9.83621668788873E-02 
1046	 0.113523812508891 
1047	 0.112345502451539 
1048	 8.23758176293515E-02 
1049	 9.19375543114876E-02 
1050	 0.104203204736035 
1051	 8.41346884839839E-02 
1052	 0.087010145815807 
1053	 0.101760700229767 
1054	 9.83129260566012E-02 
1055	 9.93516506842473E-02 
1056	 0.109198774417444 
1057	 0.128361036837372 
1058	 0.121322475871139 
1059	 8.85267052923706E-02 
1060	 8.57992260389586E-02 
1061	 9.35083573215567E-02 
1062	 0.102443271432394 
1063	 0.111972106407378 
1064	 0.114975104610303 
1065	 0.110481535006873 
1066	 0.123068782465522 
1067	 0.138184674674912 
1068	 0.13925557442758 
1069	 0.142430907180075 
1070	 0.142429080132008 
1071	 0.126682697654418 
1072	 9.43880858387808E-02 
1073	 7.17203177443764E-02 
1074	 0.123000328771278 
1075	 0.132909774371186 
