Wavelength	A00042.asd
325	 5.97781952560696E-02 
326	 5.67062781911895E-02 
327	 6.26757866360061E-02 
328	 6.80124072071148E-02 
329	 7.12131067210738E-02 
330	 7.10555391456158E-02 
331	 6.51403762865519E-02 
332	 6.08671470374476E-02 
333	 6.49672378800873E-02 
334	 6.51120882474537E-02 
335	 6.26730433080285E-02 
336	 6.59319615859672E-02 
337	 6.77962417399311E-02 
338	 6.71975703826114E-02 
339	 7.08044957379447E-02 
340	 7.09400627027915E-02 
341	 0.062363248852632 
342	 5.93455756443484E-02 
343	 0.062200246681385 
344	 0.067879444465892 
345	 6.74271731106902E-02 
346	 6.17718025751408E-02 
347	 6.53566021954837E-02 
348	 6.88582684653334E-02 
349	 6.63423713992956E-02 
350	 0.06433488376079 
351	 6.34199146162028E-02 
352	 6.30180060621668E-02 
353	 0.063638715174608 
354	 6.49871278435149E-02 
355	 6.58203358195096E-02 
356	 6.62716369497974E-02 
357	 6.64708835081582E-02 
358	 6.66005324064067E-02 
359	 6.69644521429188E-02 
360	 6.80397556471439E-02 
361	 6.62792330685693E-02 
362	 6.28193442305832E-02 
363	 6.40765239666063E-02 
364	 6.59740781590821E-02 
365	 6.63262618454177E-02 
366	 6.63886986468852E-02 
367	 6.60385838335007E-02 
368	 6.49578012310557E-02 
369	 6.50893313270327E-02 
370	 6.61509414898086E-02 
371	 6.53439544133772E-02 
372	 6.56806866506071E-02 
373	 6.82757997586019E-02 
374	 6.87765926581342E-02 
375	 6.83705952123359E-02 
376	 6.93039095148148E-02 
377	 6.88476134021874E-02 
378	 6.72881028595379E-02 
379	 6.75753450630029E-02 
380	 6.77056567646234E-02 
381	 6.69434605873915E-02 
382	 6.73334089873367E-02 
383	 6.82794361919358E-02 
384	 6.87520437829717E-02 
385	 6.88583737333106E-02 
386	 0.068562518698093 
387	 6.77630792289792E-02 
388	 6.71636867057033E-02 
389	 6.70568381486105E-02 
390	 6.68525121658746E-02 
391	 6.72237289477722E-02 
392	 6.89396690240302E-02 
393	 0.069232898111669 
394	 6.82058064593782E-02 
395	 6.79968074396667E-02 
396	 6.76678083815666E-02 
397	 6.69937737857424E-02 
398	 6.68439919976261E-02 
399	 6.65825663285562E-02 
400	 6.55587546188446E-02 
401	 6.57545728597191E-02 
402	 0.066981568220277 
403	 0.068088070114079 
404	 6.85845478502572E-02 
405	 0.068426906932285 
406	 6.88996893693969E-02 
407	 6.96193582630629E-02 
408	 6.99641580435512E-02 
409	 6.92945671521994E-02 
410	 6.79889759188882E-02 
411	 6.73592793666175E-02 
412	 6.73466767538434E-02 
413	 6.78719269937236E-02 
414	 6.86045746590762E-02 
415	 6.91146574023476E-02 
416	 6.89397596293489E-02 
417	 6.88683535057712E-02 
418	 6.90391284419519E-02 
419	 6.92476908872365E-02 
420	 6.93483452630888E-02 
421	 6.93227637650759E-02 
422	 6.96657652397762E-02 
423	 7.01381067069274E-02 
424	 7.03175949361288E-02 
425	 7.06191836154228E-02 
426	 7.11348440664339E-02 
427	 7.18967716169036E-02 
428	 7.22017924442079E-02 
429	 7.16798675495644E-02 
430	 7.12888246962317E-02 
431	 7.11969543502207E-02 
432	 7.14707240337277E-02 
433	 7.09036301351457E-02 
434	 6.99133671567657E-02 
435	 7.11810581065228E-02 
436	 7.23693087986081E-02 
437	 7.20585838799046E-02 
438	 7.25263865917267E-02 
439	 7.32877651720786E-02 
440	 7.28464265570865E-02 
441	 7.26250967927003E-02 
442	 7.29520333714413E-02 
443	 7.33162095279888E-02 
444	 7.34179173592243E-02 
445	 7.31099415079653E-02 
446	 7.34298032152819E-02 
447	 7.41492233960718E-02 
448	 7.43775185528735E-02 
449	 7.45867731640141E-02 
450	 7.48583341290377E-02 
451	 7.48640560061323E-02 
452	 7.48931359145153E-02 
453	 7.52280242362551E-02 
454	 0.075446261960773 
455	 0.075503953809995 
456	 7.55142305956286E-02 
457	 7.55369119679686E-02 
458	 7.56685512528435E-02 
459	 7.62850595693373E-02 
460	 7.67344548663121E-02 
461	 7.62471240993902E-02 
462	 7.59097201397968E-02 
463	 7.59032042550496E-02 
464	 7.59096170308702E-02 
465	 0.076003631599571 
466	 7.62218019651661E-02 
467	 7.66603734095378E-02 
468	 7.69244517969833E-02 
469	 7.64451383429451E-02 
470	 7.63462956477397E-02 
471	 7.67670686160458E-02 
472	 7.70708760876304E-02 
473	 7.72209958809685E-02 
474	 7.71919476474726E-02 
475	 7.70033917368108E-02 
476	 7.69293797699815E-02 
477	 7.74549329217097E-02 
478	 7.75020521830245E-02 
479	 7.70524000575324E-02 
480	 7.74117085409354E-02 
481	 7.80484672151032E-02 
482	 7.84622438444544E-02 
483	 7.82922246310981E-02 
484	 7.78825991971103E-02 
485	 0.078240340960924 
486	 7.84586353073245E-02 
487	 7.83020816219748E-02 
488	 7.83624396697715E-02 
489	 7.84977827457074E-02 
490	 7.85217686382079E-02 
491	 7.82471748258957E-02 
492	 7.80043770364136E-02 
493	 7.88124387629617E-02 
494	 7.94510637603362E-02 
495	 0.079415918587133 
496	 7.92307078035136E-02 
497	 7.91728096148879E-02 
498	 0.079525922081361 
499	 7.98197293597233E-02 
500	 7.99269669546419E-02 
501	 7.98538599902879E-02 
502	 7.98726427203618E-02 
503	 8.01335939345907E-02 
504	 8.03511023263215E-02 
505	 8.06230528281658E-02 
506	 8.12104455821535E-02 
507	 0.081331054559493 
508	 8.09585608899359E-02 
509	 8.09036569593645E-02 
510	 8.11332046349474E-02 
511	 8.15568732134895E-02 
512	 8.16234334908732E-02 
513	 8.15391478165011E-02 
514	 8.20277693484846E-02 
515	 8.25445721817851E-02 
516	 8.28263146667685E-02 
517	 8.26342389287402E-02 
518	 8.23789009713035E-02 
519	 8.25069223424394E-02 
520	 8.24596729131264E-02 
521	 8.24202071934701E-02 
522	 8.32501545751877E-02 
523	 8.37564826005617E-02 
524	 8.35412940203489E-02 
525	 8.39797748315989E-02 
526	 8.45490256601978E-02 
527	 8.43079221199771E-02 
528	 8.42941663645433E-02 
529	 8.46002540357152E-02 
530	 8.45453301225109E-02 
531	 8.45766436270781E-02 
532	 8.49638612243083E-02 
533	 8.52948122486259E-02 
534	 8.54886278993337E-02 
535	 8.55097397578407E-02 
536	 8.55827951628181E-02 
537	 8.57752392460207E-02 
538	 8.59919353683026E-02 
539	 8.61857757064338E-02 
540	 8.63150307713241E-02 
541	 0.086430742324246 
542	 0.086502704152277 
543	 8.63591335431135E-02 
544	 8.65220040501811E-02 
545	 8.71276509167234E-02 
546	 8.75868903749499E-02 
547	 8.76537353227328E-02 
548	 8.70976067901997E-02 
549	 0.087040047576668 
550	 8.76210568891253E-02 
551	 8.82782662623929E-02 
552	 0.088643771298079 
553	 8.84979594585082E-02 
554	 8.82192272135198E-02 
555	 8.80663473617954E-02 
556	 0.088402590975522 
557	 8.86053018568774E-02 
558	 8.85729836085931E-02 
559	 8.88820279226093E-02 
560	 8.91957305120782E-02 
561	 8.92031615717443E-02 
562	 8.92782182253292E-02 
563	 8.94433150905134E-02 
564	 8.95817250348472E-02 
565	 8.96469824470365E-02 
566	 8.96519414207289E-02 
567	 8.98401485409982E-02 
568	 9.00396883355445E-02 
569	 9.00080230083034E-02 
570	 9.01030064413859E-02 
571	 9.03641355102106E-02 
572	 9.06290564151384E-02 
573	 9.07818818961458E-02 
574	 9.07649650261127E-02 
575	 9.07664031673989E-02 
576	 9.07932467202599E-02 
577	 0.090788241272446 
578	 9.09857945506267E-02 
579	 9.13041585483559E-02 
580	 9.10374589818931E-02 
581	 9.08420945570051E-02 
582	 9.12707605160243E-02 
583	 0.091453315085845 
584	 9.13583915104642E-02 
585	 0.091307721548184 
586	 9.13750131006151E-02 
587	 9.15475335995904E-02 
588	 9.14388058260569E-02 
589	 9.12408710080427E-02 
590	 9.12527681156806E-02 
591	 9.11500284986244E-02 
592	 9.09673700096853E-02 
593	 9.10347500843475E-02 
594	 9.12020831606123E-02 
595	 9.13601777770645E-02 
596	 9.13783406488785E-02 
597	 9.13780309903118E-02 
598	 9.16328092566609E-02 
599	 0.091539223963611 
600	 9.11364136431527E-02 
601	 9.14739606975156E-02 
602	 9.17958677855132E-02 
603	 9.14561660099763E-02 
604	 9.14530588536117E-02 
605	 9.17507301063576E-02 
606	 9.17886362293324E-02 
607	 9.18930526026135E-02 
608	 0.092138488621464 
609	 9.22607090831181E-02 
610	 9.22135237237049E-02 
611	 9.19778079566959E-02 
612	 9.20592770397299E-02 
613	 9.24130151328664E-02 
614	 9.24800287209298E-02 
615	 9.22906329197073E-02 
616	 9.19150778047245E-02 
617	 9.17982548842198E-02 
618	 9.18376225619211E-02 
619	 9.17112584490295E-02 
620	 9.19035838649455E-02 
621	 9.23416213132198E-02 
622	 9.21044094709217E-02 
623	 9.17389815897414E-02 
624	 9.17627549473376E-02 
625	 9.19011157939427E-02 
626	 9.20401335133301E-02 
627	 9.20238740388526E-02 
628	 9.19546563312774E-02 
629	 9.18954215245813E-02 
630	 0.091956032511761 
631	 9.20305867094962E-02 
632	 9.19783967649156E-02 
633	 9.22315071296125E-02 
634	 9.26371534621101E-02 
635	 0.092334691774918 
636	 9.21635984402085E-02 
637	 9.25625433629881E-02 
638	 9.27689019003621E-02 
639	 9.27195466449985E-02 
640	 9.24606061602394E-02 
641	 9.25277554440475E-02 
642	 9.29040864808996E-02 
643	 9.26434131018168E-02 
644	 9.24602313416925E-02 
645	 9.29616863002687E-02 
646	 9.32339525732541E-02 
647	 0.093171930181725 
648	 9.29436131426776E-02 
649	 9.28716775828647E-02 
650	 9.30230913848906E-02 
651	 9.28493451414582E-02 
652	 0.092563386344428 
653	 9.24677607599431E-02 
654	 9.25005477328433E-02 
655	 9.25949659135743E-02 
656	 9.25585418692456E-02 
657	 9.24809317209567E-02 
658	 9.23767746200841E-02 
659	 9.19059791709939E-02 
660	 9.13548313823035E-02 
661	 9.12459673282338E-02 
662	 9.09216002759992E-02 
663	 9.03682411783378E-02 
664	 9.03380573543455E-02 
665	 9.04440684941173E-02 
666	 9.03424602943256E-02 
667	 9.01896805708767E-02 
668	 9.00022083336643E-02 
669	 8.97734487064275E-02 
670	 8.94465649873862E-02 
671	 8.91366549127022E-02 
672	 8.95569423772668E-02 
673	 9.00573311834088E-02 
674	 8.98588437190632E-02 
675	 8.98831248907058E-02 
676	 9.01617507713314E-02 
677	 9.01407489333701E-02 
678	 9.00813982561364E-02 
679	 9.01268696837354E-02 
680	 9.02104751979757E-02 
681	 0.090443148985385 
682	 9.10072478468851E-02 
683	 9.15874016770645E-02 
684	 9.20270379581817E-02 
685	 9.21628275552453E-02 
686	 9.23441362457474E-02 
687	 9.28379551072562E-02 
688	 9.28968995961446E-02 
689	 9.28357409472001E-02 
690	 9.36213997016876E-02 
691	 9.45726077087901E-02 
692	 9.53414695582412E-02 
693	 9.53443769345635E-02 
694	 9.52031925388141E-02 
695	 9.55856442958955E-02 
696	 9.60313304488568E-02 
697	 9.64195919439639E-02 
698	 9.67258162600298E-02 
699	 9.68332525283889E-02 
700	 9.67361170060888E-02 
701	 9.68434711193278E-02 
702	 9.70773310234766E-02 
703	 9.72615229940179E-02 
704	 9.73293972131255E-02 
705	 9.73279776858553E-02 
706	 9.74590599971376E-02 
707	 9.77643807965172E-02 
708	 9.81665280732531E-02 
709	 9.76930194958973E-02 
710	 9.70825641599534E-02 
711	 9.79554169561026E-02 
712	 9.86276978343225E-02 
713	 9.86381651520922E-02 
714	 9.84461594752951E-02 
715	 9.84380379797957E-02 
716	 9.89363551762215E-02 
717	 9.89581902263471E-02 
718	 9.86586091274703E-02 
719	 9.92996362766935E-02 
720	 0.099857808124697 
721	 9.99481404517387E-02 
722	 9.98931317573138E-02 
723	 9.94494184074061E-02 
724	 9.83242949662163E-02 
725	 9.85591482846998E-02 
726	 9.99667509145761E-02 
727	 0.100474859590438 
728	 0.100496119782698 
729	 0.100239575268278 
730	 9.99137385776539E-02 
731	 9.98824209981929E-02 
732	 0.100562723739113 
733	 0.100622420269952 
734	 0.100134633572862 
735	 0.100479480957313 
736	 0.100880870224806 
737	 0.100814339935527 
738	 0.100550780196698 
739	 0.100362016932645 
740	 0.100665629155964 
741	 0.101094315024536 
742	 0.101429913464048 
743	 0.10141452489419 
744	 0.101021450369918 
745	 0.100329563931023 
746	 0.100470629630577 
747	 0.10117185032546 
748	 0.101317336400826 
749	 0.101274901054504 
750	 0.101190968088109 
751	 0.101257679443732 
752	 0.10150148994513 
753	 0.101906631989613 
754	 0.101965606345539 
755	 0.101790141974383 
756	 0.102037966473625 
757	 0.10219271517795 
758	 0.1020725116271 
759	 0.102150653865187 
760	 0.102594888328376 
761	 0.103224819682832 
762	 0.103348109606281 
763	 0.103079536982446 
764	 0.102997751001319 
765	 0.103107794128811 
766	 0.103350262459067 
767	 0.103547075820115 
768	 0.103523937465179 
769	 0.103047663786087 
770	 0.102935652303028 
771	 0.103208084119713 
772	 0.103104798744819 
773	 0.103024738680246 
774	 0.103216721589119 
775	 0.103396618187827 
776	 0.103496743057471 
777	 0.103460267664336 
778	 0.103624253289321 
779	 0.103941976644228 
780	 0.103732811500818 
781	 0.103589138337956 
782	 0.103937134344672 
783	 0.103877976771381 
784	 0.103696099977265 
785	 0.104346873510128 
786	 0.104646695989436 
787	 0.104336982280547 
788	 0.104187411341533 
789	 0.104335798332929 
790	 0.104811263046058 
791	 0.104634177394437 
792	 0.104196882270718 
793	 0.10497513277916 
794	 0.105411022546879 
795	 0.105091583631497 
796	 0.104980782094728 
797	 0.104969257560722 
798	 0.104901064426881 
799	 0.104974301221729 
800	 0.105141328843034 
801	 0.10515783550488 
802	 0.105324531387849 
803	 0.105639034911405 
804	 0.105425832050063 
805	 0.105169141379666 
806	 0.105412058906893 
807	 0.10534379899159 
808	 0.105073410257128 
809	 0.105422575815958 
810	 0.105637120354215 
811	 0.105460000460426 
812	 0.105478436445772 
813	 0.105693458927873 
814	 0.106038725837722 
815	 0.10648781473359 
816	 0.106931060023047 
817	 0.107225930317529 
818	 0.106923580238061 
819	 0.106147054093468 
820	 0.10659940510523 
821	 0.107268274273084 
822	 0.106830352183091 
823	 0.106295012919739 
824	 0.106050266920977 
825	 0.106462829649794 
826	 0.106809690975889 
827	 0.10682485888222 
828	 0.10709462323754 
829	 0.106968503501672 
830	 0.105691775330246 
831	 0.105812837410574 
832	 0.107186858813937 
833	 0.107825400020115 
834	 0.107731714349543 
835	 0.107089891095606 
836	 0.107323258518273 
837	 0.107601300525037 
838	 0.106891785482443 
839	 0.10652593758176 
840	 0.106714708940761 
841	 0.107228134776668 
842	 0.107668119244813 
843	 0.107765960195589 
844	 0.107234886618237 
845	 0.106901980949463 
846	 0.107645277746862 
847	 0.107683091713178 
848	 0.10710463231042 
849	 0.107260478636071 
850	 0.107631260996828 
851	 0.107953172391561 
852	 0.107958957352297 
853	 0.107574701795476 
854	 0.106844100840779 
855	 0.107144639624142 
856	 0.107999411840778 
857	 0.107482659185812 
858	 0.107265120983717 
859	 0.107605788295559 
860	 0.106689520213129 
861	 0.106309460856374 
862	 0.108034867356845 
863	 0.108075717334828 
864	 0.1072530387579 
865	 0.10937654755271 
866	 0.110089258444811 
867	 0.108513138022226 
868	 0.107912310858628 
869	 0.108181306512421 
870	 0.109018263427863 
871	 0.109525600538092 
872	 0.109522309813971 
873	 0.108947362477879 
874	 0.109338949566581 
875	 0.110347734351882 
876	 0.1083486718137 
877	 0.106782577733138 
878	 0.107877350318785 
879	 0.108334619271524 
880	 0.108203536331147 
881	 0.108357277237584 
882	 0.107104636528998 
883	 0.105219571287357 
884	 0.10687411265918 
885	 0.108834475346324 
886	 0.109165706417878 
887	 0.108317619339057 
888	 0.107707119893827 
889	 0.109074660272358 
890	 0.109559820659005 
891	 0.108840034426124 
892	 0.108086866007001 
893	 0.107787818841635 
894	 0.10813746574203 
895	 0.108112433960366 
896	 0.108255883506124 
897	 0.109199931392679 
898	 0.109108346776625 
899	 0.108403298366287 
900	 0.109219807305435 
901	 0.109317909430136 
902	 0.108353016295834 
903	 0.108147741446692 
904	 0.108328085953997 
905	 0.108539935490298 
906	 0.108524927342085 
907	 0.109025730763453 
908	 0.11151607121704 
909	 0.111714985205606 
910	 0.109470807247382 
911	 0.109425554464828 
912	 0.110077726973125 
913	 0.110438017208423 
914	 0.109773418282353 
915	 0.109907974796543 
916	 0.112925479395325 
917	 0.112818229671344 
918	 0.109739904276954 
919	 0.106823112811548 
920	 0.108511254231312 
921	 0.114085587677607 
922	 0.110781844509142 
923	 0.106792971581658 
924	 0.109509364053502 
925	 0.108896854620623 
926	 0.106523498560263 
927	 0.109623061651314 
928	 0.111106256880259 
929	 0.108841093710132 
930	 0.105770585189898 
931	 0.104116498576663 
932	 0.105668469554954 
933	 0.106323395804609 
934	 0.106794169868519 
935	 0.109000924928174 
936	 0.111745633530788 
937	 0.114337328040598 
938	 0.116545548881155 
939	 0.115092641620495 
940	 0.111142074429151 
941	 0.115051920835732 
942	 0.115407704976828 
943	 0.105589134429229 
944	 0.105632008623734 
945	 0.112413627628085 
946	 0.116777403170214 
947	 0.114691534958862 
948	 0.109827590908528 
949	 0.119060855894949 
950	 0.122413890426852 
951	 0.114183606794583 
952	 0.113932301943435 
953	 0.116158325509052 
954	 0.114905632250423 
955	 0.11567313893839 
956	 0.11608815192243 
957	 0.110262736552086 
958	 0.112051882864169 
959	 0.119644377548335 
960	 0.114640810882616 
961	 0.111493320633678 
962	 0.115736775907133 
963	 0.116153896340839 
964	 0.115620017150048 
965	 0.117229384709425 
966	 0.113378980881244 
967	 0.10769221114369 
968	 0.10948094505831 
969	 0.109071711857055 
970	 0.106074427686589 
971	 0.109494983597695 
972	 0.112950469919674 
973	 0.113180706936323 
974	 0.113279437892455 
975	 0.115052533569397 
976	 0.11949650400996 
977	 0.115596421956345 
978	 0.107427827051048 
979	 0.108379251384409 
980	 0.110240344731611 
981	 0.110559030498533 
982	 0.109164884140751 
983	 0.10929493697082 
984	 0.11239646744882 
985	 0.11538055870951 
986	 0.117784103011783 
987	 0.119278263128044 
988	 0.117090697258395 
989	 0.113382393982589 
990	 0.113393609613172 
991	 0.111758846572152 
992	 0.10881245786779 
993	 0.111223221345511 
994	 0.113806969281005 
995	 0.113744029972828 
996	 0.111636582314383 
997	 0.109152193658096 
998	 0.108190671637556 
999	 0.11036425497417 
1000	 0.114201007543483 
1001	 0.116874207673375 
1002	 0.111926767086353 
1003	 0.103505204314152 
1004	 0.111558940468932 
1005	 0.115777254524384 
1006	 0.10988781014184 
1007	 0.107694003750824 
1008	 0.106943145897908 
1009	 0.106154292270849 
1010	 0.112104526684788 
1011	 0.11746237532118 
1012	 0.11158594505221 
1013	 0.111830753151602 
1014	 0.116125543298954 
1015	 0.10980730091078 
1016	 0.10628568426346 
1017	 0.10882974621306 
1018	 0.112264740498809 
1019	 0.113708804703332 
1020	 0.112439062461787 
1021	 0.115459870127912 
1022	 0.116794106288804 
1023	 0.111317047012432 
1024	 0.114017018992349 
1025	 0.117488458339897 
1026	 0.105826146180753 
1027	 0.10172071995184 
1028	 0.10674683732815 
1029	 0.107739742106579 
1030	 0.104364155203541 
1031	 9.98808891300976E-02 
1032	 0.111341630128664 
1033	 0.120150693018699 
1034	 0.115201772998454 
1035	 0.110799304488894 
1036	 0.110928888084872 
1037	 0.117455787756074 
1038	 0.119447971564898 
1039	 0.117152628833111 
1040	 0.115119407429269 
1041	 0.106804467664999 
1042	 9.87370420016677E-02 
1043	 0.112613339593298 
1044	 0.121913999452017 
1045	 0.119327841681072 
1046	 0.126270611267694 
1047	 0.117015636016859 
1048	 0.084149439944266 
1049	 8.89645047907267E-02 
1050	 0.105735840659324 
1051	 0.106906789852128 
1052	 0.11714526896627 
1053	 0.126129288765857 
1054	 0.114497950328771 
1055	 0.130277397987214 
1056	 0.162039296769726 
1057	 0.160867309064439 
1058	 0.137840188576975 
1059	 0.105014759635238 
1060	 0.108321980819226 
1061	 0.111957817667338 
1062	 0.104333361418612 
1063	 0.118648351412703 
1064	 0.130266730405487 
1065	 0.124055290270812 
1066	 0.135428678337454 
1067	 0.142456617610232 
1068	 0.121722156706342 
1069	 0.122769629911891 
1070	 0.140593139718825 
1071	 0.148409793566022 
1072	 0.117090405299692 
1073	 7.31216819425122E-02 
1074	 9.63979609644568E-02 
1075	 0.120376315847139 
