Wavelength	A00155.asd
325	 4.90622558035552E-02 
326	 5.40829033009361E-02 
327	 0.060055277056627 
328	 6.16012766274216E-02 
329	 5.91285617199509E-02 
330	 5.36648668462941E-02 
331	 4.79647782734677E-02 
332	 4.52881170842408E-02 
333	 4.83140332708609E-02 
334	 5.19960379843228E-02 
335	 5.43843943963806E-02 
336	 5.33434635904584E-02 
337	 0.053557209131673 
338	 5.63598466180325E-02 
339	 6.17072937550414E-02 
340	 6.10227879468258E-02 
341	 4.92880660171236E-02 
342	 4.89135993292537E-02 
343	 5.63680662549752E-02 
344	 5.94648501990458E-02 
345	 5.60987043669644E-02 
346	 0.048769996240385 
347	 4.97378571435667E-02 
348	 5.33843960746182E-02 
349	 0.05533047450831 
350	 5.40154000081414E-02 
351	 5.25487407363738E-02 
352	 5.63345828292892E-02 
353	 5.59998691787919E-02 
354	 5.19388015037889E-02 
355	 0.054709271009283 
356	 0.056450574760479 
357	 5.30803504432289E-02 
358	 5.22071697215978E-02 
359	 5.36349046735168E-02 
360	 0.055690095170864 
361	 5.60488521668751E-02 
362	 5.48075442499275E-02 
363	 0.054483769927179 
364	 0.05484221519661 
365	 5.55320571324941E-02 
366	 5.52495039933265E-02 
367	 5.41262627742011E-02 
368	 5.25066228159557E-02 
369	 5.27979363615084E-02 
370	 5.45307339081585E-02 
371	 5.40890370000308E-02 
372	 5.36437301524501E-02 
373	 5.43975865014378E-02 
374	 5.61559054263664E-02 
375	 5.74259910903009E-02 
376	 5.63272795487435E-02 
377	 5.53628367971464E-02 
378	 0.055141744157856 
379	 5.54693529167275E-02 
380	 5.55651193692331E-02 
381	 5.51106337870704E-02 
382	 5.48364858825902E-02 
383	 5.52432318010402E-02 
384	 5.68529017960332E-02 
385	 5.82300884200513E-02 
386	 5.87610661108388E-02 
387	 0.058132114513962 
388	 5.71139185198125E-02 
389	 5.62268452866165E-02 
390	 5.57911149461022E-02 
391	 5.61188179573091E-02 
392	 5.74620970391275E-02 
393	 5.73729299710326E-02 
394	 5.62452723102975E-02 
395	 5.68225681756242E-02 
396	 5.72495411121387E-02 
397	 5.69338932551776E-02 
398	 5.73230409904447E-02 
399	 5.71355529428231E-02 
400	 5.51177133158646E-02 
401	 5.48176962163327E-02 
402	 5.61442400188921E-02 
403	 0.05743768157311 
404	 5.80705186780108E-02 
405	 5.79440710727913E-02 
406	 5.85972782955748E-02 
407	 5.92162749971919E-02 
408	 5.86585486758429E-02 
409	 5.83506475393615E-02 
410	 0.05839923318737 
411	 5.80445736659017E-02 
412	 5.81026276526531E-02 
413	 5.87425757075994E-02 
414	 5.84722095514666E-02 
415	 5.79928860493188E-02 
416	 5.83761224738055E-02 
417	 5.83532749710374E-02 
418	 5.81143443445255E-02 
419	 5.93327195606358E-02 
420	 5.98127719503987E-02 
421	 5.86930335104555E-02 
422	 5.88858372550388E-02 
423	 5.98619132636759E-02 
424	 0.060385790390787 
425	 6.05267397160626E-02 
426	 6.04962667499253E-02 
427	 6.11372650000063E-02 
428	 0.061667609092959 
429	 6.15963723595277E-02 
430	 6.13927316504991E-02 
431	 6.12371543604383E-02 
432	 0.061312351543943 
433	 6.12604427696361E-02 
434	 6.11644342450559E-02 
435	 6.17159883668363E-02 
436	 6.20733775710135E-02 
437	 6.17797047448613E-02 
438	 0.062101018914473 
439	 6.27300344011245E-02 
440	 6.27739263556522E-02 
441	 6.28283554048113E-02 
442	 6.30139689908722E-02 
443	 6.30643985203323E-02 
444	 6.31916426954852E-02 
445	 6.35548475796115E-02 
446	 6.38786979500698E-02 
447	 6.41330937136403E-02 
448	 0.064365103369239 
449	 6.46098575786909E-02 
450	 6.48394667879678E-02 
451	 6.48114073566682E-02 
452	 6.49019697209962E-02 
453	 6.54637225421385E-02 
454	 6.58106098863543E-02 
455	 6.59398385650961E-02 
456	 6.63159410922413E-02 
457	 6.62776916668145E-02 
458	 6.57895238939542E-02 
459	 6.62737487575059E-02 
460	 0.06694227501325 
461	 6.67450103255487E-02 
462	 6.64976188348139E-02 
463	 6.63931126521789E-02 
464	 6.64199949707545E-02 
465	 6.64900405604507E-02 
466	 0.066569162802729 
467	 6.67981371046208E-02 
468	 6.70223663062869E-02 
469	 6.69995802328994E-02 
470	 6.72168945014067E-02 
471	 6.76364269628848E-02 
472	 6.76929013654152E-02 
473	 6.75812613633085E-02 
474	 6.74599667832098E-02 
475	 6.75287079740144E-02 
476	 6.76742275222478E-02 
477	 6.76500830666382E-02 
478	 6.75177789919637E-02 
479	 6.74248181181816E-02 
480	 6.78686868927696E-02 
481	 6.84206467948125E-02 
482	 6.87016454297498E-02 
483	 6.85867317177999E-02 
484	 6.83692944671291E-02 
485	 6.88270929351286E-02 
486	 6.90949774384454E-02 
487	 6.90013736448805E-02 
488	 6.94410217052321E-02 
489	 6.99022224284249E-02 
490	 6.98288402043324E-02 
491	 6.93512456293173E-02 
492	 6.89831626355101E-02 
493	 7.00822866889076E-02 
494	 7.08013395852565E-02 
495	 0.070430554378045 
496	 7.00872762197246E-02 
497	 6.99938755464562E-02 
498	 7.02828983157565E-02 
499	 7.10093125936263E-02 
500	 7.18408798002827E-02 
501	 7.17113544868081E-02 
502	 7.14917328623176E-02 
503	 7.17143874621344E-02 
504	 7.20704097760372E-02 
505	 7.23696984732344E-02 
506	 0.072359748283332 
507	 7.24073092717419E-02 
508	 7.26208330436167E-02 
509	 7.29881505280208E-02 
510	 7.32163580711537E-02 
511	 7.31135480347852E-02 
512	 7.32486626237262E-02 
513	 7.36146491725686E-02 
514	 7.39822087133909E-02 
515	 7.42537970256458E-02 
516	 7.43822621696988E-02 
517	 7.44396841092878E-02 
518	 7.45116485667784E-02 
519	 7.46753037531195E-02 
520	 7.47211780352784E-02 
521	 7.47480923345795E-02 
522	 7.51203478246839E-02 
523	 7.55589716709033E-02 
524	 7.59538977911143E-02 
525	 7.65633492138085E-02 
526	 7.69475410672107E-02 
527	 7.64579084537471E-02 
528	 7.63495355367284E-02 
529	 7.67426550140232E-02 
530	 7.67432042630257E-02 
531	 7.69484308239606E-02 
532	 0.077684402480891 
533	 7.81275301712799E-02 
534	 7.82148472133423E-02 
535	 7.80332600552192E-02 
536	 7.82395009315769E-02 
537	 7.88794043609043E-02 
538	 7.90136828907545E-02 
539	 7.90060056345311E-02 
540	 7.92375816126003E-02 
541	 7.93355076793146E-02 
542	 7.93425119541792E-02 
543	 7.95495070839251E-02 
544	 7.97531945443372E-02 
545	 7.99064891677151E-02 
546	 8.02914999431787E-02 
547	 8.06058922201567E-02 
548	 0.080433790261763 
549	 8.04160634127885E-02 
550	 8.06870185461278E-02 
551	 8.11045344020541E-02 
552	 8.14831813073949E-02 
553	 8.16864255180815E-02 
554	 8.16919842587246E-02 
555	 8.16778808208537E-02 
556	 8.19694928873424E-02 
557	 8.23107476072016E-02 
558	 8.25606548605336E-02 
559	 8.25080688224757E-02 
560	 8.24056595876667E-02 
561	 8.25028512628989E-02 
562	 8.28271313221309E-02 
563	 8.32072364238085E-02 
564	 8.31797977880816E-02 
565	 8.32265788090322E-02 
566	 8.34711756987483E-02 
567	 8.33730674550755E-02 
568	 8.32157543605602E-02 
569	 8.34131115936197E-02 
570	 8.33809863951575E-02 
571	 8.32740723499642E-02 
572	 8.42016358752532E-02 
573	 8.46420350408678E-02 
574	 8.38485101522179E-02 
575	 8.39009126754602E-02 
576	 0.084501197164326 
577	 8.45800580729261E-02 
578	 0.084490375247297 
579	 8.43511709298566E-02 
580	 8.42887293454611E-02 
581	 0.084272167551317 
582	 8.42828557513884E-02 
583	 0.0845458678924 
584	 8.49306312265716E-02 
585	 8.50475340644898E-02 
586	 8.49805400050442E-02 
587	 8.47981737557063E-02 
588	 8.47522422276067E-02 
589	 8.48226555369566E-02 
590	 8.49418196885935E-02 
591	 8.49711299505664E-02 
592	 8.48868471959848E-02 
593	 8.47127861098516E-02 
594	 8.47016121810712E-02 
595	 8.49751029186361E-02 
596	 8.51678149917389E-02 
597	 8.53320231544955E-02 
598	 8.56862597793166E-02 
599	 0.085653862632555 
600	 8.52377027147134E-02 
601	 8.53435786871885E-02 
602	 8.52582563277025E-02 
603	 8.44428963035955E-02 
604	 8.46686271202658E-02 
605	 8.56035117283801E-02 
606	 8.56472046920434E-02 
607	 8.54623362456776E-02 
608	 8.53167638544581E-02 
609	 8.54191618001346E-02 
610	 8.54399913481025E-02 
611	 8.49489961542109E-02 
612	 8.49826926175493E-02 
613	 8.54991682289728E-02 
614	 8.55042661733443E-02 
615	 8.52790356405767E-02 
616	 8.50228108304659E-02 
617	 8.49214704840149E-02 
618	 0.084953623244433 
619	 0.085014584784015 
620	 0.085169609451478 
621	 8.53617324221572E-02 
622	 0.08534236026029 
623	 8.51352110700127E-02 
624	 8.48025061143193E-02 
625	 8.47290541781278E-02 
626	 8.49210570335397E-02 
627	 8.52165821540727E-02 
628	 8.53590880413099E-02 
629	 8.52580345730257E-02 
630	 8.52141365110906E-02 
631	 8.51098785056279E-02 
632	 8.47751404847472E-02 
633	 8.50907383443121E-02 
634	 8.58873337865792E-02 
635	 8.59922260305101E-02 
636	 0.085655329573541 
637	 8.51280497763793E-02 
638	 0.085169845653325 
639	 8.55735950849095E-02 
640	 8.57816185618117E-02 
641	 8.59170915292162E-02 
642	 8.59492743574958E-02 
643	 8.56144043787454E-02 
644	 8.56341154257772E-02 
645	 8.65479508963835E-02 
646	 8.67251954219104E-02 
647	 8.61303119929247E-02 
648	 8.54489301354757E-02 
649	 0.085188865644856 
650	 8.54622851974985E-02 
651	 8.52733175385586E-02 
652	 8.49781827792349E-02 
653	 8.50962831215948E-02 
654	 8.54659041040965E-02 
655	 0.085906245943763 
656	 8.59173409896472E-02 
657	 0.085719989628662 
658	 8.54321360142898E-02 
659	 8.46543979589491E-02 
660	 8.39675723579503E-02 
661	 8.43964227368714E-02 
662	 8.42598052741387E-02 
663	 8.34029838748292E-02 
664	 8.33569108682064E-02 
665	 8.36506264818355E-02 
666	 8.37983651148172E-02 
667	 8.32617142875601E-02 
668	 0.082504716985815 
669	 0.083020788401689 
670	 8.28808680058297E-02 
671	 8.17540518878378E-02 
672	 8.20474682332772E-02 
673	 8.27135198698347E-02 
674	 8.23706544159207E-02 
675	 8.23156461256448E-02 
676	 8.25681895005311E-02 
677	 8.22456230059357E-02 
678	 8.21934866182413E-02 
679	 0.082783596978613 
680	 8.32005374194318E-02 
681	 8.33865420789229E-02 
682	 8.34013470871906E-02 
683	 8.38267275155584E-02 
684	 8.45709720602575E-02 
685	 8.45433850237264E-02 
686	 8.44421535588577E-02 
687	 8.48811329896323E-02 
688	 8.52875703422511E-02 
689	 0.0856053578783 
690	 8.59878298252418E-02 
691	 8.66599361056239E-02 
692	 8.75225814330417E-02 
693	 8.76695416769976E-02 
694	 0.087660586717946 
695	 8.81137059841508E-02 
696	 8.86165584456962E-02 
697	 8.90743618517594E-02 
698	 8.95079936091302E-02 
699	 8.97295347631673E-02 
700	 0.089714571613046 
701	 9.00036069828869E-02 
702	 9.04577965161684E-02 
703	 9.07959945794229E-02 
704	 9.12085091946274E-02 
705	 9.15743766209454E-02 
706	 9.13460650226618E-02 
707	 9.10912677798498E-02 
708	 9.11429330720085E-02 
709	 9.08700341536858E-02 
710	 9.06055012348244E-02 
711	 9.11060377885586E-02 
712	 9.16815145527951E-02 
713	 9.20663281950592E-02 
714	 9.21222954663135E-02 
715	 9.23642510043234E-02 
716	 9.32504486525396E-02 
717	 9.34602833136709E-02 
718	 9.30676720516008E-02 
719	 9.34037708826492E-02 
720	 9.36910514972538E-02 
721	 9.36567934955735E-02 
722	 9.34058078946207E-02 
723	 9.31015482361235E-02 
724	 9.29349515500882E-02 
725	 9.30076805074959E-02 
726	 9.33521014797562E-02 
727	 9.40331160474042E-02 
728	 9.44640688897037E-02 
729	 0.09434888678194 
730	 0.093998282099159 
731	 9.37757005157671E-02 
732	 9.40968989962768E-02 
733	 9.41741621949907E-02 
734	 9.40343017718372E-02 
735	 9.44368499190137E-02 
736	 9.49060631307649E-02 
737	 0.095101625850119 
738	 9.51497621454055E-02 
739	 9.50907875448113E-02 
740	 0.094949877093613 
741	 9.49736084541911E-02 
742	 9.52049812345164E-02 
743	 0.095504790311166 
744	 9.54902615828284E-02 
745	 9.49204607203304E-02 
746	 9.48570324600665E-02 
747	 9.52295902407563E-02 
748	 9.54327048766365E-02 
749	 9.54268699921136E-02 
750	 0.095220682719208 
751	 9.50787382208562E-02 
752	 9.51772608689398E-02 
753	 9.56380648120744E-02 
754	 9.55656572182336E-02 
755	 9.51867684393558E-02 
756	 9.57282645287329E-02 
757	 9.61805797823208E-02 
758	 9.61491866644643E-02 
759	 9.62218540980529E-02 
760	 9.66207658523841E-02 
761	 9.73372487851617E-02 
762	 9.75123303552736E-02 
763	 9.72154021747221E-02 
764	 9.69411440298425E-02 
765	 9.73734124072059E-02 
766	 0.098359781574883 
767	 9.81061780894914E-02 
768	 0.097397596515334 
769	 9.72319571869517E-02 
770	 9.73354093398395E-02 
771	 0.09749922839587 
772	 9.70887390503644E-02 
773	 9.68600326808423E-02 
774	 9.72613663218149E-02 
775	 9.74572512522105E-02 
776	 0.097497326479075 
777	 9.76912228778553E-02 
778	 9.80009273242103E-02 
779	 9.82926123710837E-02 
780	 9.79949017350049E-02 
781	 9.79432835861223E-02 
782	 9.86988503566287E-02 
783	 9.87319698247411E-02 
784	 9.82787300296928E-02 
785	 0.098341059853509 
786	 9.88007391837896E-02 
787	 0.099427797781112 
788	 0.099212259513232 
789	 9.88766807247817E-02 
790	 9.91148867260023E-02 
791	 9.92320798624376E-02 
792	 9.92452234614301E-02 
793	 9.95381468083464E-02 
794	 0.099586482739247 
795	 9.93102301451581E-02 
796	 9.93093019637123E-02 
797	 9.94536669046481E-02 
798	 9.95692334790403E-02 
799	 9.96030914358503E-02 
800	 9.95831338809532E-02 
801	 9.96322246190873E-02 
802	 9.96580679710785E-02 
803	 9.96531401433344E-02 
804	 9.97784657170877E-02 
805	 9.98760401225152E-02 
806	 9.97831248113102E-02 
807	 9.99321271873981E-02 
808	 0.100293135475285 
809	 0.100547707208577 
810	 0.100642996659789 
811	 0.100555078502693 
812	 0.100356497869029 
813	 0.100378735880163 
814	 0.101024774377941 
815	 0.10156151814072 
816	 0.101840482816321 
817	 0.10225037665586 
818	 0.101884500932167 
819	 0.100726223229469 
820	 0.100729641889571 
821	 0.101318583716132 
822	 0.101633268818085 
823	 0.101467438217147 
824	 0.10100840687753 
825	 0.100945414778222 
826	 0.101055986492337 
827	 0.101286700632084 
828	 0.101909572647348 
829	 0.102184098098651 
830	 0.101257095956805 
831	 0.101022426398531 
832	 0.10151998820261 
833	 0.101512325798558 
834	 0.101744240912461 
835	 0.10231421395378 
836	 0.102081463074034 
837	 0.101407273314472 
838	 0.10082888482765 
839	 0.101009471702112 
840	 0.101761346063953 
841	 0.102113466629901 
842	 0.102427040952252 
843	 0.102657843916431 
844	 0.101762710583039 
845	 0.10106206614562 
846	 0.102023205777967 
847	 0.102175891520727 
848	 0.101517747900727 
849	 0.101567060766368 
850	 0.101863209554861 
851	 0.102202488558124 
852	 0.102396327362857 
853	 0.102320126672377 
854	 0.101914803336595 
855	 0.101934864909348 
856	 0.102286186475212 
857	 0.102385858459859 
858	 0.10216202798711 
859	 0.101689484450129 
860	 0.101462563730913 
861	 0.101792994059432 
862	 0.102798445318446 
863	 0.102220149608185 
864	 0.101112773017725 
865	 0.103092185297207 
866	 0.104180143241097 
867	 0.103302743220861 
868	 0.102281827765574 
869	 0.102203506575408 
870	 0.103640286589334 
871	 0.103756838771211 
872	 0.10319281704192 
873	 0.104163312288832 
874	 0.104140983808547 
875	 0.102846433312672 
876	 0.102310673853902 
877	 0.102232222796232 
878	 0.102377340010734 
879	 0.102760371385673 
880	 0.103294848286304 
881	 0.103903063083259 
882	 0.103286310106991 
883	 0.101732087600879 
884	 0.101295155689736 
885	 0.102300393668205 
886	 0.104411884409666 
887	 0.103940421906962 
888	 0.102848312173015 
889	 0.10420903656878 
890	 0.104373504721763 
891	 0.10323668636522 
892	 0.103120780335309 
893	 0.103486791861229 
894	 0.103964122049006 
895	 0.10344454355531 
896	 0.103057991654767 
897	 0.10412663815559 
898	 0.104091472764726 
899	 0.103337007199448 
900	 0.104270301649847 
901	 0.104663529938682 
902	 0.104052363333614 
903	 0.103535162320665 
904	 0.10434310914099 
905	 0.10689612910017 
906	 0.106168874420309 
907	 0.103833186223788 
908	 0.104186220690872 
909	 0.105503146870822 
910	 0.106632547775978 
911	 0.104738647704693 
912	 0.104439433069822 
913	 0.107666762170405 
914	 0.108314758840952 
915	 0.107281121777614 
916	 0.10651178190675 
917	 0.10595913693167 
918	 0.105252734317368 
919	 0.10280888924296 
920	 0.102502302789386 
921	 0.105085090219832 
922	 0.106785716119558 
923	 0.107508431373186 
924	 0.107221104884094 
925	 0.104932346951525 
926	 0.102752879473468 
927	 0.105752940431654 
928	 0.106361535570367 
929	 0.102705302297384 
930	 0.100137041911394 
931	 0.101817559846711 
932	 0.108899646586051 
933	 0.106459231579905 
934	 9.96170336665544E-02 
935	 9.98313043586107E-02 
936	 0.105635524179899 
937	 0.112316577952239 
938	 0.108921141671753 
939	 0.107341441092917 
940	 0.110316295525378 
941	 0.112861395236625 
942	 0.110108429528756 
943	 0.100329089518997 
944	 0.099507855729044 
945	 0.106073578302107 
946	 0.113898018968622 
947	 0.116404341129977 
948	 0.112902072947862 
949	 0.108437054345289 
950	 0.105970351812508 
951	 0.1065813251727 
952	 0.107499986845737 
953	 0.10553508597225 
954	 0.099449604605057 
955	 0.106010749942215 
956	 0.117564301836169 
957	 0.115830815936086 
958	 0.11238933763022 
959	 0.10996806821192 
960	 0.106509979040928 
961	 0.106612676370617 
962	 0.111172084644789 
963	 0.112811262285821 
964	 0.112336421994106 
965	 0.111199943346155 
966	 0.110272288128872 
967	 0.109503187362972 
968	 0.108608691702313 
969	 0.103318954673582 
970	 9.67765938094057E-02 
971	 0.105403610295115 
972	 0.111747324898589 
973	 0.107903041087598 
974	 0.109461241918295 
975	 0.113640421912227 
976	 0.115516505402549 
977	 0.113077359090839 
978	 0.108019617492279 
979	 0.104678517617296 
980	 0.106438857247858 
981	 0.111644308059547 
982	 0.110271997392747 
983	 0.109001520618325 
984	 0.111162899638017 
985	 0.112945802152601 
986	 0.113527582641921 
987	 0.112450736937889 
988	 0.110057657641128 
989	 0.107683790437984 
990	 0.10761089703042 
991	 0.108651593546875 
992	 0.109491104608203 
993	 0.106525738609718 
994	 0.105934659652723 
995	 0.109620671356239 
996	 0.109222162193265 
997	 0.107315749785226 
998	 0.107042384686311 
999	 0.106533583730778 
1000	 0.107047468535768 
1001	 0.111210337655935 
1002	 0.108016171895318 
1003	 9.96890161459889E-02 
1004	 0.103193198030914 
1005	 0.109327107674807 
1006	 0.112140944283008 
1007	 0.101495260783618 
1008	 9.58092509043088E-02 
1009	 0.107274204272366 
1010	 0.108732818135913 
1011	 0.103579065309981 
1012	 0.101476508037914 
1013	 0.1021258878589 
1014	 0.104572748267898 
1015	 0.106020306945981 
1016	 0.10862997196672 
1017	 0.111541380364306 
1018	 0.109012836896092 
1019	 0.106750808448662 
1020	 0.108261637364836 
1021	 0.113041810638658 
1022	 0.119558311159773 
1023	 0.125488944596503 
1024	 0.122721442794893 
1025	 0.11486885206308 
1026	 0.110173243465849 
1027	 0.107027433037449 
1028	 0.105944608173567 
1029	 0.109093112788809 
1030	 0.109222368050031 
1031	 0.104704710289649 
1032	 0.100741122153595 
1033	 0.101496456690975 
1034	 0.109975749288867 
1035	 0.129837742303385 
1036	 0.137685173091309 
1037	 0.112996950846366 
1038	 0.101108000358862 
1039	 0.105751468556652 
1040	 0.116676460280528 
1041	 0.120746292847792 
1042	 0.117316175427078 
1043	 0.116563437442865 
1044	 0.116796749179052 
1045	 0.118720226874477 
1046	 0.129283792352704 
1047	 0.119088093657474 
1048	 7.98455990494148E-02 
1049	 8.34673751663666E-02 
1050	 0.105893882253332 
1051	 0.117313694430392 
1052	 0.113219003055199 
1053	 0.105407482082522 
1054	 0.113891577279026 
1055	 0.113688224203376 
1056	 0.11088483824954 
1057	 0.134675706040957 
1058	 0.122091826230183 
1059	 7.74939455741832E-02 
1060	 0.11071279315267 
1061	 0.123333638092283 
1062	 9.06346435362224E-02 
1063	 0.132078448431675 
1064	 0.152400966843397 
1065	 9.72343460690745E-02 
1066	 0.11692640811548 
1067	 0.148077678399616 
1068	 0.114788444108175 
1069	 0.116735223114328 
1070	 0.141682698808155 
1071	 0.136221588451758 
1072	 0.116232969502468 
1073	 9.61570037026053E-02 
1074	 0.100277854215103 
1075	 0.123693117188999 
