Wavelength	A00148.asd
325	 5.61934138322219E-02 
326	 5.62164748815809E-02 
327	 0.056829129634226 
328	 5.87234226226036E-02 
329	 6.09335942854976E-02 
330	 6.22884038274343E-02 
331	 5.92226624303961E-02 
332	 5.55675542177667E-02 
333	 0.055256546950485 
334	 5.72086109386172E-02 
335	 5.91756966343233E-02 
336	 5.68815499415633E-02 
337	 5.34548584084969E-02 
338	 5.10818424995357E-02 
339	 5.44493836550097E-02 
340	 5.66590912202401E-02 
341	 5.26562648061895E-02 
342	 5.15135405966322E-02 
343	 5.39368371777791E-02 
344	 5.91605474950664E-02 
345	 0.059433895112109 
346	 5.47103442040833E-02 
347	 5.33897534824074E-02 
348	 5.50829762654768E-02 
349	 5.84324553353136E-02 
350	 5.60611286911921E-02 
351	 5.22495740226265E-02 
352	 5.52328333307312E-02 
353	 5.50925608002115E-02 
354	 5.15460117776266E-02 
355	 5.28110303684079E-02 
356	 5.46953100243229E-02 
357	 5.46758538129417E-02 
358	 5.42955156141925E-02 
359	 5.46954425389756E-02 
360	 5.73529999609975E-02 
361	 5.68975455339497E-02 
362	 5.42082986749202E-02 
363	 5.69743532829463E-02 
364	 5.84047680711736E-02 
365	 5.56462988017022E-02 
366	 5.52458788885319E-02 
367	 5.56723951508559E-02 
368	 5.39823907937319E-02 
369	 5.42396089632693E-02 
370	 5.61392298993678E-02 
371	 5.55770247141094E-02 
372	 5.46685137639516E-02 
373	 5.45593854375059E-02 
374	 5.45758792886015E-02 
375	 5.52434482206586E-02 
376	 5.72863458518149E-02 
377	 0.057921769282688 
378	 5.67846053119988E-02 
379	 5.47954438993257E-02 
380	 5.45009683791204E-02 
381	 5.67143917455996E-02 
382	 0.057095303197914 
383	 5.71980672820861E-02 
384	 5.95808291526479E-02 
385	 6.06114160350881E-02 
386	 0.059706118648091 
387	 5.79158622558573E-02 
388	 5.68107515379123E-02 
389	 5.70119412757971E-02 
390	 5.71259667667007E-02 
391	 5.74947601419401E-02 
392	 5.86310518821573E-02 
393	 5.86278961441636E-02 
394	 5.77744513565287E-02 
395	 5.80667489835533E-02 
396	 5.85974268485596E-02 
397	 0.058762159885024 
398	 5.76206081008941E-02 
399	 5.62026305834083E-02 
400	 5.55490943932476E-02 
401	 5.56741028875456E-02 
402	 5.65169807036644E-02 
403	 5.82643995938931E-02 
404	 5.89025259003361E-02 
405	 5.79230230365426E-02 
406	 5.79594643666267E-02 
407	 5.85173342769329E-02 
408	 5.86794631953234E-02 
409	 5.83973669544068E-02 
410	 5.79780278688719E-02 
411	 5.83398474818844E-02 
412	 5.87890719128018E-02 
413	 5.89543401087229E-02 
414	 5.87749103502595E-02 
415	 5.85418742677386E-02 
416	 5.86304518787529E-02 
417	 5.84067275037762E-02 
418	 5.80832240134736E-02 
419	 5.87575841437024E-02 
420	 5.95525563546657E-02 
421	 5.99365244428953E-02 
422	 0.059832686058409 
423	 5.97119939449131E-02 
424	 6.02585046397276E-02 
425	 6.06263210653726E-02 
426	 6.07344880852313E-02 
427	 6.11343823881736E-02 
428	 6.14554248176263E-02 
429	 6.14857735646406E-02 
430	 6.16271699584649E-02 
431	 6.17436165477101E-02 
432	 6.15240631227626E-02 
433	 6.13317938327223E-02 
434	 6.12555689628862E-02 
435	 6.11578136470574E-02 
436	 6.12378287193382E-02 
437	 6.16205672112543E-02 
438	 6.22196750607459E-02 
439	 0.062722317202021 
440	 6.25948916283942E-02 
441	 6.25271198127499E-02 
442	 6.27349771607128E-02 
443	 0.063125556447058 
444	 6.34785302036886E-02 
445	 6.36557922565836E-02 
446	 6.42195609367915E-02 
447	 6.48641447009965E-02 
448	 6.46965427857128E-02 
449	 6.46493759502769E-02 
450	 6.49414133385864E-02 
451	 6.49019207941423E-02 
452	 6.50286350408169E-02 
453	 0.06579650415507 
454	 0.066175056655111 
455	 6.61299935667271E-02 
456	 6.61893326391243E-02 
457	 6.61139964838921E-02 
458	 0.06596458398128 
459	 6.65874857819264E-02 
460	 0.067089314238654 
461	 6.63810472244128E-02 
462	 6.60769620207345E-02 
463	 0.06631150250454 
464	 0.066252714749538 
465	 6.62572709200803E-02 
466	 6.65053909399316E-02 
467	 6.70053651330092E-02 
468	 6.74218980420996E-02 
469	 6.72858443206932E-02 
470	 6.71590409097801E-02 
471	 6.72758758796866E-02 
472	 6.79392443433214E-02 
473	 6.82078405485935E-02 
474	 6.75984345092759E-02 
475	 6.73806106460932E-02 
476	 6.76031446304591E-02 
477	 6.80547613878455E-02 
478	 0.068096020768529 
479	 6.77342151895377E-02 
480	 6.78922777944113E-02 
481	 6.82827192334834E-02 
482	 6.86341495477871E-02 
483	 6.88084403896381E-02 
484	 6.88647124619543E-02 
485	 6.90564409127063E-02 
486	 6.89742178112741E-02 
487	 6.86756415755445E-02 
488	 6.92614168952207E-02 
489	 6.98145459642791E-02 
490	 6.93970690576809E-02 
491	 6.90214722100864E-02 
492	 0.069068640939198 
493	 7.00457919679202E-02 
494	 7.07468424490607E-02 
495	 7.06903118305904E-02 
496	 0.070625305665251 
497	 7.07073909834051E-02 
498	 7.10365362592168E-02 
499	 7.12957642886397E-02 
500	 7.14142851256693E-02 
501	 7.14327859519742E-02 
502	 7.16329731110748E-02 
503	 7.21058794300855E-02 
504	 7.21157379193207E-02 
505	 7.19942032262516E-02 
506	 7.24550227293841E-02 
507	 7.27354268826184E-02 
508	 7.27433602121483E-02 
509	 7.30385411405796E-02 
510	 7.32795665677298E-02 
511	 7.32265447186093E-02 
512	 7.35007087619509E-02 
513	 7.39553703582012E-02 
514	 0.073983317748812 
515	 7.41453053295779E-02 
516	 7.45549686010014E-02 
517	 7.47236986203311E-02 
518	 7.46933236688583E-02 
519	 7.45701436998518E-02 
520	 7.47583933570542E-02 
521	 7.51912594344629E-02 
522	 7.54277269721239E-02 
523	 0.075827583429777 
524	 7.64393890417991E-02 
525	 7.64788838286004E-02 
526	 7.63135073077718E-02 
527	 0.076577659899312 
528	 7.66524011185261E-02 
529	 7.65462200886801E-02 
530	 7.67875468217641E-02 
531	 7.72209776962398E-02 
532	 7.77165363518377E-02 
533	 0.078136555494763 
534	 0.078355595856998 
535	 7.81587256079148E-02 
536	 7.81851808960978E-02 
537	 7.85974915353847E-02 
538	 7.90504214272852E-02 
539	 7.93985282907846E-02 
540	 7.95186278599263E-02 
541	 7.95194081786409E-02 
542	 7.94805699110357E-02 
543	 7.95176359006146E-02 
544	 7.96033081858059E-02 
545	 7.97500571978792E-02 
546	 8.00753280545706E-02 
547	 8.04163569996378E-02 
548	 8.05537472455641E-02 
549	 0.080741932626629 
550	 8.10054323295123E-02 
551	 8.12064981050418E-02 
552	 8.13956884157216E-02 
553	 0.08158797626241 
554	 8.16075743019103E-02 
555	 8.16426799420387E-02 
556	 8.20984164997742E-02 
557	 8.24023816185309E-02 
558	 8.24102710931131E-02 
559	 8.23729115018678E-02 
560	 0.0825220735332 
561	 8.30107437170064E-02 
562	 8.30772459322086E-02 
563	 8.28233147081248E-02 
564	 8.28850671248207E-02 
565	 0.083027760680215 
566	 8.31561960700506E-02 
567	 8.31986244051679E-02 
568	 8.32317627014884E-02 
569	 8.33632778565535E-02 
570	 8.37049490180957E-02 
571	 8.41748297658555E-02 
572	 8.44718923691958E-02 
573	 8.44829724576771E-02 
574	 8.42104764607049E-02 
575	 8.42791800305571E-02 
576	 8.45790862655682E-02 
577	 8.47635788005294E-02 
578	 8.46113751582546E-02 
579	 8.41671567201584E-02 
580	 0.083955078619815 
581	 8.40372097421396E-02 
582	 8.44133829398483E-02 
583	 8.46090766700642E-02 
584	 8.46753171063332E-02 
585	 8.50590515085467E-02 
586	 8.51901755087222E-02 
587	 8.49112598318258E-02 
588	 8.48155245724106E-02 
589	 8.47817308313566E-02 
590	 8.45849370774712E-02 
591	 8.45038647819024E-02 
592	 8.45649210370614E-02 
593	 8.46202590810531E-02 
594	 8.47158315429255E-02 
595	 8.48625143444103E-02 
596	 8.49549774961016E-02 
597	 8.50153365517207E-02 
598	 8.51257947026934E-02 
599	 0.085022208488906 
600	 0.084742364529884 
601	 8.48099117151858E-02 
602	 8.49466187210793E-02 
603	 8.49051190933257E-02 
604	 8.50281337119633E-02 
605	 8.52243172635739E-02 
606	 8.50864115670792E-02 
607	 8.51013239027114E-02 
608	 8.54153146858406E-02 
609	 8.56653634749915E-02 
610	 8.56951858530816E-02 
611	 8.53649223051249E-02 
612	 8.52492624725624E-02 
613	 8.53333135428536E-02 
614	 8.49857113948967E-02 
615	 8.48354539674257E-02 
616	 8.51736761880114E-02 
617	 8.50187488192692E-02 
618	 8.46573253884893E-02 
619	 8.48066330886275E-02 
620	 8.50645032018824E-02 
621	 8.52914298602953E-02 
622	 8.54604629672167E-02 
623	 8.54122102916242E-02 
624	 8.50363318688101E-02 
625	 8.47760915487831E-02 
626	 0.084712979912923 
627	 8.47887401046092E-02 
628	 8.49584857640865E-02 
629	 8.51227450857346E-02 
630	 8.48615616658088E-02 
631	 8.47020249301885E-02 
632	 8.53194203491375E-02 
633	 8.57333714454665E-02 
634	 8.57161841929438E-02 
635	 8.53421313698341E-02 
636	 8.51486203548591E-02 
637	 8.54155582607993E-02 
638	 8.54806665312186E-02 
639	 8.54424435685759E-02 
640	 0.085637484770712 
641	 0.085863799515689 
642	 8.59965245028808E-02 
643	 8.57549257794155E-02 
644	 8.56888315092793E-02 
645	 8.62259166278165E-02 
646	 8.62608768400137E-02 
647	 8.58672710108543E-02 
648	 8.57746107342176E-02 
649	 8.58535832516698E-02 
650	 0.086034063827029 
651	 8.60674852045716E-02 
652	 8.60805160425819E-02 
653	 0.086248455779555 
654	 8.61199173690951E-02 
655	 8.57230790490283E-02 
656	 8.56195258979096E-02 
657	 8.54735271394141E-02 
658	 8.50973505592111E-02 
659	 8.45216267572716E-02 
660	 8.40944507105883E-02 
661	 8.44049569119678E-02 
662	 8.42390703561997E-02 
663	 8.35133120828078E-02 
664	 8.34731930532198E-02 
665	 0.083682151912495 
666	 8.37138247230513E-02 
667	 8.33614011660895E-02 
668	 8.28223782444324E-02 
669	 8.26889401741795E-02 
670	 8.24567559684853E-02 
671	 0.08210331956924 
672	 8.25714392345906E-02 
673	 8.29751244527108E-02 
674	 8.22704474090559E-02 
675	 8.21180292682818E-02 
676	 8.25794918488819E-02 
677	 8.26472395995252E-02 
678	 8.25626547644636E-02 
679	 8.25037254413032E-02 
680	 8.29062765290854E-02 
681	 0.083386282063973 
682	 8.32553791666378E-02 
683	 8.32130704974505E-02 
684	 8.34837852152724E-02 
685	 8.41297353230946E-02 
686	 8.47937616621405E-02 
687	 8.51317433766672E-02 
688	 8.53094940831692E-02 
689	 8.55781073399578E-02 
690	 8.64554178151925E-02 
691	 8.72132626817563E-02 
692	 8.76314725285676E-02 
693	 8.78431775768302E-02 
694	 8.80796751940145E-02 
695	 0.088552003724615 
696	 8.90427462212933E-02 
697	 8.94932471921125E-02 
698	 8.99595368722904E-02 
699	 9.00681054603072E-02 
700	 8.97368385513532E-02 
701	 8.97651014820366E-02 
702	 0.090097148435252 
703	 9.05099689784878E-02 
704	 0.091009585916057 
705	 9.14642176910193E-02 
706	 9.15149137438148E-02 
707	 9.14135955018003E-02 
708	 9.13444331584421E-02 
709	 9.13166545896699E-02 
710	 9.14161752837754E-02 
711	 9.18045454743692E-02 
712	 9.19786286698005E-02 
713	 0.091898478243387 
714	 9.22022220256431E-02 
715	 9.24740464932271E-02 
716	 9.23438850515596E-02 
717	 9.26003511618288E-02 
718	 9.31831587585602E-02 
719	 9.32750558342348E-02 
720	 9.31350005109953E-02 
721	 9.29666426138279E-02 
722	 9.31505852688375E-02 
723	 9.32552575216883E-02 
724	 9.27725410410039E-02 
725	 9.28797963150932E-02 
726	 9.35944560000753E-02 
727	 9.41606087945315E-02 
728	 9.42481062190857E-02 
729	 9.37955684196851E-02 
730	 9.38011060880216E-02 
731	 9.40892022010896E-02 
732	 9.42425343046007E-02 
733	 9.44164252668219E-02 
734	 9.45945560135336E-02 
735	 9.46510128255667E-02 
736	 9.45991402528306E-02 
737	 9.44683791273744E-02 
738	 0.094395969518244 
739	 9.44807034289293E-02 
740	 9.48810544815684E-02 
741	 9.50527188395282E-02 
742	 9.49003033247404E-02 
743	 9.48479281088782E-02 
744	 9.48517433957838E-02 
745	 9.48620783249016E-02 
746	 0.094844000611741 
747	 9.48896227792253E-02 
748	 9.52753288640042E-02 
749	 9.54647922373301E-02 
750	 9.53301009107508E-02 
751	 9.53651792046982E-02 
752	 9.55062696709088E-02 
753	 9.56424714027618E-02 
754	 9.56549579762404E-02 
755	 9.56210677120465E-02 
756	 9.58479054152408E-02 
757	 9.60553563004135E-02 
758	 9.61234754134341E-02 
759	 9.60052034006269E-02 
760	 9.61910301680448E-02 
761	 9.78019445818001E-02 
762	 9.79095475181576E-02 
763	 9.67829625892497E-02 
764	 9.66870428605836E-02 
765	 9.71459676695829E-02 
766	 9.77690175291623E-02 
767	 9.77860309063819E-02 
768	 9.75150543539534E-02 
769	 9.73494372944306E-02 
770	 9.73597398528938E-02 
771	 9.74393529629599E-02 
772	 9.70302546890956E-02 
773	 9.68313957065615E-02 
774	 9.72528817876274E-02 
775	 9.74677799736742E-02 
776	 9.75826231925656E-02 
777	 9.80377762557199E-02 
778	 9.82217077078083E-02 
779	 9.80126696980962E-02 
780	 9.76640359214983E-02 
781	 9.76827321742913E-02 
782	 9.83772413991674E-02 
783	 9.86220719391901E-02 
784	 9.84965863605988E-02 
785	 9.85974773678243E-02 
786	 9.86574512060644E-02 
787	 0.098630302347564 
788	 0.098619201624464 
789	 9.87155341293452E-02 
790	 9.89890657906569E-02 
791	 9.93091658577188E-02 
792	 9.95520614574626E-02 
793	 9.95085153867615E-02 
794	 9.93727947726631E-02 
795	 9.92692585913753E-02 
796	 0.099383511170166 
797	 9.95801260735256E-02 
798	 9.97026243647105E-02 
799	 0.099683113164873 
800	 0.099543615964408 
801	 0.099300785637924 
802	 9.95414023134635E-02 
803	 0.100315012960812 
804	 0.100537375546129 
805	 0.100258227322007 
806	 9.96703997115568E-02 
807	 9.94857558699982E-02 
808	 9.98089743213119E-02 
809	 0.100496691091141 
810	 0.100873378350661 
811	 0.100677897232838 
812	 0.100628224743081 
813	 0.100524952943585 
814	 0.100071827176915 
815	 0.100815192875315 
816	 0.102451028291681 
817	 0.10297931841293 
818	 0.10211037214972 
819	 0.100265012137913 
820	 0.10019750395042 
821	 0.101175213527991 
822	 0.10205784152638 
823	 0.101896334074043 
824	 0.101131232369442 
825	 0.101813532895825 
826	 0.102184623816787 
827	 0.101738613283803 
828	 0.102241522596929 
829	 0.102666170979938 
830	 0.101639883973816 
831	 0.10116730875963 
832	 0.101461545878182 
833	 0.10181106506873 
834	 0.101859324139179 
835	 0.101577820338595 
836	 0.10202728196249 
837	 0.102429248689451 
838	 0.101850457391941 
839	 0.1013854198804 
840	 0.101242887747508 
841	 0.101224956914199 
842	 0.10159649178986 
843	 0.102274402471914 
844	 0.102202788917948 
845	 0.101896913721479 
846	 0.102023205777967 
847	 0.102045191046038 
848	 0.102026090589363 
849	 0.102520283125921 
850	 0.102548231448853 
851	 0.101940635260565 
852	 0.102347393990482 
853	 0.10270153771124 
854	 0.101803940269987 
855	 0.101388682101032 
856	 0.101427158028869 
857	 0.1008220303568 
858	 0.101038784933071 
859	 0.102063925763612 
860	 0.101077252409373 
861	 0.100587524075313 
862	 0.102828541949646 
863	 0.10282727388618 
864	 0.101398411932705 
865	 0.102728468075973 
866	 0.103702793812229 
867	 0.103434053632039 
868	 0.102894421543514 
869	 0.102807273655692 
870	 0.103539900059633 
871	 0.102748304481822 
872	 0.101708652021674 
873	 0.103663126681022 
874	 0.104360318874962 
875	 0.103036959197199 
876	 0.102219238139528 
877	 0.102052459448278 
878	 0.10254478349435 
879	 0.102939268080963 
880	 0.103161607276736 
881	 0.103328048924608 
882	 0.102668795044362 
883	 0.101588958387587 
884	 0.102158961385166 
885	 0.102962102366659 
886	 0.103189543117805 
887	 0.10331512439786 
888	 0.10337976353835 
889	 0.103397550973111 
890	 0.103971643782724 
891	 0.104813862255114 
892	 0.104727842473564 
893	 0.103657232849184 
894	 0.101884349200709 
895	 0.101268148441341 
896	 0.101953664286224 
897	 0.103695505285646 
898	 0.103588079629058 
899	 0.10266756370422 
900	 0.105352961632888 
901	 0.106688734113672 
902	 0.105476090485647 
903	 0.104193997801028 
904	 0.103263073599891 
905	 0.102961717847042 
906	 0.102919652390412 
907	 0.103400820066844 
908	 0.105025054333242 
909	 0.105468796552568 
910	 0.104593298165939 
911	 0.104661600645298 
912	 0.105775342102318 
913	 0.107569137366806 
914	 0.107286442042404 
915	 0.10643279849842 
916	 0.107146954130178 
917	 0.107214368682876 
918	 0.106285883861177 
919	 0.104172412616602 
920	 0.105006144696587 
921	 0.108507260996142 
922	 0.105076097170233 
923	 0.101568494150204 
924	 0.104147899509422 
925	 0.104583967386379 
926	 0.103865898807075 
927	 0.107349830781118 
928	 0.108035040166684 
929	 0.104860376630297 
930	 0.106104953906533 
931	 0.108947765534684 
932	 0.110370677056254 
933	 0.105949339775077 
934	 0.10295103306139 
935	 0.112091492044139 
936	 0.1135765149319 
937	 0.108367895176759 
938	 0.112059965431698 
939	 0.112369475103935 
940	 0.107615162616711 
941	 0.107726707096399 
942	 0.106992077151072 
943	 0.102137763681401 
944	 0.104555191532258 
945	 0.111503704062587 
946	 0.116526188830425 
947	 0.117956381506897 
948	 0.116681957188381 
949	 0.118490850414774 
950	 0.11720906379897 
951	 0.111995628369593 
952	 0.113109682159519 
953	 0.114882730626606 
954	 0.112029349725859 
955	 0.111992234392359 
956	 0.113566780714951 
957	 0.112379017227922 
958	 0.114420626302703 
959	 0.117748632196163 
960	 0.111003432349966 
961	 0.104652310273584 
962	 0.104739904799735 
963	 0.113119994936824 
964	 0.119729685923962 
965	 0.11572852372007 
966	 0.11264929503905 
967	 0.111745570392511 
968	 0.111668883382002 
969	 0.105844736046411 
970	 9.73174867930051E-02 
971	 0.104945741097757 
972	 0.111061880974258 
973	 0.107484202284121 
974	 0.109106097641152 
975	 0.112403082660734 
976	 0.112200413523082 
977	 0.114481489701973 
978	 0.116494489628106 
979	 0.109790543565265 
980	 0.106846983012925 
981	 0.10923868868767 
982	 0.107806521325973 
983	 0.10719162490215 
984	 0.109802608390734 
985	 0.114129168376315 
986	 0.11694531278125 
987	 0.115215916007913 
988	 0.111050818536679 
989	 0.107916250307374 
990	 0.111883574307064 
991	 0.11057954777977 
992	 0.104264107445041 
993	 0.107780519598275 
994	 0.110797727835493 
995	 0.108713945424874 
996	 0.107417050136287 
997	 0.107069147263691 
998	 0.107364405671345 
999	 0.106518922112308 
1000	 0.108050541741705 
1001	 0.11852509148183 
1002	 0.116836655382311 
1003	 0.104614813660112 
1004	 0.106557724195467 
1005	 0.110067785686971 
1006	 0.109733019392928 
1007	 0.104117035835572 
1008	 0.103300362652543 
1009	 0.11292613192269 
1010	 0.111817439916698 
1011	 0.10639436710422 
1012	 0.109083011828918 
1013	 0.110208538934349 
1014	 0.109939896432516 
1015	 0.114163120173717 
1016	 0.112179202834101 
1017	 0.105096771376508 
1018	 0.112030470104668 
1019	 0.117942953295211 
1020	 0.115196218832012 
1021	 0.112067853727249 
1022	 0.111453779265917 
1023	 0.114775931553615 
1024	 0.115885793150676 
1025	 0.110826612488965 
1026	 9.52416752567225E-02 
1027	 0.100219245111758 
1028	 0.117951004060134 
1029	 9.86750577528087E-02 
1030	 8.84867683626409E-02 
1031	 0.098593409677568 
1032	 0.10062362212689 
1033	 0.103068376263477 
1034	 0.110860977418965 
1035	 0.119234791302037 
1036	 0.12423171225463 
1037	 0.123070574627346 
1038	 0.123839788401095 
1039	 0.125369672041585 
1040	 0.122958953778534 
1041	 0.130240626561087 
1042	 0.140282163978358 
1043	 0.123567525229839 
1044	 0.117574428064263 
1045	 0.130113745491795 
1046	 0.130184009586244 
1047	 0.116515398388373 
1048	 9.41185340733358E-02 
1049	 0.104254093392961 
1050	 0.118796491543438 
1051	 0.112274037890034 
1052	 0.131411599413879 
1053	 0.153772758882051 
1054	 0.135672711871228 
1055	 0.12423170450005 
1056	 0.128249756836687 
1057	 0.142163539962475 
1058	 0.139425109141866 
1059	 0.117744381510875 
1060	 0.110505191400674 
1061	 0.105469684334374 
1062	 0.102713284287568 
1063	 0.139860593305579 
1064	 0.154584228367086 
1065	 0.111899765908964 
1066	 9.35483820813901E-02 
1067	 0.108731834489231 
1068	 0.15474715246291 
1069	 0.176426307702811 
1070	 0.165540223041295 
1071	 0.133829915009404 
1072	 0.087260533338845 
1073	 5.26631647411167E-02 
1074	 8.53726847933153E-02 
1075	 0.107158248277355 
