Wavelength	A00139.asd
325	 3.01075872202294E-02 
326	 3.48676685635182E-02 
327	 3.56469292699358E-02 
328	 3.43950626396937E-02 
329	 3.64226608370498E-02 
330	 4.10508507212782E-02 
331	 3.28738102998337E-02 
332	 0.02778774451958 
333	 4.08494774045781E-02 
334	 4.53560759378146E-02 
335	 4.18035328015876E-02 
336	 4.16935999903845E-02 
337	 4.35397052084723E-02 
338	 4.56559586554329E-02 
339	 4.12512637725255E-02 
340	 0.037840895089194 
341	 4.11379996648485E-02 
342	 0.042209114622581 
343	 4.15866133361603E-02 
344	 0.043125611727917 
345	 4.25959499004143E-02 
346	 4.06330222380053E-02 
347	 4.42985667073606E-02 
348	 4.64481971730456E-02 
349	 4.31103198481645E-02 
350	 4.33470700777499E-02 
351	 4.51085679381713E-02 
352	 4.33222883345484E-02 
353	 4.25021704427703E-02 
354	 4.34602073541583E-02 
355	 0.045334247795932 
356	 4.46899263013647E-02 
357	 4.05915842566191E-02 
358	 4.26264549649836E-02 
359	 4.71149113029117E-02 
360	 4.70047241530599E-02 
361	 4.50079570201306E-02 
362	 4.26834316665055E-02 
363	 4.28472497699737E-02 
364	 0.043243417452166 
365	 4.28375354928813E-02 
366	 4.35965020337864E-02 
367	 4.40993431191261E-02 
368	 4.22308156281193E-02 
369	 4.29118809698954E-02 
370	 4.58332011205339E-02 
371	 4.61475325056857E-02 
372	 4.54596698717345E-02 
373	 4.47223586558275E-02 
374	 4.42336972524112E-02 
375	 0.044573838560939 
376	 4.63624168903947E-02 
377	 4.60630295665457E-02 
378	 4.42702405069013E-02 
379	 4.57355163869952E-02 
380	 4.76400229439826E-02 
381	 4.85206914889818E-02 
382	 4.91823155177819E-02 
383	 4.87438227198799E-02 
384	 0.046049603268578 
385	 4.57462891855126E-02 
386	 4.74839213956748E-02 
387	 0.046514347192743 
388	 4.54444297596197E-02 
389	 4.53244496706733E-02 
390	 4.48805618825858E-02 
391	 4.53859554482151E-02 
392	 4.83021745094121E-02 
393	 4.87269588530629E-02 
394	 4.68377195337723E-02 
395	 4.63404860033483E-02 
396	 4.59513317490204E-02 
397	 0.045261018625674 
398	 0.044842571995962 
399	 4.44037115539945E-02 
400	 0.043635439948027 
401	 4.46613042524829E-02 
402	 4.65879183727006E-02 
403	 4.63721287465424E-02 
404	 4.61859918134015E-02 
405	 4.67770369640678E-02 
406	 4.68293873998877E-02 
407	 0.046743839491853 
408	 0.047132209596438 
409	 4.70448522922282E-02 
410	 4.65257371674535E-02 
411	 4.61602850461537E-02 
412	 4.64802521928063E-02 
413	 4.74532908304797E-02 
414	 4.71594273784761E-02 
415	 4.65155372429395E-02 
416	 4.69275118700582E-02 
417	 4.67615664440688E-02 
418	 0.046192811223011 
419	 4.69947122081244E-02 
420	 4.75780266085926E-02 
421	 4.72067283316328E-02 
422	 4.72140064927701E-02 
423	 4.75408898101994E-02 
424	 4.78800641121973E-02 
425	 4.81667356761747E-02 
426	 4.84487908012617E-02 
427	 0.049071530472603 
428	 4.94121339282637E-02 
429	 4.91324401839922E-02 
430	 4.90258654304474E-02 
431	 0.049066164953759 
432	 4.90491112011628E-02 
433	 4.84209269057675E-02 
434	 4.75716820574256E-02 
435	 4.83248853371926E-02 
436	 4.92792760985076E-02 
437	 4.95262656096678E-02 
438	 0.049987182033218 
439	 5.03620017619961E-02 
440	 4.98617194424301E-02 
441	 4.95061499636043E-02 
442	 4.96343282834731E-02 
443	 5.01893659379731E-02 
444	 5.06485405690523E-02 
445	 5.06300113990957E-02 
446	 5.07927786135181E-02 
447	 5.10506557195271E-02 
448	 5.09219444334717E-02 
449	 5.10298111551909E-02 
450	 0.051511334745025 
451	 5.19470082716082E-02 
452	 5.22093726078674E-02 
453	 5.22073449382326E-02 
454	 5.20845726170857E-02 
455	 5.20761989327994E-02 
456	 5.28248166304792E-02 
457	 5.28809681437405E-02 
458	 5.19883660215957E-02 
459	 0.052481834892502 
460	 5.32936970730949E-02 
461	 5.29605323618769E-02 
462	 0.052593057090817 
463	 0.052411732608996 
464	 5.22538783123652E-02 
465	 0.052321009151674 
466	 5.26499090286292E-02 
467	 0.052768835100153 
468	 5.26576250144546E-02 
469	 5.23702145100472E-02 
470	 5.26159169371829E-02 
471	 5.32962100220816E-02 
472	 5.33961074236007E-02 
473	 5.32434526445947E-02 
474	 5.30943912387881E-02 
475	 5.31949175153067E-02 
476	 0.05350328597839 
477	 5.39267219112661E-02 
478	 5.36054594177365E-02 
479	 5.27516415338509E-02 
480	 5.33208962434501E-02 
481	 5.41555785262356E-02 
482	 5.42903284267612E-02 
483	 5.42840100368835E-02 
484	 5.43118108880617E-02 
485	 0.054641637701098 
486	 5.45616986625567E-02 
487	 5.40368690227294E-02 
488	 5.43602751339435E-02 
489	 5.47962474209359E-02 
490	 5.45436015329161E-02 
491	 5.41267355641666E-02 
492	 5.39025498975024E-02 
493	 5.45888194173734E-02 
494	 0.05500597154793 
495	 5.47498685153424E-02 
496	 5.48521305022213E-02 
497	 5.51882765343856E-02 
498	 5.54706011987578E-02 
499	 0.05587405103434 
500	 0.056251495312941 
501	 5.59738523914493E-02 
502	 5.58944581128006E-02 
503	 0.056444984048322 
504	 5.66090026533577E-02 
505	 5.66321946344097E-02 
506	 5.71516710019029E-02 
507	 5.74632014413148E-02 
508	 5.75514829243912E-02 
509	 5.82197767229495E-02 
510	 5.87593434599335E-02 
511	 5.86628904151015E-02 
512	 5.90273596634582E-02 
513	 5.97402701540423E-02 
514	 6.01277732343201E-02 
515	 0.060376554510626 
516	 6.05544338378732E-02 
517	 6.07272529769387E-02 
518	 6.10872712377064E-02 
519	 6.17925028270444E-02 
520	 6.20805545712242E-02 
521	 6.21717904748977E-02 
522	 6.31341383723569E-02 
523	 6.39613769385479E-02 
524	 6.42789220115515E-02 
525	 6.49222551160962E-02 
526	 6.55620201648582E-02 
527	 6.56159753512693E-02 
528	 6.56689858770831E-02 
529	 6.59331967252464E-02 
530	 6.65490372072209E-02 
531	 0.067183445915875 
532	 6.76109851992171E-02 
533	 6.79858848504731E-02 
534	 6.82661171982221E-02 
535	 0.06829952384205 
536	 6.85748092358927E-02 
537	 6.91392122308007E-02 
538	 6.93746791775588E-02 
539	 6.95980103061993E-02 
540	 7.01060266736857E-02 
541	 7.01554146146243E-02 
542	 6.99225155941204E-02 
543	 7.02065169211602E-02 
544	 7.07647780796489E-02 
545	 7.14145020331384E-02 
546	 7.16692513023502E-02 
547	 7.17207837686174E-02 
548	 7.18826958371668E-02 
549	 7.20708921159983E-02 
550	 7.23311763057076E-02 
551	 7.28781424425614E-02 
552	 7.32988566935516E-02 
553	 7.33461655905064E-02 
554	 7.33094810195747E-02 
555	 7.33968117819736E-02 
556	 7.39337571330956E-02 
557	 7.41818014809328E-02 
558	 7.40147844884418E-02 
559	 7.40772634912947E-02 
560	 7.42679681386496E-02 
561	 7.44595425775093E-02 
562	 7.45769947486846E-02 
563	 0.074600281082643 
564	 7.45396132702048E-02 
565	 7.44059900426148E-02 
566	 7.42364840487992E-02 
567	 7.41604572559241E-02 
568	 7.41794187355098E-02 
569	 7.42750925268721E-02 
570	 7.41550005525954E-02 
571	 7.39234778910543E-02 
572	 7.42285275250071E-02 
573	 7.43990946453394E-02 
574	 7.40696471624493E-02 
575	 7.38501299730231E-02 
576	 7.37812553346177E-02 
577	 0.07378485952883 
578	 7.37201243143214E-02 
579	 0.073521614789609 
580	 0.073134851933476 
581	 7.28838935951517E-02 
582	 7.30238893081312E-02 
583	 7.30013956618554E-02 
584	 7.28898389967044E-02 
585	 7.31881817426289E-02 
586	 7.33787969585838E-02 
587	 7.32537061148313E-02 
588	 7.29773705212057E-02 
589	 7.26775467111739E-02 
590	 7.25083815618213E-02 
591	 7.23436614186832E-02 
592	 7.21989506903558E-02 
593	 7.21683828064392E-02 
594	 7.23467541079763E-02 
595	 7.27399428631042E-02 
596	 7.29427549362415E-02 
597	 7.29921750998527E-02 
598	 7.31003815902773E-02 
599	 0.072684887777631 
600	 7.18685440742595E-02 
601	 7.19249627507799E-02 
602	 7.22589011627502E-02 
603	 7.22968991570228E-02 
604	 7.22766304632812E-02 
605	 7.21986531120662E-02 
606	 7.19236735844006E-02 
607	 7.19786587413104E-02 
608	 7.24099779834484E-02 
609	 7.20627244226711E-02 
610	 7.15138449997419E-02 
611	 7.16075604306019E-02 
612	 7.16428875739188E-02 
613	 0.07146513012621 
614	 7.10856810413119E-02 
615	 7.09793126864966E-02 
616	 7.13406606734465E-02 
617	 7.11750887406321E-02 
618	 7.07006637463163E-02 
619	 7.05143825654671E-02 
620	 7.05941582548386E-02 
621	 7.08009077782548E-02 
622	 7.05144401931692E-02 
623	 7.01039310594671E-02 
624	 6.99516276165436E-02 
625	 7.03485191784495E-02 
626	 7.08968564172156E-02 
627	 7.04158616439876E-02 
628	 7.00593276927519E-02 
629	 7.02260184470914E-02 
630	 7.03072517027975E-02 
631	 7.02871609385471E-02 
632	 7.02132414179713E-02 
633	 7.05900729793042E-02 
634	 7.11213969830016E-02 
635	 7.04431351697247E-02 
636	 6.97678730690717E-02 
637	 6.97955781968715E-02 
638	 6.98804165212337E-02 
639	 6.98217471188056E-02 
640	 6.94037340964498E-02 
641	 6.91263268278459E-02 
642	 6.91053458331908E-02 
643	 6.90671485056366E-02 
644	 0.068964886730018 
645	 0.068744914105163 
646	 0.068117193796764 
647	 6.74223902259742E-02 
648	 6.77152226076219E-02 
649	 6.78021743172441E-02 
650	 6.73069540080364E-02 
651	 6.70170881700667E-02 
652	 6.70153281621261E-02 
653	 6.73108826354185E-02 
654	 6.72810757224815E-02 
655	 6.68462864501613E-02 
656	 6.64015617080849E-02 
657	 6.60068776946605E-02 
658	 0.065695142069838 
659	 6.52054480604968E-02 
660	 6.47345047560264E-02 
661	 6.46681815636513E-02 
662	 6.44101496673857E-02 
663	 6.39236792588345E-02 
664	 6.38682789505951E-02 
665	 6.37711075458822E-02 
666	 6.32300844458185E-02 
667	 6.24820706494373E-02 
668	 6.17911490929885E-02 
669	 6.16821071329975E-02 
670	 6.15146138770775E-02 
671	 6.11910396666895E-02 
672	 6.16033699090149E-02 
673	 6.21159696461851E-02 
674	 6.19442577535114E-02 
675	 6.14200476391498E-02 
676	 6.09066075561034E-02 
677	 6.11694318736768E-02 
678	 0.061806504303225 
679	 6.25207628586019E-02 
680	 6.29086412676321E-02 
681	 0.063063131201586 
682	 6.32046377475767E-02 
683	 0.063813791832259 
684	 6.48469806105549E-02 
685	 6.55022296075804E-02 
686	 0.066295886474997 
687	 6.76102213690187E-02 
688	 6.83490982464446E-02 
689	 6.88484938500021E-02 
690	 7.04175560920273E-02 
691	 7.20860669993852E-02 
692	 7.36191211906982E-02 
693	 7.53231578072769E-02 
694	 0.076986534963389 
695	 7.83332364056869E-02 
696	 8.00090086789183E-02 
697	 8.19840897175209E-02 
698	 8.39312692817485E-02 
699	 8.56305522038318E-02 
700	 8.69690822355813E-02 
701	 8.83261102386763E-02 
702	 8.98237704608105E-02 
703	 9.15581763048148E-02 
704	 9.32171971141697E-02 
705	 0.094681948728661 
706	 9.58349283663881E-02 
707	 9.68218229023368E-02 
708	 9.77772099106551E-02 
709	 9.89147912293895E-02 
710	 0.100204703086837 
711	 0.101559181759129 
712	 0.102688025364232 
713	 0.103546767196578 
714	 0.10443598674828 
715	 0.105431645477417 
716	 0.106627419367499 
717	 0.107458418107186 
718	 0.108041031532024 
719	 0.109188875226442 
720	 0.109815795801916 
721	 0.109720448196725 
722	 0.109784925340763 
723	 0.110035557790112 
724	 0.1104536293903 
725	 0.111478613187123 
726	 0.112793169331058 
727	 0.113490271134215 
728	 0.11358223298973 
729	 0.113235764528468 
730	 0.113603696861734 
731	 0.114286685101497 
732	 0.114547509793038 
733	 0.11468830533888 
734	 0.114832260052591 
735	 0.115128192489464 
736	 0.115548637869694 
737	 0.116040979989004 
738	 0.116468527157272 
739	 0.116682462872024 
740	 0.116426224518102 
741	 0.116447938755897 
742	 0.11686692244535 
743	 0.117074346988795 
744	 0.11713659763412 
745	 0.117150200924421 
746	 0.117353872917164 
747	 0.117730156173167 
748	 0.118158040698062 
749	 0.118471625255636 
750	 0.118554211759876 
751	 0.118211868254979 
752	 0.118015955205624 
753	 0.118543646037087 
754	 0.118924221383756 
755	 0.119071824186568 
756	 0.119343436320941 
757	 0.119401670201196 
758	 0.119161378239618 
759	 0.119257845154786 
760	 0.11981607751249 
761	 0.120359888412775 
762	 0.120920266332227 
763	 0.121361806604983 
764	 0.121403150067402 
765	 0.121679909546606 
766	 0.12222430140222 
767	 0.12201924011644 
768	 0.121622217049879 
769	 0.121745418026028 
770	 0.121703585370707 
771	 0.121457782156348 
772	 0.121404061750332 
773	 0.121658654204903 
774	 0.122217286130659 
775	 0.122324594297105 
776	 0.122222785516235 
777	 0.122567204229849 
778	 0.122771201557212 
779	 0.122734692914666 
780	 0.12276665575883 
781	 0.122967178864348 
782	 0.123355056085315 
783	 0.123305393405375 
784	 0.123041755940284 
785	 0.123255653256919 
786	 0.123537499199479 
787	 0.123701395236116 
788	 0.123480734300545 
789	 0.123403324262732 
790	 0.123940115895884 
791	 0.124472507004877 
792	 0.124837849532522 
793	 0.124954327722307 
794	 0.125068099307724 
795	 0.12522536277225 
796	 0.125122883646918 
797	 0.124991804111236 
798	 0.125075377458942 
799	 0.12529426360265 
800	 0.125419508630234 
801	 0.124770107594166 
802	 0.124733463687055 
803	 0.125620017073121 
804	 0.125820100594112 
805	 0.125613124306361 
806	 0.125449236559903 
807	 0.125447043658287 
808	 0.125664819575568 
809	 0.126200217279908 
810	 0.126391903322573 
811	 0.126095596021916 
812	 0.126492213782068 
813	 0.12721413867588 
814	 0.127632212721551 
815	 0.127809646436401 
816	 0.127856097562386 
817	 0.128231993541143 
818	 0.128074257042139 
819	 0.127340143364974 
820	 0.127841268955852 
821	 0.128865956740213 
822	 0.129406703348751 
823	 0.12933289366907 
824	 0.128847224498383 
825	 0.128628470041488 
826	 0.128607047338541 
827	 0.128805864878377 
828	 0.129529256684234 
829	 0.12974604586095 
830	 0.128300087850927 
831	 0.128808632914263 
832	 0.130827422419385 
833	 0.130792383246215 
834	 0.130259330169326 
835	 0.129902464117178 
836	 0.129725668344083 
837	 0.129572734837746 
838	 0.129263204850297 
839	 0.129289923592467 
840	 0.129558090632939 
841	 0.129431029655121 
842	 0.129711777299021 
843	 0.130526800944311 
844	 0.130621837691767 
845	 0.130145903046023 
846	 0.129440192844996 
847	 0.129541638738148 
848	 0.130284170700365 
849	 0.130514037139234 
850	 0.130582290319028 
851	 0.130545543874285 
852	 0.130155902375233 
853	 0.12953971866295 
854	 0.128933974253976 
855	 0.129521153626695 
856	 0.13078671039171 
857	 0.130928641674814 
858	 0.130970722333118 
859	 0.131016235932663 
860	 0.129761392962714 
861	 0.129051617526462 
862	 0.130534645817145 
863	 0.131283400899552 
864	 0.131213973341058 
865	 0.131476541020062 
866	 0.131808953332112 
867	 0.13215877015853 
868	 0.132549394165584 
869	 0.132744424885212 
870	 0.13264661962038 
871	 0.133271495721982 
872	 0.134052424639581 
873	 0.13360518830092 
874	 0.133215708237199 
875	 0.13296431081397 
876	 0.131307311400285 
877	 0.130606634407783 
878	 0.132177146851156 
879	 0.13208707432084 
880	 0.13140075359585 
881	 0.132749249113041 
882	 0.133078477375052 
883	 0.132296151173277 
884	 0.133017240322756 
885	 0.134076615670576 
886	 0.13464816102818 
887	 0.133797148874933 
888	 0.133165497278191 
889	 0.134949136236233 
890	 0.134780337465475 
891	 0.132926084215467 
892	 0.133657595024576 
893	 0.134179054525051 
894	 0.133598183382314 
895	 0.134792873319703 
896	 0.136429235399923 
897	 0.136657823714502 
898	 0.136315583979688 
899	 0.136002226321612 
900	 0.136973546754895 
901	 0.136101837332104 
902	 0.133416987514981 
903	 0.133612134682634 
904	 0.135098919950467 
905	 0.136413232600846 
906	 0.137197959692837 
907	 0.137518994762459 
908	 0.137683775090596 
909	 0.137818306133619 
910	 0.137800428710395 
911	 0.136930168700344 
912	 0.136057936649408 
913	 0.135915621023527 
914	 0.137725057201464 
915	 0.139293643059636 
916	 0.137977758042846 
917	 0.137966279615057 
918	 0.138947214442916 
919	 0.137477451085684 
920	 0.136990022143111 
921	 0.138198766399087 
922	 0.138234121176956 
923	 0.137758494827578 
924	 0.137381457660566 
925	 0.135330453791953 
926	 0.133851912793089 
927	 0.138609068045563 
928	 0.141484544163009 
929	 0.139663139291 
930	 0.135532095009362 
931	 0.134088179665392 
932	 0.138296658656575 
933	 0.13263588627286 
934	 0.126398186790288 
935	 0.135726412065757 
936	 0.139070775727056 
937	 0.13569467273009 
938	 0.137745899260373 
939	 0.138807826672651 
940	 0.137627104614317 
941	 0.137100236231133 
942	 0.135864445940031 
943	 0.133517498140203 
944	 0.136196667316635 
945	 0.141498074718014 
946	 0.144628809359233 
947	 0.144023594260076 
948	 0.141768183357481 
949	 0.146687377827003 
950	 0.148701045240929 
951	 0.14427630204005 
952	 0.139557284902685 
953	 0.137238005140315 
954	 0.13915683510323 
955	 0.143932163707807 
956	 0.147628385725455 
957	 0.144137175630544 
958	 0.139725619810452 
959	 0.136333504549745 
960	 0.133217472513022 
961	 0.13433028140729 
962	 0.140071955734293 
963	 0.142689667916573 
964	 0.142892505318917 
965	 0.142135179055968 
966	 0.142159998011775 
967	 0.141680469383519 
968	 0.137378265493521 
969	 0.133593412511048 
970	 0.132877846363267 
971	 0.140414652094787 
972	 0.141803108107201 
973	 0.132345638775461 
974	 0.135802220977159 
975	 0.143430034558554 
976	 0.143118893136962 
977	 0.14066832520039 
978	 0.137688796712315 
979	 0.135700378820533 
980	 0.132366057555551 
981	 0.129326592493029 
982	 0.134596095689473 
983	 0.14007396143568 
984	 0.141481301298058 
985	 0.143363705374556 
986	 0.14501458905581 
987	 0.145188475494233 
988	 0.141521115906996 
989	 0.137428921548409 
990	 0.140494379365166 
991	 0.140726960604457 
992	 0.137340302534334 
993	 0.138413067661652 
994	 0.140697310414094 
995	 0.141857122337178 
996	 0.138532191843949 
997	 0.135886219867766 
998	 0.138626427761603 
999	 0.137053467472768 
1000	 0.13421678280074 
1001	 0.138106581281766 
1002	 0.138014039445636 
1003	 0.135114643406627 
1004	 0.14364887527214 
1005	 0.145838226701582 
1006	 0.136853844593555 
1007	 0.130804526331796 
1008	 0.132683399143084 
1009	 0.143298583103541 
1010	 0.142617559108854 
1011	 0.135681746736902 
1012	 0.133391321242472 
1013	 0.136817342458999 
1014	 0.142756874614491 
1015	 0.143004642428714 
1016	 0.140742075063141 
1017	 0.138796094090645 
1018	 0.145603722905476 
1019	 0.145177617235382 
1020	 0.132175430516393 
1021	 0.132721769904983 
1022	 0.138169503609304 
1023	 0.137940791092541 
1024	 0.139376417905148 
1025	 0.137486612683624 
1026	 0.122778674682938 
1027	 0.127394144973658 
1028	 0.14687279553542 
1029	 0.142048554639573 
1030	 0.137741842392846 
1031	 0.13968539175768 
1032	 0.134441176194887 
1033	 0.126204284196972 
1034	 0.121459200970392 
1035	 0.140911035322342 
1036	 0.154539949332996 
1037	 0.133553461294906 
1038	 0.12942864647124 
1039	 0.13809305911726 
1040	 0.135496799728063 
1041	 0.14147978428695 
1042	 0.152403251140829 
1043	 0.146581923900801 
1044	 0.140558638044016 
1045	 0.139765336197718 
1046	 0.139228374895422 
1047	 0.131688024086348 
1048	 0.117271104113638 
1049	 0.130053027648063 
1050	 0.139193880950241 
1051	 0.119149658171404 
1052	 0.129972507162249 
1053	 0.150730175370151 
1054	 0.135792299982177 
1055	 0.136772987214065 
1056	 0.154242287333214 
1057	 0.164736750646041 
1058	 0.143124377607745 
1059	 9.97145448676682E-02 
1060	 0.121952234409968 
1061	 0.139679799930367 
1062	 0.126627160041251 
1063	 0.118970522611721 
1064	 0.113467515965747 
1065	 0.110677474802557 
1066	 0.142360875376448 
1067	 0.161553040787223 
1068	 0.122665696316701 
1069	 0.127777002963809 
1070	 0.154510028854823 
1071	 0.130858704060222 
1072	 0.11893555201892 
1073	 0.122007145557319 
1074	 0.111169791736795 
1075	 0.119725572040328 
