Wavelength	A00177.asd
325	 3.24775426328314E-02 
326	 4.15851009614799E-02 
327	 5.77150682325643E-02 
328	 4.81534630270357E-02 
329	 4.07597266419132E-02 
330	 0.043579026951485 
331	 3.96668534744893E-02 
332	 3.74156584277598E-02 
333	 4.52584091167517E-02 
334	 4.76989020006571E-02 
335	 4.52754786227381E-02 
336	 0.045284143933855 
337	 4.54760834140848E-02 
338	 4.58426219317166E-02 
339	 4.98529804984095E-02 
340	 4.92848390673987E-02 
341	 0.038992142348827 
342	 3.80935206099854E-02 
343	 4.44858789498353E-02 
344	 4.93766620264289E-02 
345	 4.92827682626552E-02 
346	 4.54499800555423E-02 
347	 4.77038039024419E-02 
348	 4.95284058106953E-02 
349	 4.70999393986114E-02 
350	 4.80086898209546E-02 
351	 4.96619303550535E-02 
352	 4.65092540238388E-02 
353	 4.43615771590007E-02 
354	 4.44833081862063E-02 
355	 4.60099488119565E-02 
356	 4.56442454208818E-02 
357	 4.22638915482049E-02 
358	 4.34425086190126E-02 
359	 4.68202256060792E-02 
360	 0.047635115616408 
361	 4.60988343407103E-02 
362	 4.36249153689912E-02 
363	 4.47772587760575E-02 
364	 4.57447087733565E-02 
365	 0.044771847481296 
366	 4.47981900740937E-02 
367	 4.47578729149098E-02 
368	 4.28327575182545E-02 
369	 0.043950002214571 
370	 4.70813884912651E-02 
371	 4.47427648421969E-02 
372	 4.32274537789216E-02 
373	 4.54523640875532E-02 
374	 4.59858187748424E-02 
375	 4.59155037754118E-02 
376	 4.74684019730292E-02 
377	 4.79101138698596E-02 
378	 4.66970193799883E-02 
379	 4.39156939338014E-02 
380	 4.28868151881462E-02 
381	 4.50284567719124E-02 
382	 4.73468776088034E-02 
383	 4.85614644957195E-02 
384	 4.74933329778723E-02 
385	 4.83923193863565E-02 
386	 5.01274279429921E-02 
387	 4.56934054352659E-02 
388	 4.39078043470602E-02 
389	 4.74632784826832E-02 
390	 4.70826645010247E-02 
391	 4.57371249201958E-02 
392	 4.77089730929619E-02 
393	 4.69586041616294E-02 
394	 4.43459319416373E-02 
395	 4.59149410711207E-02 
396	 4.73544234297513E-02 
397	 4.70323983547138E-02 
398	 4.68844916821111E-02 
399	 4.63280578982424E-02 
400	 4.47056487499424E-02 
401	 4.51108549146518E-02 
402	 4.69292457132496E-02 
403	 4.75339581251957E-02 
404	 4.70941465099362E-02 
405	 4.60218510904132E-02 
406	 0.046610360629764 
407	 4.76837967621576E-02 
408	 4.75563985895078E-02 
409	 4.71048433287156E-02 
410	 4.66762354277744E-02 
411	 0.046605313472848 
412	 4.69475287755627E-02 
413	 4.75643466267231E-02 
414	 4.75054337410427E-02 
415	 0.047127290724264 
416	 4.70060323963563E-02 
417	 4.69722985034791E-02 
418	 4.71533091205972E-02 
419	 4.81298400637775E-02 
420	 4.86038805759349E-02 
421	 4.80234812367871E-02 
422	 4.78808869048473E-02 
423	 4.81630639698364E-02 
424	 4.85905848681498E-02 
425	 4.88021075535207E-02 
426	 4.88057585213059E-02 
427	 4.90780459651016E-02 
428	 4.92674888861691E-02 
429	 4.91970054341269E-02 
430	 4.94005582530297E-02 
431	 4.97189897094703E-02 
432	 0.049812476660136 
433	 4.91755192976524E-02 
434	 4.82180437645879E-02 
435	 4.87986110517298E-02 
436	 0.049439890212644 
437	 4.92344911013807E-02 
438	 4.95539773394985E-02 
439	 5.00705553882591E-02 
440	 4.98099105632101E-02 
441	 4.98878521605738E-02 
442	 5.04425983835921E-02 
443	 5.05370871110027E-02 
444	 5.06695166305821E-02 
445	 5.12249442192591E-02 
446	 0.051601306160102 
447	 5.16929213845893E-02 
448	 5.14860235337007E-02 
449	 5.12915000646745E-02 
450	 0.051265954856474 
451	 5.14567713479714E-02 
452	 5.17826630924474E-02 
453	 5.21388253986697E-02 
454	 5.21473230572374E-02 
455	 5.19876402119318E-02 
456	 0.05237721958355 
457	 5.27339504175249E-02 
458	 5.28346958377919E-02 
459	 5.28923276441455E-02 
460	 5.29333534769549E-02 
461	 5.29644180889353E-02 
462	 5.26632517851766E-02 
463	 5.21719209719501E-02 
464	 5.20393939344434E-02 
465	 5.23915915272992E-02 
466	 5.31851571765873E-02 
467	 5.35991194778396E-02 
468	 5.36472456347098E-02 
469	 5.35136741690993E-02 
470	 0.053534952311808 
471	 5.37372511522837E-02 
472	 5.38094295530878E-02 
473	 5.38364699978896E-02 
474	 0.053865371032294 
475	 5.37755482328229E-02 
476	 5.38006840186874E-02 
477	 5.44069543922586E-02 
478	 5.44517811530626E-02 
479	 5.38748833145895E-02 
480	 5.38944343541752E-02 
481	 5.42227784270946E-02 
482	 5.45725652958001E-02 
483	 0.054672028127571 
484	 5.46422730694114E-02 
485	 5.49385831504151E-02 
486	 5.50464354315439E-02 
487	 5.49033317440531E-02 
488	 5.52585828671529E-02 
489	 5.54837668528056E-02 
490	 5.49571368474752E-02 
491	 5.46913912058451E-02 
492	 5.48982217967415E-02 
493	 5.56620637391101E-02 
494	 5.59892024383201E-02 
495	 5.55609491746165E-02 
496	 5.54730535261494E-02 
497	 5.56963166164196E-02 
498	 5.60475730452633E-02 
499	 5.63708632841997E-02 
500	 5.65751130013356E-02 
501	 5.65341834173987E-02 
502	 5.66391054466932E-02 
503	 0.057072782526957 
504	 5.72569320036356E-02 
505	 5.73189672023643E-02 
506	 5.76002633944507E-02 
507	 5.77871649318365E-02 
508	 5.79244858591915E-02 
509	 5.86228731862792E-02 
510	 5.89828512993105E-02 
511	 5.83787944748783E-02 
512	 5.82652730101885E-02 
513	 5.86811148095448E-02 
514	 5.91228327201725E-02 
515	 5.95878451765697E-02 
516	 5.99619360767603E-02 
517	 5.98142953373082E-02 
518	 5.98724779229433E-02 
519	 6.08729495456175E-02 
520	 6.11440413061862E-02 
521	 6.08206177662422E-02 
522	 6.12072104955156E-02 
523	 6.16627170897875E-02 
524	 6.19577023709293E-02 
525	 6.25536638163233E-02 
526	 6.30737954673221E-02 
527	 6.29286355070073E-02 
528	 6.30234741397712E-02 
529	 6.34347978166408E-02 
530	 0.063518966260063 
531	 6.37008717058665E-02 
532	 6.42261102700311E-02 
533	 0.064620545962926 
534	 6.48047292994468E-02 
535	 6.47504035389195E-02 
536	 6.48598522995043E-02 
537	 6.52081284868399E-02 
538	 6.53971707276954E-02 
539	 6.56468287931672E-02 
540	 6.61561998808852E-02 
541	 6.63977826548894E-02 
542	 6.63212244949626E-02 
543	 6.60052316184982E-02 
544	 6.61182355411894E-02 
545	 6.67931433169321E-02 
546	 6.68448755024623E-02 
547	 6.66515316276617E-02 
548	 6.68473077716848E-02 
549	 6.71118304399427E-02 
550	 6.73769304670092E-02 
551	 6.76575814812223E-02 
552	 6.79767687918505E-02 
553	 6.83131802971731E-02 
554	 6.83796395803823E-02 
555	 6.83184918309692E-02 
556	 6.84573233989143E-02 
557	 6.86662357136856E-02 
558	 0.06889428745972 
559	 6.90756347816268E-02 
560	 6.92477672194531E-02 
561	 6.94406606109731E-02 
562	 6.95562497170191E-02 
563	 6.95449961752126E-02 
564	 6.92689321575151E-02 
565	 6.92700072068433E-02 
566	 6.96542048987639E-02 
567	 6.95177645529132E-02 
568	 6.91978420756429E-02 
569	 0.069225273837502 
570	 6.93617802444576E-02 
571	 6.95288125137847E-02 
572	 6.96758360001093E-02 
573	 6.96695731473707E-02 
574	 6.95042077513792E-02 
575	 6.99103333489273E-02 
576	 7.03652215537314E-02 
577	 6.97232857061781E-02 
578	 0.069247203316644 
579	 6.92402325352648E-02 
580	 6.90350981048267E-02 
581	 6.90889518787344E-02 
582	 6.97491534157464E-02 
583	 6.99651410742632E-02 
584	 6.97459643393396E-02 
585	 6.96218838337401E-02 
586	 6.96138392896095E-02 
587	 6.97046183346887E-02 
588	 6.95289422623128E-02 
589	 6.93213679357714E-02 
590	 6.94309011087769E-02 
591	 6.97040914628716E-02 
592	 6.99201440526371E-02 
593	 6.95082005084487E-02 
594	 6.92261665285969E-02 
595	 6.94885030721781E-02 
596	 6.97365818119042E-02 
597	 6.98573750454435E-02 
598	 6.97968979019452E-02 
599	 6.96888331045485E-02 
600	 6.95879561284281E-02 
601	 6.94703803539598E-02 
602	 6.94955946071668E-02 
603	 0.069765990372639 
604	 6.97829242950827E-02 
605	 6.95449941954546E-02 
606	 6.92369585318333E-02 
607	 6.91474538449177E-02 
608	 6.94182020081643E-02 
609	 7.00490792567349E-02 
610	 7.03459089766522E-02 
611	 6.94817627060083E-02 
612	 6.92190194476058E-02 
613	 6.96541442406279E-02 
614	 6.95117068257624E-02 
615	 6.93456426560974E-02 
616	 6.94428066516303E-02 
617	 6.93462213317406E-02 
618	 0.069077065976423 
619	 6.87560219494051E-02 
620	 6.86181493518015E-02 
621	 6.87099499919401E-02 
622	 6.88834254033597E-02 
623	 6.88873508262662E-02 
624	 6.85556254950668E-02 
625	 6.87953760195295E-02 
626	 6.93282308718065E-02 
627	 6.89634640959885E-02 
628	 6.87224124594987E-02 
629	 6.89372936208979E-02 
630	 6.90341636840278E-02 
631	 6.89392023231973E-02 
632	 6.86319525608547E-02 
633	 6.87923505306747E-02 
634	 6.93238996854739E-02 
635	 6.93941007660636E-02 
636	 6.91809423643524E-02 
637	 6.88345283307644E-02 
638	 6.86878511686105E-02 
639	 6.87015861416825E-02 
640	 6.86963350343871E-02 
641	 6.89008418552791E-02 
642	 6.92295798127343E-02 
643	 6.90663066935206E-02 
644	 0.068849764582436 
645	 6.89472328015455E-02 
646	 6.86304788228128E-02 
647	 6.81354707038304E-02 
648	 6.84506861149581E-02 
649	 6.86556953348443E-02 
650	 6.84134313973781E-02 
651	 6.80490176278521E-02 
652	 6.78348385485043E-02 
653	 0.068049923494702 
654	 6.83694048779774E-02 
655	 6.85421697471465E-02 
656	 6.80413331853028E-02 
657	 6.74008842643112E-02 
658	 0.066978744585536 
659	 6.64966315388974E-02 
660	 6.61478790426793E-02 
661	 0.066343322692287 
662	 6.59201763117552E-02 
663	 6.49114917736413E-02 
664	 6.50064798278824E-02 
665	 6.52279782633792E-02 
666	 6.47477361374134E-02 
667	 6.42795870469116E-02 
668	 6.39832258474442E-02 
669	 6.39974484613627E-02 
670	 6.36863605345295E-02 
671	 6.30545785478418E-02 
672	 6.35956654237498E-02 
673	 6.43196257778043E-02 
674	 6.39955404866922E-02 
675	 6.37132426626987E-02 
676	 6.36619476231315E-02 
677	 6.35729248288405E-02 
678	 6.37838917613043E-02 
679	 6.43880336441499E-02 
680	 6.46956165839977E-02 
681	 6.47832065704371E-02 
682	 6.48952172305769E-02 
683	 6.54276863356789E-02 
684	 6.63025469522031E-02 
685	 0.06673359096151 
686	 6.70733400451369E-02 
687	 6.76234412754367E-02 
688	 6.81828432111488E-02 
689	 6.87658868369111E-02 
690	 6.95779106693572E-02 
691	 7.04612518883499E-02 
692	 7.13230332363501E-02 
693	 7.18354828428755E-02 
694	 7.25956692008996E-02 
695	 7.41573567500154E-02 
696	 7.55113759462697E-02 
697	 7.64085770555893E-02 
698	 7.67534322057212E-02 
699	 7.73183641243652E-02 
700	 7.83807482462977E-02 
701	 7.89243861040783E-02 
702	 7.93998553177952E-02 
703	 8.05716699608504E-02 
704	 8.14345372532399E-02 
705	 8.18580895279108E-02 
706	 0.0822153321721 
707	 8.28574366350495E-02 
708	 8.38951365482969E-02 
709	 8.40928287006705E-02 
710	 8.40144657191931E-02 
711	 8.50532635771589E-02 
712	 8.57511888197067E-02 
713	 8.58859236375279E-02 
714	 8.66212498446127E-02 
715	 8.73615366508233E-02 
716	 8.75693391166444E-02 
717	 8.79882356062539E-02 
718	 8.86688432424035E-02 
719	 8.92033553742606E-02 
720	 8.93018580571831E-02 
721	 8.90507239848341E-02 
722	 8.91984166638817E-02 
723	 8.95522531526744E-02 
724	 8.98530140676124E-02 
725	 9.01747477731923E-02 
726	 9.06054410490277E-02 
727	 9.15619329752415E-02 
728	 9.19995769451634E-02 
729	 9.15424709200421E-02 
730	 9.16112968573096E-02 
731	 9.19780026231683E-02 
732	 9.21028028466677E-02 
733	 9.19380204899408E-02 
734	 9.16722297306243E-02 
735	 9.19745785580505E-02 
736	 9.23916588848179E-02 
737	 9.26240640368837E-02 
738	 9.29951526111695E-02 
739	 0.09335055117644 
740	 9.33248194570026E-02 
741	 9.33605257649644E-02 
742	 9.35538690611895E-02 
743	 9.36891419918117E-02 
744	 0.09370781495005 
745	 0.093600319447645 
746	 9.38098130845925E-02 
747	 9.42077686728228E-02 
748	 9.43138612084901E-02 
749	 9.43344897559619E-02 
750	 9.43518403145943E-02 
751	 9.44384809804355E-02 
752	 9.45511636350358E-02 
753	 9.46378454959024E-02 
754	 9.47272351298947E-02 
755	 9.48569083891484E-02 
756	 9.51557360278312E-02 
757	 9.52576227094105E-02 
758	 9.50633260827724E-02 
759	 9.52969701942168E-02 
760	 9.61423717192065E-02 
761	 9.69288123650861E-02 
762	 0.096748076379721 
763	 9.61392065560677E-02 
764	 0.096620664341407 
765	 9.69489117757345E-02 
766	 9.67755603133268E-02 
767	 9.68579140128422E-02 
768	 0.096790556712094 
769	 9.59739625449105E-02 
770	 9.59289577294818E-02 
771	 9.66309036718536E-02 
772	 9.64838067624398E-02 
773	 9.64060302725873E-02 
774	 9.69373621468333E-02 
775	 9.70940432639642E-02 
776	 9.70710573078471E-02 
777	 9.74855132176157E-02 
778	 9.77027423300202E-02 
779	 9.76106912937695E-02 
780	 9.75733688722169E-02 
781	 9.76036497799946E-02 
782	 9.76992549483029E-02 
783	 9.77494690547722E-02 
784	 9.78380054149759E-02 
785	 9.82347222060342E-02 
786	 9.81619515696445E-02 
787	 9.76523578348213E-02 
788	 9.82121876776956E-02 
789	 9.88665827657988E-02 
790	 9.86806379713521E-02 
791	 9.86177856428849E-02 
792	 9.87392135674009E-02 
793	 9.87127407666971E-02 
794	 9.89708474209458E-02 
795	 9.95254125149082E-02 
796	 0.099660260131662 
797	 9.95819689360879E-02 
798	 9.95448653034952E-02 
799	 9.94353827592406E-02 
800	 0.099378139678511 
801	 9.97927981683516E-02 
802	 0.099869907708033 
803	 9.94654819298521E-02 
804	 9.97642583246247E-02 
805	 0.100112306945272 
806	 9.97451892795851E-02 
807	 9.93603222731577E-02 
808	 9.93744077683036E-02 
809	 0.100692702675456 
810	 0.101220924822455 
811	 0.10029553616649 
812	 0.100254245666291 
813	 0.100993085627326 
814	 0.102062364326592 
815	 0.102144910871864 
816	 0.101507066415576 
817	 0.102374121267504 
818	 0.102592907319939 
819	 0.101588578991811 
820	 0.101575990013439 
821	 0.102054841594603 
822	 0.102242616317485 
823	 0.102216919336566 
824	 0.102123861096486 
825	 0.102399371056232 
826	 0.102583222625677 
827	 0.102551317628107 
828	 0.102925064504943 
829	 0.102888421499939 
830	 0.101483411292378 
831	 0.101387854907075 
832	 0.102537088133479 
833	 0.103039009932246 
834	 0.102955137246393 
835	 0.102467054259223 
836	 0.102794022343599 
837	 0.103231772724306 
838	 0.102900490574568 
839	 0.102889153984435 
840	 0.103107448853213 
841	 0.102531341822381 
842	 0.102530428073871 
843	 0.103365705838903 
844	 0.102832472902092 
845	 0.102257397404006 
846	 0.103236608138498 
847	 0.103370506336758 
848	 0.102687935322949 
849	 0.102787708230755 
850	 0.102717628488806 
851	 0.102265454884115 
852	 0.102319938549139 
853	 0.102806933326504 
854	 0.103512128633258 
855	 0.103753458965018 
856	 0.103571337393994 
857	 0.103505449663616 
858	 0.103138300474536 
859	 0.102539256483882 
860	 0.102610974594924 
861	 0.10303183071896 
862	 0.103420662003363 
863	 0.103575836910575 
864	 0.103575278217297 
865	 0.103696455240674 
866	 0.104073552318124 
867	 0.1046253547541 
868	 0.104765419983643 
869	 0.104645160572851 
870	 0.104471234977397 
871	 0.104724752079981 
872	 0.105266055045872 
873	 0.105731226466876 
874	 0.105338388879596 
875	 0.10428243844404 
876	 0.104405032739122 
877	 0.104753952262067 
878	 0.104686759108826 
879	 0.105050328931222 
880	 0.10534216971275 
881	 0.104600611042658 
882	 0.10410721177575 
883	 0.104133028518353 
884	 0.10419008707641 
885	 0.104674762814413 
886	 0.105626662720289 
887	 0.10577971736865 
888	 0.105758193398591 
889	 0.10655428816387 
890	 0.107234058032638 
891	 0.107294495073405 
892	 0.105765224054382 
893	 0.104772336880454 
894	 0.105332409253202 
895	 0.106344752518666 
896	 0.107107482714185 
897	 0.106923678380722 
898	 0.106757354435373 
899	 0.106696841414807 
900	 0.106449476560205 
901	 0.105853261513538 
902	 0.105048111452697 
903	 0.104665305451482 
904	 0.105232755931556 
905	 0.10687466681389 
906	 0.107090717673293 
907	 0.106409531670059 
908	 0.106462142905493 
909	 0.106911081513928 
910	 0.107597094034217 
911	 0.108088231805975 
912	 0.10851029519668 
913	 0.109051259385084 
914	 0.11062601885305 
915	 0.111557384308107 
916	 0.109865986031803 
917	 0.109390647108668 
918	 0.109717987584068 
919	 0.107037782341484 
920	 0.106656617264629 
921	 0.109215110381027 
922	 0.107550196575798 
923	 0.106426741564959 
924	 0.109862362457051 
925	 0.109122203362184 
926	 0.106011517893871 
927	 0.107875644295712 
928	 0.109539184529249 
929	 0.10898882884577 
930	 0.105371097703863 
931	 0.103730240696398 
932	 0.107444705206898 
933	 0.105033543741631 
934	 0.101218321639196 
935	 0.105275334278773 
936	 0.11083730340329 
937	 0.113786247470119 
938	 0.108036134972521 
939	 0.10485686689575 
940	 0.106692773510343 
941	 0.106611530427763 
942	 0.105555306964116 
943	 0.104810713348242 
944	 0.108205746335649 
945	 0.113105529446778 
946	 0.114927680364137 
947	 0.112321820895209 
948	 0.107000936652071 
949	 0.105495470414925 
950	 0.104252303841678 
951	 0.103106830816726 
952	 0.110121751076377 
953	 0.114010678957901 
954	 0.105828627368584 
955	 0.106410470894816 
956	 0.113562970252877 
957	 0.117399485456439 
958	 0.115216174523822 
959	 0.108499672914102 
960	 0.104220099776991 
961	 0.104344736134702 
962	 0.108450011772902 
963	 0.108731615708036 
964	 0.108064007222352 
965	 0.109576922503504 
966	 0.109138652736422 
967	 0.107739726856374 
968	 0.108875299646167 
969	 0.105743595450313 
970	 9.97711002326422E-02 
971	 0.103712193799974 
972	 0.106532737445247 
973	 0.103361312394188 
974	 0.104603858327453 
975	 0.108238526063707 
976	 0.110717191354192 
977	 0.109874890314821 
978	 0.107039193938117 
979	 0.105952096308357 
980	 0.107289877382122 
981	 0.110290872502711 
982	 0.111616990141506 
983	 0.110946292480587 
984	 0.108563264013026 
985	 0.10651716197626 
986	 0.108554599395146 
987	 0.117027798591802 
988	 0.113008884872782 
989	 0.103315899152087 
990	 0.108681905291036 
991	 0.111089717935739 
992	 0.107056113547559 
993	 0.102738288954515 
994	 0.102681742565602 
995	 0.10771904064606 
996	 0.108053243931488 
997	 0.10546419929401 
998	 0.103140160694411 
999	 0.106964699997413 
1000	 0.113907262129489 
1001	 0.117161104508196 
1002	 0.111248997594455 
1003	 0.100238190665839 
1004	 0.102179378324993 
1005	 0.107766648937306 
1006	 0.110991653930484 
1007	 0.101783541994019 
1008	 9.67257530788564E-02 
1009	 0.106482176242911 
1010	 0.103066408177868 
1011	 9.53337266442105E-02 
1012	 0.100116629045448 
1013	 0.105410956908869 
1014	 0.108719750979014 
1015	 0.110855175526687 
1016	 0.11296653644514 
1017	 0.114754229423591 
1018	 0.113758837321018 
1019	 0.110393513855625 
1020	 0.106097832600658 
1021	 0.108344373744869 
1022	 0.109542397121044 
1023	 0.103271991392507 
1024	 0.109751285353483 
1025	 0.118471126113477 
1026	 0.107202597046283 
1027	 0.101343441940141 
1028	 0.103527339279836 
1029	 0.101061073217716 
1030	 9.83156956915383E-02 
1031	 9.92185515391212E-02 
1032	 0.115703954867782 
1033	 0.125856286626465 
1034	 0.117669743628854 
1035	 0.115544838013523 
1036	 0.114123922057282 
1037	 0.106099226415742 
1038	 9.92197240407614E-02 
1039	 0.101249998076295 
1040	 0.121702560481055 
1041	 0.136122620993938 
1042	 0.134741225620326 
1043	 0.108839867547576 
1044	 0.095726667726649 
1045	 0.107738700735777 
1046	 0.1230552052869 
1047	 0.126856453034182 
1048	 0.112300549799871 
1049	 0.100191402751527 
1050	 9.80068382225433E-02 
1051	 0.108152536000509 
1052	 0.117344903520139 
1053	 0.118610127897956 
1054	 0.106311530861973 
1055	 9.82263260413545E-02 
1056	 0.105034319073671 
1057	 0.142354929974479 
1058	 0.137713294088482 
1059	 8.91650572623356E-02 
1060	 9.67623172516604E-02 
1061	 0.103606960694407 
1062	 0.090911061805844 
1063	 0.102870642392011 
1064	 0.112653190459044 
1065	 0.102293013968745 
1066	 0.098827341339703 
1067	 0.106454308451889 
1068	 0.124987103294567 
1069	 0.125189578175066 
1070	 0.109385790621546 
1071	 9.41569273885224E-02 
1072	 8.59953614539706E-02 
1073	 8.62214460907539E-02 
1074	 9.37318415962989E-02 
1075	 8.39007974267731E-02 
