Wavelength	A00143.asd
325	 5.64212558932991E-02 
326	 5.38265474484684E-02 
327	 0.054781825016708 
328	 5.40661846993626E-02 
329	 5.47850790585888E-02 
330	 5.70045850553542E-02 
331	 5.58519506718402E-02 
332	 5.24241251301497E-02 
333	 4.85516890036375E-02 
334	 5.18025618606952E-02 
335	 5.82747634665171E-02 
336	 5.65719992169049E-02 
337	 5.47730382461258E-02 
338	 5.52959496487205E-02 
339	 5.73127912624236E-02 
340	 5.78411004476815E-02 
341	 5.49398646293597E-02 
342	 5.37970122541453E-02 
343	 5.51260236949917E-02 
344	 5.92935379958261E-02 
345	 5.77197738829787E-02 
346	 5.15022306267145E-02 
347	 5.47395805912965E-02 
348	 5.73413312752931E-02 
349	 5.33086838920159E-02 
350	 5.31544521406397E-02 
351	 5.50183246008995E-02 
352	 5.38698142080477E-02 
353	 5.39422165409415E-02 
354	 5.54657443876185E-02 
355	 5.57732351376124E-02 
356	 5.45250076841051E-02 
357	 5.22358954190191E-02 
358	 5.43327509645729E-02 
359	 5.77026832103961E-02 
360	 5.68596835427571E-02 
361	 5.55166019377409E-02 
362	 5.49990908211626E-02 
363	 0.056815228305349 
364	 0.056676203060366 
365	 5.33056615403893E-02 
366	 5.43658334009906E-02 
367	 5.65142166893818E-02 
368	 0.054317872280108 
369	 5.37093276286334E-02 
370	 5.49643918904315E-02 
371	 5.40889049047124E-02 
372	 5.40962760860287E-02 
373	 5.61604174117639E-02 
374	 5.65207961099509E-02 
375	 5.59585553075315E-02 
376	 0.056096073648063 
377	 5.64261024106311E-02 
378	 5.66810211989596E-02 
379	 0.056087715827217 
380	 5.65729420568152E-02 
381	 5.85656133307183E-02 
382	 5.83016601221812E-02 
383	 5.66639783024432E-02 
384	 5.53311077310797E-02 
385	 5.72103931821945E-02 
386	 6.05231463079255E-02 
387	 5.77108670586412E-02 
388	 5.61256008438671E-02 
389	 5.82518099385694E-02 
390	 5.77452684740472E-02 
391	 5.67321040597455E-02 
392	 5.82173500634054E-02 
393	 5.80200140332911E-02 
394	 5.64972518061279E-02 
395	 5.73243674670315E-02 
396	 0.057527762174376 
397	 5.62594338270442E-02 
398	 5.59984393603697E-02 
399	 0.055993219423526 
400	 5.53169259208043E-02 
401	 5.51362273177087E-02 
402	 5.55640748177682E-02 
403	 5.65052773503932E-02 
404	 5.69741362084612E-02 
405	 5.67645890762337E-02 
406	 0.05748741570549 
407	 5.83996995768352E-02 
408	 0.058429212107655 
409	 5.80891841935678E-02 
410	 0.057660001879925 
411	 5.75137620886502E-02 
412	 0.057633732067985 
413	 5.79439064391862E-02 
414	 5.80390710209351E-02 
415	 5.80128610134147E-02 
416	 5.80404996385305E-02 
417	 5.82386912754699E-02 
418	 5.85794715185431E-02 
419	 0.058940735487646 
420	 5.89511424719712E-02 
421	 5.85857776173732E-02 
422	 5.91713174733752E-02 
423	 6.01381666187372E-02 
424	 6.04769288847951E-02 
425	 6.03394740783298E-02 
426	 6.00360100553111E-02 
427	 6.05647111607149E-02 
428	 6.11183216209985E-02 
429	 6.11961663815938E-02 
430	 6.14266071808426E-02 
431	 0.061516114504183 
432	 6.08549933895544E-02 
433	 0.060331780954544 
434	 6.02956226172332E-02 
435	 6.09746699593748E-02 
436	 6.16429655820111E-02 
437	 6.18545939825885E-02 
438	 6.22643877468292E-02 
439	 0.062731743907255 
440	 0.06284210780759 
441	 6.28723912206932E-02 
442	 6.29304981876396E-02 
443	 6.30912968263478E-02 
444	 6.32049060677245E-02 
445	 6.31989143406065E-02 
446	 0.063738314258538 
447	 6.44999275124213E-02 
448	 6.45334778648145E-02 
449	 6.45898096674404E-02 
450	 6.48738423976554E-02 
451	 6.51167870841096E-02 
452	 0.065231886977341 
453	 6.51632850031489E-02 
454	 6.52138816553656E-02 
455	 0.065412036444497 
456	 6.56996897940944E-02 
457	 6.56536742876241E-02 
458	 6.52905515114727E-02 
459	 6.58453246788059E-02 
460	 6.65271659459795E-02 
461	 6.63079585487907E-02 
462	 6.63046841461889E-02 
463	 6.64850097932177E-02 
464	 6.58132526903071E-02 
465	 6.57993098908104E-02 
466	 6.69936307551825E-02 
467	 6.73062138638457E-02 
468	 6.70466467918576E-02 
469	 6.70280111283576E-02 
470	 6.70885303158692E-02 
471	 6.72472586449146E-02 
472	 6.76369113716895E-02 
473	 6.79015787226978E-02 
474	 6.78242902546427E-02 
475	 6.75795763261416E-02 
476	 6.75179090550467E-02 
477	 6.82424143210103E-02 
478	 6.81944755429224E-02 
479	 0.067365203583714 
480	 6.77320510256144E-02 
481	 6.84114432619603E-02 
482	 6.86416403290796E-02 
483	 6.86092870140067E-02 
484	 6.86074254372843E-02 
485	 6.93889362851323E-02 
486	 6.94324483998592E-02 
487	 0.068572147324067 
488	 6.91631457137512E-02 
489	 6.98504646060641E-02 
490	 6.91920501532558E-02 
491	 6.87343725156534E-02 
492	 6.88998638456143E-02 
493	 7.00831379696563E-02 
494	 7.07402452627512E-02 
495	 7.03242681018407E-02 
496	 7.02018467116218E-02 
497	 0.070454377647134 
498	 7.10059280811792E-02 
499	 7.12349962022258E-02 
500	 7.11168286572289E-02 
501	 7.11844905679848E-02 
502	 7.13084690717787E-02 
503	 7.14260229526044E-02 
504	 7.16611635444221E-02 
505	 7.18742585100776E-02 
506	 7.17929048683631E-02 
507	 7.20396189603432E-02 
508	 7.26573201227159E-02 
509	 7.30884198846135E-02 
510	 7.33008241451322E-02 
511	 7.33016983716821E-02 
512	 7.33053524093997E-02 
513	 7.34434364275455E-02 
514	 7.39377911428557E-02 
515	 7.43376565703204E-02 
516	 7.44388028810577E-02 
517	 7.41926135343918E-02 
518	 7.40351116660505E-02 
519	 7.44054596122066E-02 
520	 7.45465209967109E-02 
521	 7.45330696715714E-02 
522	 7.50201635549252E-02 
523	 7.54506951472378E-02 
524	 7.56405753070062E-02 
525	 7.62084971502896E-02 
526	 7.67582437535235E-02 
527	 7.66503753448242E-02 
528	 7.65686859157582E-02 
529	 7.66726651942742E-02 
530	 7.67875702215312E-02 
531	 7.70752376946446E-02 
532	 0.077605824945145 
533	 7.80222385339826E-02 
534	 7.82190845145358E-02 
535	 7.80959478940481E-02 
536	 0.078072634514801 
537	 7.83055449581933E-02 
538	 7.87545549332133E-02 
539	 7.91875119800652E-02 
540	 7.93745524830083E-02 
541	 7.93091487560992E-02 
542	 7.91432535036646E-02 
543	 7.92382303959275E-02 
544	 7.94542505311338E-02 
545	 7.97292234614638E-02 
546	 8.00361390619619E-02 
547	 8.03114422708405E-02 
548	 8.04842524683863E-02 
549	 8.04693741370562E-02 
550	 8.04254136062822E-02 
551	 8.09604122157079E-02 
552	 0.081416423725309 
553	 8.13988968255247E-02 
554	 8.13737124325519E-02 
555	 8.14276609697509E-02 
556	 8.15794322901844E-02 
557	 8.19035184633367E-02 
558	 0.082322277743809 
559	 8.23924905757895E-02 
560	 8.24408526698768E-02 
561	 0.082758130644362 
562	 8.28351312990873E-02 
563	 8.27286532491573E-02 
564	 8.28195600865151E-02 
565	 0.082952225311449 
566	 8.30640254061047E-02 
567	 8.31402029859209E-02 
568	 8.31709449870451E-02 
569	 8.31495065249161E-02 
570	 8.32428019943482E-02 
571	 8.34802943767308E-02 
572	 8.38490806717008E-02 
573	 8.39677888865911E-02 
574	 8.36973724969912E-02 
575	 8.40286146841359E-02 
576	 8.44923572915494E-02 
577	 0.083960225265348 
578	 8.36773774936975E-02 
579	 8.39223553438217E-02 
580	 8.40781642951708E-02 
581	 8.40633579691017E-02 
582	 8.38528204300844E-02 
583	 8.38320152082477E-02 
584	 8.40288084595539E-02 
585	 8.43020839876375E-02 
586	 8.47009233508545E-02 
587	 8.51125538296503E-02 
588	 8.48614911840541E-02 
589	 0.084399739765023 
590	 8.44028878600874E-02 
591	 8.44726492776915E-02 
592	 8.45140038689484E-02 
593	 8.44918037895117E-02 
594	 8.46544151466678E-02 
595	 8.50761490909188E-02 
596	 8.50868460945984E-02 
597	 8.49412918448243E-02 
598	 8.52685787041074E-02 
599	 8.53064838262281E-02 
600	 0.084977067576268 
601	 8.50391722168213E-02 
602	 8.50355394270572E-02 
603	 8.45944120797332E-02 
604	 0.084578348407716 
605	 8.48635321328917E-02 
606	 8.47086705515011E-02 
607	 8.47121590326397E-02 
608	 8.50594174837165E-02 
609	 8.54214330590061E-02 
610	 0.085555307899822 
611	 8.52119968632995E-02 
612	 8.50407444096266E-02 
613	 8.50970409046381E-02 
614	 8.49312991449257E-02 
615	 0.084850430360236 
616	 8.50026790232192E-02 
617	 8.50007739462618E-02 
618	 8.48842301197399E-02 
619	 8.47965822091599E-02 
620	 0.084950211387795 
621	 8.53034854053826E-02 
622	 8.54055997550787E-02 
623	 8.52571533884967E-02 
624	 8.49081213326792E-02 
625	 8.48228207182579E-02 
626	 8.49528185754809E-02 
627	 8.49164139806354E-02 
628	 8.48670570161316E-02 
629	 8.48574750901512E-02 
630	 8.48683698631777E-02 
631	 8.49261450122593E-02 
632	 8.50623260387443E-02 
633	 8.55455561787778E-02 
634	 0.086077970636088 
635	 8.54669084958368E-02 
636	 8.50728830211995E-02 
637	 8.56080669286178E-02 
638	 8.57312333979616E-02 
639	 8.55981126222182E-02 
640	 8.58154681642669E-02 
641	 8.58854303415457E-02 
642	 8.57185671996638E-02 
643	 8.55722525502469E-02 
644	 8.55611145127968E-02 
645	 8.57648968621487E-02 
646	 8.59885343235952E-02 
647	 8.60592164074151E-02 
648	 8.55922558209351E-02 
649	 8.54042628926216E-02 
650	 8.57324979495696E-02 
651	 8.58025770055737E-02 
652	 8.57261464672148E-02 
653	 8.57150398538856E-02 
654	 8.57714031589389E-02 
655	 8.58017941427312E-02 
656	 8.54274886459501E-02 
657	 0.085221455480343 
658	 8.54130459238338E-02 
659	 8.49715298980386E-02 
660	 8.43796978961641E-02 
661	 8.46205505316494E-02 
662	 8.44336944165238E-02 
663	 8.37091368383574E-02 
664	 8.35867430440365E-02 
665	 8.36265967170916E-02 
666	 8.34258896371305E-02 
667	 8.30310787005465E-02 
668	 8.26317628744798E-02 
669	 0.08269459861588 
670	 8.26708917285395E-02 
671	 8.24326104274909E-02 
672	 0.082508232698003 
673	 8.26059069472127E-02 
674	 8.23638512863079E-02 
675	 0.082463295515872 
676	 8.28407085211207E-02 
677	 0.082816139179891 
678	 0.082816347642084 
679	 8.30192847238492E-02 
680	 8.30130050213506E-02 
681	 8.28168646185972E-02 
682	 8.24941721523151E-02 
683	 8.29967246280853E-02 
684	 8.42136848881322E-02 
685	 8.45888587999712E-02 
686	 8.47626918259102E-02 
687	 8.52585302643939E-02 
688	 8.53077208394185E-02 
689	 8.52552731275546E-02 
690	 8.61561941442064E-02 
691	 8.68509938633081E-02 
692	 8.70996048549908E-02 
693	 8.75885302591647E-02 
694	 8.82994569463269E-02 
695	 8.91121255772544E-02 
696	 8.93543461499248E-02 
697	 8.91960767143033E-02 
698	 8.94264274581764E-02 
699	 8.98679800717849E-02 
700	 9.03785122276842E-02 
701	 9.04879640506724E-02 
702	 9.04872603909265E-02 
703	 9.08555832462844E-02 
704	 9.08812382433844E-02 
705	 9.06533655759988E-02 
706	 0.09109147557678 
707	 0.091499367610857 
708	 9.14162063854966E-02 
709	 9.09784529930697E-02 
710	 9.06800264430975E-02 
711	 0.091411368949679 
712	 9.17352284747171E-02 
713	 9.14560323257582E-02 
714	 9.19034533045365E-02 
715	 9.24870941509538E-02 
716	 9.26339183131349E-02 
717	 9.25647697676633E-02 
718	 0.092466860404083 
719	 9.28234907048926E-02 
720	 9.30924489507425E-02 
721	 9.30989928680667E-02 
722	 0.093117337218301 
723	 9.30778320905281E-02 
724	 9.28808086978543E-02 
725	 9.28289204088844E-02 
726	 9.29951579774999E-02 
727	 9.33477502042911E-02 
728	 9.36047611984734E-02 
729	 9.36781339436542E-02 
730	 9.41503651508081E-02 
731	 9.45415861795597E-02 
732	 9.41394192903086E-02 
733	 9.38690274199915E-02 
734	 9.39203841936992E-02 
735	 9.41112972801952E-02 
736	 9.44032949712604E-02 
737	 9.47283918478431E-02 
738	 9.48708847169627E-02 
739	 0.094834532001808 
740	 9.46638505661885E-02 
741	 9.47517379572432E-02 
742	 9.51263531924397E-02 
743	 0.095382590826423 
744	 9.52631086923476E-02 
745	 9.46277769696855E-02 
746	 9.42728518902923E-02 
747	 9.43967402293167E-02 
748	 9.51714831389603E-02 
749	 9.55389746751983E-02 
750	 9.51788725159356E-02 
751	 9.48122500328191E-02 
752	 9.48151329541044E-02 
753	 9.54778000260281E-02 
754	 0.09576439020783 
755	 0.095686758871933 
756	 9.60132009799529E-02 
757	 9.60701110672273E-02 
758	 9.56130706547311E-02 
759	 0.095292194188427 
760	 9.54028213387516E-02 
761	 9.64437350202625E-02 
762	 9.70985396887019E-02 
763	 9.72393281353938E-02 
764	 0.097717667757933 
765	 9.79826155569716E-02 
766	 9.78542393430524E-02 
767	 9.73148347818109E-02 
768	 9.68734509829632E-02 
769	 9.71296970395346E-02 
770	 9.73726613280699E-02 
771	 9.74083021985447E-02 
772	 9.71742752891903E-02 
773	 9.71766921604467E-02 
774	 9.76710692154185E-02 
775	 9.76939994250002E-02 
776	 9.75042531263422E-02 
777	 9.78422345017262E-02 
778	 9.78910696947719E-02 
779	 9.75909152813698E-02 
780	 9.77101258453265E-02 
781	 9.80711022157256E-02 
782	 9.84709195150495E-02 
783	 9.85226852821949E-02 
784	 9.83516530832983E-02 
785	 9.83620810945365E-02 
786	 9.84744174555446E-02 
787	 9.86379202037906E-02 
788	 9.86507017956865E-02 
789	 0.098739407021506 
790	 9.90849487446216E-02 
791	 9.90845467676357E-02 
792	 9.88959835618052E-02 
793	 9.91671272200013E-02 
794	 9.95621049256251E-02 
795	 0.099842206645213 
796	 9.94423454343143E-02 
797	 9.89759387328508E-02 
798	 9.90733635433676E-02 
799	 9.92890933437607E-02 
800	 9.94192941956404E-02 
801	 9.90876225864123E-02 
802	 9.91382569731106E-02 
803	 9.97507453996032E-02 
804	 9.98669887008958E-02 
805	 9.98501056215153E-02 
806	 0.100160774693473 
807	 0.10034988199577 
808	 0.100347213445256 
809	 0.100198690801063 
810	 0.100081618329113 
811	 0.100085858004512 
812	 0.10005777141264 
813	 0.100354167968935 
814	 0.101408357851436 
815	 0.101578686651561 
816	 0.101030864650808 
817	 0.101919633107283 
818	 0.101838355199548 
819	 0.10034690278641 
820	 0.101024197961675 
821	 0.102253877540615 
822	 0.10185113934709 
823	 0.101359303833067 
824	 0.101173656125816 
825	 0.101336545547687 
826	 0.101706111654812 
827	 0.102096260885046 
828	 0.101901129515185 
829	 0.101211510561611 
830	 0.100282650288734 
831	 0.100645396509118 
832	 0.101981841164834 
833	 0.102472431340374 
834	 0.102366070188542 
835	 0.101885063854397 
836	 0.101896708120931 
837	 0.102047295937984 
838	 0.101853204104594 
839	 0.101582493034893 
840	 0.10136625034658 
841	 0.101377556772175 
842	 0.101545691036664 
843	 0.101859337299758 
844	 0.102521223755921 
845	 0.102886341278748 
846	 0.102281574808924 
847	 0.102094289505981 
848	 0.102348765274469 
849	 0.102219260442747 
850	 0.101978037723109 
851	 0.101750510864889 
852	 0.101660442748194 
853	 0.101684586588918 
854	 0.101786505664127 
855	 0.102113017905445 
856	 0.102500416078008 
857	 0.102551837271749 
858	 0.102352700420516 
859	 0.101972074833342 
860	 0.10150653825203 
861	 0.101519436518907 
862	 0.102430180089693 
863	 0.102584043475972 
864	 0.102225590420908 
865	 0.102828847330811 
866	 0.102354086494411 
867	 0.10082560673741 
868	 0.101539998381463 
869	 0.102979028322684 
870	 0.103717959047709 
871	 0.103542821348461 
872	 0.102989964985036 
873	 0.103197567333468 
874	 0.103305220246402 
875	 0.103066070680826 
876	 0.102513458945813 
877	 0.102100909519389 
878	 0.102184999258485 
879	 0.102789283982892 
880	 0.103677230858261 
881	 0.104523155777257 
882	 0.10356500660323 
883	 0.101398126760716 
884	 0.101826427831626 
885	 0.102572567596703 
886	 0.102424205755242 
887	 0.102539441206688 
888	 0.102885754385416 
889	 0.103264749080872 
890	 0.102774260234841 
891	 0.101892630965067 
892	 0.102971413501935 
893	 0.103157743444343 
894	 0.101662960489085 
895	 0.102762345591125 
896	 0.10450469009749 
897	 0.104179093412165 
898	 0.102919519015112 
899	 0.102104313962227 
900	 0.104698731164203 
901	 0.105231599969919 
902	 0.102961258056326 
903	 0.103320248259147 
904	 0.104409883369314 
905	 0.104592675105252 
906	 0.104105125515955 
907	 0.103598839432411 
908	 0.104200461258404 
909	 0.104795460212089 
910	 0.105015480139362 
911	 0.104769728259438 
912	 0.10475610312193 
913	 0.105503150367483 
914	 0.107757166152431 
915	 0.109044103008197 
916	 0.106531691933762 
917	 0.105898997976899 
918	 0.106790135741583 
919	 0.104412124824134 
920	 0.104711651744233 
921	 0.107886955416864 
922	 0.103504303786202 
923	 0.100416519104274 
924	 0.106218729489528 
925	 0.107508083067574 
926	 0.104871503496503 
927	 0.104760610231244 
928	 0.104769769958068 
929	 0.104131814180632 
930	 0.102052195695603 
931	 0.101453997442976 
932	 0.104704099188369 
933	 0.10883673170361 
934	 0.11077752213703 
935	 0.107507516532077 
936	 0.11018130745814 
937	 0.116812458740239 
938	 0.116056619927586 
939	 0.110965252559472 
940	 0.104739294287465 
941	 0.106978678083036 
942	 0.109890716427152 
943	 0.10821348292712 
944	 0.110033668067165 
945	 0.113361157061021 
946	 0.113660205861746 
947	 0.11187699972597 
948	 0.109787948073653 
949	 0.112701762294979 
950	 0.112265097023772 
951	 0.106995341742737 
952	 0.110111706002697 
953	 0.113062281275785 
954	 0.108404299399131 
955	 0.111654958916468 
956	 0.117135451650028 
957	 0.110397683181828 
958	 0.106108009096935 
959	 0.10620538026845 
960	 0.102802074974975 
961	 0.104260928467432 
962	 0.112481409278543 
963	 0.115972622123737 
964	 0.115972000472096 
965	 0.114525747681665 
966	 0.109661658216102 
967	 0.104323257462096 
968	 0.104415217035778 
969	 0.101957656920693 
970	 9.74729229131289E-02 
971	 0.101339495285104 
972	 0.106568570242614 
973	 0.109136589481906 
974	 0.110351560357016 
975	 0.111181086698136 
976	 0.112454397779765 
977	 0.11125907006919 
978	 0.108019888128151 
979	 0.104344354569223 
980	 0.107019564996122 
981	 0.114723730449018 
982	 0.116026061040363 
983	 0.111361808186145 
984	 0.103551189634312 
985	 0.107265879468515 
986	 0.114814513555621 
987	 0.116298164330538 
988	 0.109867116796859 
989	 0.102203650973185 
990	 0.107466744499023 
991	 0.108532493596237 
992	 0.103806727115943 
993	 0.106194640222994 
994	 0.11018238032969 
995	 0.112230226591708 
996	 0.109108916235163 
997	 0.106688356297824 
998	 0.110482154299176 
999	 0.112588185322857 
1000	 0.111743669928764 
1001	 0.108300320304923 
1002	 0.105250611951381 
1003	 0.103407380403525 
1004	 0.101552093785839 
1005	 0.103543025081869 
1006	 0.109185679304774 
1007	 0.109534695118861 
1008	 0.109132789978165 
1009	 0.111155402152232 
1010	 0.108191059764663 
1011	 0.103987020741054 
1012	 0.104785850203625 
1013	 0.103629164330897 
1014	 0.103073314876709 
1015	 0.11372375974776 
1016	 0.113163332320082 
1017	 0.101605794167334 
1018	 0.112147761066628 
1019	 0.118892630265242 
1020	 0.110108659667142 
1021	 0.108357437999226 
1022	 0.112255677068082 
1023	 0.117253135965713 
1024	 0.112110102998774 
1025	 0.102373903285448 
1026	 0.100343917804257 
1027	 0.109008715389372 
1028	 0.12037062438275 
1029	 0.108247306446047 
1030	 9.62718815681861E-02 
1031	 9.43150554364306E-02 
1032	 0.105453549013098 
1033	 0.107636655624737 
1034	 9.30277162657718E-02 
1035	 0.110442485410815 
1036	 0.12840926049969 
1037	 0.113251651685355 
1038	 0.107182172432415 
1039	 0.110994719813601 
1040	 0.112191863483171 
1041	 0.124712866533472 
1042	 0.139186722098364 
1043	 0.121159094140989 
1044	 0.114602761860116 
1045	 0.128787070431152 
1046	 0.126533714597081 
1047	 0.117337261957771 
1048	 0.107793237846802 
1049	 0.103837407173326 
1050	 0.102419974319076 
1051	 0.10074060558813 
1052	 0.11354933361196 
1053	 0.129677418394135 
1054	 0.128849290233063 
1055	 0.122423537234043 
1056	 0.12242409654718 
1057	 0.151886793208297 
1058	 0.145754707071216 
1059	 0.100262734130011 
1060	 9.61806705129527E-02 
1061	 9.53803160812063E-02 
1062	 8.73811857210501E-02 
1063	 0.117785484017551 
1064	 0.133424699206576 
1065	 0.106215956756398 
1066	 0.129472358019784 
1067	 0.157178292857162 
1068	 0.134049743008876 
1069	 0.1005431024472 
1070	 8.39196964028786E-02 
1071	 0.114019370639567 
1072	 0.129205365581437 
1073	 0.11885121228822 
1074	 9.39684523369886E-02 
1075	 0.101106330874009 
