Wavelength	A00134.asd
325	 3.95923835881284E-02 
326	 4.37695800872955E-02 
327	 5.11152289853835E-02 
328	 5.01331801146888E-02 
329	 4.46375496941784E-02 
330	 3.76494929601358E-02 
331	 3.45718116982336E-02 
332	 3.63360267919244E-02 
333	 4.29149281935975E-02 
334	 4.58398779536526E-02 
335	 4.52640004132155E-02 
336	 4.49427112161666E-02 
337	 4.61087083601923E-02 
338	 4.84168452306603E-02 
339	 4.87352206441914E-02 
340	 4.53894452582725E-02 
341	 3.82901157998628E-02 
342	 4.02796531750139E-02 
343	 0.046783255682099 
344	 4.62960939114479E-02 
345	 0.042815062912467 
346	 3.88279250546942E-02 
347	 3.90105125344814E-02 
348	 4.25328449071124E-02 
349	 4.78646310151942E-02 
350	 4.95203030296538E-02 
351	 4.73720205124174E-02 
352	 4.21332842678729E-02 
353	 4.03225203146921E-02 
354	 4.26967424439648E-02 
355	 0.045061349376469 
356	 4.60811769492013E-02 
357	 0.045297279907818 
358	 4.60326029688311E-02 
359	 4.65977441045295E-02 
360	 4.38341152436998E-02 
361	 4.35294269543493E-02 
362	 4.59340748621724E-02 
363	 4.72955502747193E-02 
364	 4.63254770347843E-02 
365	 4.33069342480721E-02 
366	 0.044844803449896 
367	 4.75221965998829E-02 
368	 4.59521003608212E-02 
369	 4.50562363043239E-02 
370	 4.55689397610893E-02 
371	 4.59385577119823E-02 
372	 4.64459870788819E-02 
373	 4.71337928405244E-02 
374	 4.76395568023823E-02 
375	 4.75458979897092E-02 
376	 4.64013628865432E-02 
377	 4.61724478666187E-02 
378	 4.67061621760813E-02 
379	 4.56867073079016E-02 
380	 4.52929759500845E-02 
381	 4.65432486895793E-02 
382	 0.048495286051514 
383	 4.99898558001644E-02 
384	 4.96764760686308E-02 
385	 4.81563486234043E-02 
386	 4.63447949424906E-02 
387	 4.60298130902321E-02 
388	 4.66002413436468E-02 
389	 4.73832543862129E-02 
390	 4.62071656525794E-02 
391	 4.51822072484497E-02 
392	 4.68593436797998E-02 
393	 4.66533148909338E-02 
394	 0.045019873656688 
395	 4.63135661566357E-02 
396	 4.65936321857361E-02 
397	 4.47412003106312E-02 
398	 4.40074420310184E-02 
399	 4.38353614605407E-02 
400	 4.33866458018401E-02 
401	 4.44251534659031E-02 
402	 4.61734482290176E-02 
403	 4.61774530961728E-02 
404	 4.56312209976935E-02 
405	 4.52348037899624E-02 
406	 4.60003974081703E-02 
407	 4.71746574844187E-02 
408	 0.04771832659796 
409	 4.71235173131954E-02 
410	 4.59056720373564E-02 
411	 4.57141556730912E-02 
412	 4.61125003012097E-02 
413	 4.67521651437062E-02 
414	 4.69031110186501E-02 
415	 4.66114978941538E-02 
416	 4.60496510334095E-02 
417	 4.58928331550185E-02 
418	 4.62576714051547E-02 
419	 4.70040914965967E-02 
420	 4.73175913775094E-02 
421	 4.69183069604771E-02 
422	 4.72594689338432E-02 
423	 4.80208233480317E-02 
424	 4.85147645150397E-02 
425	 4.85618754141357E-02 
426	 4.83699087819829E-02 
427	 4.89187224295948E-02 
428	 4.94708774463157E-02 
429	 4.95396941243454E-02 
430	 4.94327154593703E-02 
431	 4.91970492060149E-02 
432	 4.88549116856996E-02 
433	 4.83349576214883E-02 
434	 4.79030063845554E-02 
435	 4.85069601610263E-02 
436	 4.89658235176181E-02 
437	 4.86219256500319E-02 
438	 4.91688028844288E-02 
439	 5.00453849456136E-02 
440	 4.98012730642172E-02 
441	 4.94857901747262E-02 
442	 4.94241947484535E-02 
443	 4.95718541344001E-02 
444	 4.96865857473182E-02 
445	 4.96306165812625E-02 
446	 5.02135810703697E-02 
447	 5.10566514949128E-02 
448	 5.10846226626568E-02 
449	 5.07992453693767E-02 
450	 5.05137634039797E-02 
451	 0.050845687788983 
452	 5.14624870515631E-02 
453	 5.19676750533157E-02 
454	 5.19547436037982E-02 
455	 5.15611473342768E-02 
456	 5.13810669488238E-02 
457	 0.051373060803568 
458	 5.15569968413781E-02 
459	 5.20032428774382E-02 
460	 5.23531189143079E-02 
461	 5.21989761170879E-02 
462	 5.20727640990925E-02 
463	 0.052025159866112 
464	 5.17536085025164E-02 
465	 5.16443569073606E-02 
466	 5.19167167331028E-02 
467	 5.25920229026686E-02 
468	 5.31004393549804E-02 
469	 5.26438028175164E-02 
470	 0.052433124379709 
471	 5.26358787374989E-02 
472	 5.25807033954528E-02 
473	 5.25805781576298E-02 
474	 5.27906514246067E-02 
475	 5.27657208072767E-02 
476	 5.27105120639009E-02 
477	 5.31253325671157E-02 
478	 5.29271485946368E-02 
479	 5.22198515360264E-02 
480	 5.27779290551317E-02 
481	 5.35216636425143E-02 
482	 5.35650630969798E-02 
483	 5.35506438819254E-02 
484	 5.36858305368948E-02 
485	 5.42897066167779E-02 
486	 5.44055919116457E-02 
487	 5.38616527187384E-02 
488	 5.38390490593634E-02 
489	 5.39851988797212E-02 
490	 5.38657361240935E-02 
491	 5.35525201083861E-02 
492	 5.33782893317604E-02 
493	 5.42775501880448E-02 
494	 5.48284103107206E-02 
495	 5.45071323832344E-02 
496	 5.43160442363933E-02 
497	 5.44083032146741E-02 
498	 5.48459482708871E-02 
499	 5.53083929514199E-02 
500	 5.56205218987325E-02 
501	 5.55074267661313E-02 
502	 5.56078320704264E-02 
503	 0.056233558310677 
504	 5.65492266342216E-02 
505	 5.66865408727653E-02 
506	 5.70556936395565E-02 
507	 5.73330052301967E-02 
508	 5.74755685731051E-02 
509	 5.76445360309942E-02 
510	 5.79084479164245E-02 
511	 5.83136725174804E-02 
512	 5.87815130978538E-02 
513	 5.92536213954241E-02 
514	 5.96622872027757E-02 
515	 5.99177011981825E-02 
516	 6.00541807265137E-02 
517	 6.04319575489279E-02 
518	 6.09574568898827E-02 
519	 6.14769254511327E-02 
520	 6.15610997463933E-02 
521	 0.061527541770848 
522	 6.24816671448551E-02 
523	 6.33581674458472E-02 
524	 6.37194049883678E-02 
525	 6.41845416126884E-02 
526	 6.46577884577033E-02 
527	 6.49134933045298E-02 
528	 6.51823655462205E-02 
529	 0.065523631510087 
530	 0.065910340563019 
531	 6.63384523029442E-02 
532	 6.68015630796845E-02 
533	 6.72920074838758E-02 
534	 0.067687691596258 
535	 6.77367488244345E-02 
536	 6.79807822031537E-02 
537	 6.85199784677024E-02 
538	 6.89085826383868E-02 
539	 6.92302501660493E-02 
540	 6.95746051255055E-02 
541	 6.97766761649287E-02 
542	 6.98280315920688E-02 
543	 6.97367299682694E-02 
544	 6.98672590881553E-02 
545	 0.070347534921073 
546	 7.08651688493152E-02 
547	 7.12641526396066E-02 
548	 7.13907189935473E-02 
549	 7.15953216448914E-02 
550	 0.071933525168342 
551	 7.22759260469185E-02 
552	 7.25105383148923E-02 
553	 7.25849366887603E-02 
554	 7.27282143976217E-02 
555	 7.29110093180811E-02 
556	 7.30059027691253E-02 
557	 7.31840420418346E-02 
558	 7.34451638739251E-02 
559	 7.35275571482313E-02 
560	 7.36006946988417E-02 
561	 7.38128220608547E-02 
562	 7.38287662428787E-02 
563	 7.37683379661871E-02 
564	 7.41677454905449E-02 
565	 7.42267547348888E-02 
566	 7.37301198839077E-02 
567	 7.35894864855562E-02 
568	 7.35462853565298E-02 
569	 7.31678407317995E-02 
570	 0.073121739521113 
571	 7.34012806853706E-02 
572	 7.34363890092205E-02 
573	 7.33144888273119E-02 
574	 7.31346207595771E-02 
575	 7.33121500048289E-02 
576	 7.36056856391945E-02 
577	 7.34764783453218E-02 
578	 0.073252439965448 
579	 7.30121544784829E-02 
580	 7.26047081086044E-02 
581	 7.23331003193971E-02 
582	 7.24460050608552E-02 
583	 7.25848174473289E-02 
584	 7.26569281427136E-02 
585	 7.26311332038576E-02 
586	 7.25738212602889E-02 
587	 7.24861081324548E-02 
588	 7.21610669006404E-02 
589	 7.19335857860557E-02 
590	 0.072250087874519 
591	 7.21456725528216E-02 
592	 7.16476271573212E-02 
593	 0.071566695212287 
594	 7.18505894260219E-02 
595	 7.23653029780199E-02 
596	 7.22024430466168E-02 
597	 7.18263355043125E-02 
598	 7.23188969069213E-02 
599	 7.22183180186448E-02 
600	 7.14063052106976E-02 
601	 7.13970500772518E-02 
602	 7.16620313022663E-02 
603	 7.16913513661291E-02 
604	 7.17984370970907E-02 
605	 0.07194687879262 
606	 7.19485222870322E-02 
607	 7.18759348802471E-02 
608	 7.17787632953076E-02 
609	 7.18320732073274E-02 
610	 7.17386007603795E-02 
611	 0.071120259664154 
612	 7.07660358353003E-02 
613	 7.07428251899315E-02 
614	 7.05146398558665E-02 
615	 7.04623958388989E-02 
616	 7.07240679132676E-02 
617	 0.070470670386699 
618	 7.00062722755526E-02 
619	 7.00448649527806E-02 
620	 7.01370623149836E-02 
621	 0.070124939207447 
622	 6.99447810117329E-02 
623	 6.96469265836169E-02 
624	 0.069305258390531 
625	 6.91805100852819E-02 
626	 6.92705388359579E-02 
627	 6.94213244415296E-02 
628	 6.96328087220293E-02 
629	 6.98460983657173E-02 
630	 6.98620554471564E-02 
631	 6.97062326910337E-02 
632	 6.94420633865453E-02 
633	 6.97945011667249E-02 
634	 7.04895279498138E-02 
635	 7.00700753485696E-02 
636	 6.94970751069814E-02 
637	 6.93430110781047E-02 
638	 6.92569484326861E-02 
639	 6.91959855174049E-02 
640	 6.91668323760407E-02 
641	 6.90149562755492E-02 
642	 6.86989090622541E-02 
643	 6.82651923669253E-02 
644	 6.79169768474998E-02 
645	 6.78099969267418E-02 
646	 6.75840681070853E-02 
647	 6.72584295993564E-02 
648	 6.70604077791631E-02 
649	 6.69385001640541E-02 
650	 0.066872265319617 
651	 6.68632797455405E-02 
652	 6.67166218863778E-02 
653	 6.62118346694515E-02 
654	 6.61409618071147E-02 
655	 6.63809458135103E-02 
656	 6.57491475176275E-02 
657	 6.52074942737025E-02 
658	 6.52236596976077E-02 
659	 6.45947069553805E-02 
660	 6.38423587504224E-02 
661	 6.40566178785362E-02 
662	 6.36722801252439E-02 
663	 0.062640621583498 
664	 6.27415376763959E-02 
665	 6.30965287804898E-02 
666	 6.29095153687433E-02 
667	 6.22596038267337E-02 
668	 6.15370107787035E-02 
669	 6.17607052136045E-02 
670	 6.14021060764952E-02 
671	 6.02995194796118E-02 
672	 6.09554096840121E-02 
673	 6.18498263291319E-02 
674	 6.10863985709964E-02 
675	 6.09313139604412E-02 
676	 6.15636373950421E-02 
677	 6.20086910310175E-02 
678	 6.19495372156088E-02 
679	 6.13849912131858E-02 
680	 6.18251190449664E-02 
681	 6.27034081658399E-02 
682	 6.28251823887155E-02 
683	 6.31422351224772E-02 
684	 6.38345510893003E-02 
685	 6.45384288462972E-02 
686	 6.54935298582474E-02 
687	 6.68338845827287E-02 
688	 6.75795641932866E-02 
689	 6.81382865140804E-02 
690	 6.99753681114206E-02 
691	 7.16750638840532E-02 
692	 7.29142865446853E-02 
693	 7.42621355532197E-02 
694	 7.58858993921893E-02 
695	 7.78415636251225E-02 
696	 7.99459718221905E-02 
697	 8.18996804053006E-02 
698	 8.30700475891509E-02 
699	 0.084324203831041 
700	 0.086040944799858 
701	 8.77404708957239E-02 
702	 0.089503913584426 
703	 9.15196096344853E-02 
704	 0.092992635529209 
705	 9.39621291161156E-02 
706	 9.52241969839957E-02 
707	 9.64546158519615E-02 
708	 9.74437510391449E-02 
709	 9.82152087310138E-02 
710	 0.09908846354631 
711	 0.100659694299952 
712	 0.102066221259344 
713	 0.10304467400359 
714	 0.103785057875027 
715	 0.104640428587698 
716	 0.105969410179154 
717	 0.107129371986576 
718	 0.107961011703329 
719	 0.108411075884663 
720	 0.108778949841049 
721	 0.109204519014793 
722	 0.109656746713669 
723	 0.11005548144964 
724	 0.1102815634059 
725	 0.111280317763893 
726	 0.112716028556928 
727	 0.113152398239998 
728	 0.113226137893611 
729	 0.113261217602116 
730	 0.113109647124341 
731	 0.113305999399383 
732	 0.114551421792139 
733	 0.114936467128858 
734	 0.114503135196227 
735	 0.114972984979604 
736	 0.115576638126126 
737	 0.115783541188555 
738	 0.115808347547317 
739	 0.115807959732551 
740	 0.116014064574103 
741	 0.116272141331862 
742	 0.116497884606498 
743	 0.11659014770956 
744	 0.116525252367361 
745	 0.116341624420391 
746	 0.116727195217874 
747	 0.117418946238386 
748	 0.117477159702958 
749	 0.117717266865869 
750	 0.118264715213006 
751	 0.11821543454822 
752	 0.117990643289665 
753	 0.118095156441339 
754	 0.118227303576905 
755	 0.118345178420091 
756	 0.118487592519043 
757	 0.118666316307634 
758	 0.118895505779932 
759	 0.11908300181239 
760	 0.119434452103609 
761	 0.120121858545052 
762	 0.12092401194406 
763	 0.121380474761951 
764	 0.12065162978942 
765	 0.120490028732525 
766	 0.121271264249529 
767	 0.121609849171296 
768	 0.12160844991451 
769	 0.121464897843095 
770	 0.121432053557114 
771	 0.121499668770022 
772	 0.121282303783006 
773	 0.121303228444115 
774	 0.121809043824178 
775	 0.121616077147101 
776	 0.121349830056359 
777	 0.12247597459547 
778	 0.123064144140666 
779	 0.122724821639441 
780	 0.122481257940931 
781	 0.122458775156746 
782	 0.122729307322485 
783	 0.12314605001704 
784	 0.123412640455244 
785	 0.122916781138771 
786	 0.122987276868388 
787	 0.123804280688276 
788	 0.123893734542017 
789	 0.123671834845978 
790	 0.123616515552023 
791	 0.123900439902584 
792	 0.124334482677897 
793	 0.124355943956801 
794	 0.124363301562954 
795	 0.124472012987233 
796	 0.124559341791766 
797	 0.124490526095749 
798	 0.12418430995414 
799	 0.124441217389618 
800	 0.125086819665137 
801	 0.12519663549881 
802	 0.125404550950686 
803	 0.125793268455254 
804	 0.125452358014743 
805	 0.125187140295922 
806	 0.125862804568869 
807	 0.125804119701555 
808	 0.125243340190184 
809	 0.12589087765656 
810	 0.126426207421765 
811	 0.126337112666329 
812	 0.126161246506523 
813	 0.126426901751353 
814	 0.127721541480195 
815	 0.128316762728038 
816	 0.128213827081402 
817	 0.12922716840496 
818	 0.129050516855336 
819	 0.127284601132219 
820	 0.127278116145354 
821	 0.128232704916018 
822	 0.128893485519153 
823	 0.128594484429823 
824	 0.12788984235797 
825	 0.128907975818761 
826	 0.129688197853961 
827	 0.12953887083392 
828	 0.129766133447691 
829	 0.129494576100457 
830	 0.127656362411438 
831	 0.127776589660478 
832	 0.129543546593854 
833	 0.129833500578807 
834	 0.129450186471625 
835	 0.128920311075877 
836	 0.129538451945134 
837	 0.130157704890431 
838	 0.12941553052112 
839	 0.128892993350444 
840	 0.129009946444215 
841	 0.129968204814088 
842	 0.130772641065389 
843	 0.130900440532015 
844	 0.130366353137019 
845	 0.129716713767189 
846	 0.129559425892262 
847	 0.129671403409916 
848	 0.129965492968693 
849	 0.130294991256238 
850	 0.13086237105596 
851	 0.131448928518263 
852	 0.130405039524189 
853	 0.129418073542131 
854	 0.130334945587559 
855	 0.130765000110754 
856	 0.130571765818323 
857	 0.130718896788972 
858	 0.130504109732511 
859	 0.129865175598625 
860	 0.129536568662731 
861	 0.129700290998173 
862	 0.130424160905922 
863	 0.130757601181458 
864	 0.130842245131858 
865	 0.131446511912148 
866	 0.132415742776862 
867	 0.133277367469438 
868	 0.132167870868895 
869	 0.131168166508118 
870	 0.131896842624233 
871	 0.132312825045514 
872	 0.132395140940122 
873	 0.13273475439716 
874	 0.133140016292322 
875	 0.1333261163215 
876	 0.132365854064197 
877	 0.131507920989748 
878	 0.131634311578469 
879	 0.131924777154476 
880	 0.132729381091898 
881	 0.134829513022226 
882	 0.134643126587181 
883	 0.132333087035657 
884	 0.13198185024449 
885	 0.132832343911876 
886	 0.13415111645047 
887	 0.133851458644627 
888	 0.133096360663496 
889	 0.133724949411733 
890	 0.134457542635958 
891	 0.134908342087269 
892	 0.134887211513353 
893	 0.13438211192854 
894	 0.133642032229862 
895	 0.133954563877388 
896	 0.135299554132692 
897	 0.13728511197769 
898	 0.136904532458851 
899	 0.135466513386463 
900	 0.138173384929146 
901	 0.138586228847482 
902	 0.135767487659284 
903	 0.135360642915972 
904	 0.136064820181445 
905	 0.136588602071633 
906	 0.135884583372929 
907	 0.134991538905424 
908	 0.136072362329597 
909	 0.137016097680777 
910	 0.137687584858456 
911	 0.14019865709102 
912	 0.141649014007437 
913	 0.140666876205553 
914	 0.140146976750297 
915	 0.140025394771577 
916	 0.139861288959898 
917	 0.141377729396327 
918	 0.143074354437933 
919	 0.13999205525255 
920	 0.137977959160055 
921	 0.138729084697916 
922	 0.138862145337722 
923	 0.139563287946934 
924	 0.141638585663371 
925	 0.140197938663141 
926	 0.136923128342246 
927	 0.137450049109366 
928	 0.138335387428691 
929	 0.138063609200797 
930	 0.134634980047948 
931	 0.13432426479482 
932	 0.141132044047836 
933	 0.139826846257735 
934	 0.137162235454644 
935	 0.145940571814543 
936	 0.151127025829612 
937	 0.149039024439368 
938	 0.139561325123809 
939	 0.135529235066455 
940	 0.139885760469942 
941	 0.145369413144001 
942	 0.145581014599838 
943	 0.13787337790733 
944	 0.13998081826142 
945	 0.14697722653267 
946	 0.147477864454758 
947	 0.1447271683928 
948	 0.142232485044741 
949	 0.149840190600989 
950	 0.1501476644516 
951	 0.139455562802348 
952	 0.141940119880779 
953	 0.146376053906924 
954	 0.141892378860779 
955	 0.1412562119269 
956	 0.143451772886761 
957	 0.14297572741053 
958	 0.144764091877536 
959	 0.147615349602238 
960	 0.143200324181295 
961	 0.141613377212234 
962	 0.146632024982614 
963	 0.1507137867637 
964	 0.150702509146392 
965	 0.144804525598593 
966	 0.141222352618262 
967	 0.140366346144795 
968	 0.139928794162641 
969	 0.137721659492327 
970	 0.134945385078644 
971	 0.138911677172065 
972	 0.142578264801583 
973	 0.142140056691701 
974	 0.139709598015476 
975	 0.139657525446712 
976	 0.145818468679673 
977	 0.14598398159961 
978	 0.141811392958325 
979	 0.142058151599419 
980	 0.143100638895619 
981	 0.143897706065294 
982	 0.144156769677193 
983	 0.144656151306022 
984	 0.145607304468851 
985	 0.144909082883035 
986	 0.146580451726171 
987	 0.153924962416368 
988	 0.150604694258547 
989	 0.141871148087596 
990	 0.144238028113498 
991	 0.144583439836784 
992	 0.141630749841498 
993	 0.144474332562785 
994	 0.14701661891524 
995	 0.145991952183923 
996	 0.141522516545163 
997	 0.139021520367576 
998	 0.143164950794748 
999	 0.144500815013497 
1000	 0.144104203035603 
1001	 0.146828825100573 
1002	 0.142869331547269 
1003	 0.13522384491837 
1004	 0.142327855549422 
1005	 0.147433747838021 
1006	 0.144991751510572 
1007	 0.144956662780678 
1008	 0.143538330642192 
1009	 0.138842383295712 
1010	 0.142135317106001 
1011	 0.147242848909681 
1012	 0.144035611332446 
1013	 0.14552622847273 
1014	 0.149648559092278 
1015	 0.14482095842962 
1016	 0.139508310535184 
1017	 0.138037045624086 
1018	 0.146405133263094 
1019	 0.149315654323937 
1020	 0.141313865929455 
1021	 0.145622386102313 
1022	 0.15301123318947 
1023	 0.152679950566194 
1024	 0.150688372241814 
1025	 0.144766501050258 
1026	 0.130025507500126 
1027	 0.130091988245575 
1028	 0.144488642598486 
1029	 0.153390936483386 
1030	 0.153346335357262 
1031	 0.145715749390392 
1032	 0.146237394089204 
1033	 0.148187436191121 
1034	 0.148461609698832 
1035	 0.158256470750334 
1036	 0.166772950497345 
1037	 0.162887596383587 
1038	 0.157072052136019 
1039	 0.152665255265438 
1040	 0.151712652734263 
1041	 0.149538816612236 
1042	 0.146940233483623 
1043	 0.149738334232451 
1044	 0.149554602093015 
1045	 0.145969527969251 
1046	 0.151801881083323 
1047	 0.154719876295793 
1048	 0.148416333392268 
1049	 0.145488722680344 
1050	 0.138921902393111 
1051	 0.123997874110872 
1052	 0.136263149938835 
1053	 0.158548643364391 
1054	 0.155703337159897 
1055	 0.145013531989811 
1056	 0.143922692809271 
1057	 0.185677140264855 
1058	 0.178939296533932 
1059	 0.117679013547848 
1060	 0.110135669327949 
1061	 0.118495358890604 
1062	 0.126635043628263 
1063	 0.143814976723003 
1064	 0.154203451001817 
1065	 0.149611437907819 
1066	 0.153029700753597 
1067	 0.164465848971555 
1068	 0.179208181115229 
1069	 0.159502425491911 
1070	 0.128610415020757 
1071	 0.138849278234845 
1072	 0.142992607512992 
1073	 0.138106923706475 
1074	 0.143893972243338 
1075	 0.158010556658205 
