Wavelength	A00158.asd
325	 0.034113826709895 
326	 4.34244996561014E-02 
327	 5.17514512033859E-02 
328	 0.051878315036967 
329	 5.33491615793634E-02 
330	 5.75384763084563E-02 
331	 5.12396434819612E-02 
332	 4.66834058336311E-02 
333	 5.55882526735976E-02 
334	 5.88205396129517E-02 
335	 5.57315960992368E-02 
336	 5.16193913411766E-02 
337	 5.22065694932655E-02 
338	 5.73854250672504E-02 
339	 5.74406498029419E-02 
340	 0.054953845679942 
341	 5.26393346412297E-02 
342	 5.17548506334761E-02 
343	 5.22826663744447E-02 
344	 5.38737847762353E-02 
345	 5.37821242361269E-02 
346	 5.21302660989292E-02 
347	 5.27373763662172E-02 
348	 5.31494879333293E-02 
349	 5.19698827416586E-02 
350	 0.052366669309035 
351	 5.33733682466927E-02 
352	 5.28936599032354E-02 
353	 5.23301136993591E-02 
354	 5.24691306185633E-02 
355	 5.51895269331943E-02 
356	 0.055672024584904 
357	 5.19380376490151E-02 
358	 5.25744994082872E-02 
359	 5.51668983235153E-02 
360	 5.46284109150577E-02 
361	 5.28780047939353E-02 
362	 5.14151852210078E-02 
363	 0.05374956038163 
364	 5.49530034492269E-02 
365	 0.053057055092088 
366	 5.37256262146239E-02 
367	 5.50779454084865E-02 
368	 0.053872625114189 
369	 5.34878376678688E-02 
370	 5.41836301436774E-02 
371	 5.40472948794175E-02 
372	 0.054148518521008 
373	 5.50702183253448E-02 
374	 5.67088792332671E-02 
375	 5.81144727469655E-02 
376	 0.05810062508493 
377	 5.71423041963432E-02 
378	 5.52897067867626E-02 
379	 0.051620997638328 
380	 5.13339284830011E-02 
381	 5.58424833412719E-02 
382	 5.59220449000988E-02 
383	 5.37640845896409E-02 
384	 5.34794722651029E-02 
385	 5.61186550320801E-02 
386	 5.97793660135034E-02 
387	 5.81438177388491E-02 
388	 5.63882230022783E-02 
389	 5.67030814846584E-02 
390	 0.056902888721108 
391	 5.74684061923121E-02 
392	 0.059090566014001 
393	 5.78384938865105E-02 
394	 5.46850189755692E-02 
395	 5.45805175952345E-02 
396	 5.56278169948556E-02 
397	 5.66990798010635E-02 
398	 5.67255827455624E-02 
399	 5.59953239514753E-02 
400	 5.49531506636677E-02 
401	 5.55160941412148E-02 
402	 5.70697970064185E-02 
403	 5.73619417010796E-02 
404	 5.71715706894805E-02 
405	 5.69814660922837E-02 
406	 5.77884027036134E-02 
407	 5.86610857719193E-02 
408	 5.83730619401006E-02 
409	 5.79807510497398E-02 
410	 5.77077752863009E-02 
411	 5.73380251436463E-02 
412	 5.75293754718951E-02 
413	 5.83761634016774E-02 
414	 0.058463197920613 
415	 5.81232428959329E-02 
416	 5.79618438486213E-02 
417	 5.82988957070809E-02 
418	 0.059032572714196 
419	 5.96757548072788E-02 
420	 5.97589403719728E-02 
421	 5.91716081111399E-02 
422	 5.90387701914233E-02 
423	 5.94169582374744E-02 
424	 6.01886199427617E-02 
425	 6.04886297920968E-02 
426	 6.02866170097201E-02 
427	 6.03771242085059E-02 
428	 6.06940123672895E-02 
429	 6.11533463134129E-02 
430	 6.14959096426295E-02 
431	 6.15796242744856E-02 
432	 6.12595765095838E-02 
433	 0.060836486439911 
434	 6.05595343228867E-02 
435	 6.08444788381078E-02 
436	 6.13002218810887E-02 
437	 6.16748765845489E-02 
438	 0.062272920954177 
439	 6.28294788148883E-02 
440	 6.28200950769479E-02 
441	 6.26097387837493E-02 
442	 0.062457890625251 
443	 6.29022632346499E-02 
444	 6.32937169949032E-02 
445	 6.31764568831393E-02 
446	 6.37891493269292E-02 
447	 6.47126803502322E-02 
448	 6.45729055468011E-02 
449	 6.44457282609571E-02 
450	 6.46633397371307E-02 
451	 6.49696585521999E-02 
452	 6.52374660371047E-02 
453	 6.53626955747248E-02 
454	 6.56075919945415E-02 
455	 6.58475483525782E-02 
456	 6.55784301378446E-02 
457	 6.53734503304179E-02 
458	 0.065504122070533 
459	 0.06599798575506 
460	 6.64503990955023E-02 
461	 6.63943080389772E-02 
462	 6.61697026930838E-02 
463	 6.59802145580034E-02 
464	 6.61655323636097E-02 
465	 6.63627164232885E-02 
466	 6.64305394564825E-02 
467	 6.68592755078233E-02 
468	 6.72342480552874E-02 
469	 6.68935142561471E-02 
470	 6.67538047992743E-02 
471	 0.067002871371201 
472	 6.73891877295923E-02 
473	 6.76366747784402E-02 
474	 6.75798454264606E-02 
475	 6.74307089947823E-02 
476	 6.74030422966528E-02 
477	 6.78352710672064E-02 
478	 6.77653165464224E-02 
479	 6.72754116521419E-02 
480	 6.79656542823635E-02 
481	 6.87200516727413E-02 
482	 6.86245771177984E-02 
483	 6.82848831533567E-02 
484	 6.80731447790311E-02 
485	 0.068681966375758 
486	 6.88655624511584E-02 
487	 0.068430797905153 
488	 6.90596013630942E-02 
489	 6.96609554101328E-02 
490	 6.90979753834161E-02 
491	 6.86104002037028E-02 
492	 6.86437789294661E-02 
493	 6.97944119157108E-02 
494	 7.04294114822058E-02 
495	 7.00124381320775E-02 
496	 7.02485909788098E-02 
497	 7.06997676925055E-02 
498	 7.05940404431547E-02 
499	 7.10015277423734E-02 
500	 7.17542419939409E-02 
501	 7.13819758165357E-02 
502	 7.10394232103836E-02 
503	 7.13792270243398E-02 
504	 7.15704170525948E-02 
505	 7.17701530280816E-02 
506	 7.24422823715505E-02 
507	 7.27013544111374E-02 
508	 7.24642713472934E-02 
509	 7.24658313541084E-02 
510	 7.26408095156308E-02 
511	 7.29159404428876E-02 
512	 0.073262360328097 
513	 7.35540066688035E-02 
514	 0.073505997326635 
515	 7.35880364679072E-02 
516	 7.39034570054083E-02 
517	 7.39389138203951E-02 
518	 7.40474446648154E-02 
519	 7.46091967994013E-02 
520	 7.47966394238938E-02 
521	 0.074725826283254 
522	 7.52020570239193E-02 
523	 7.55541766222222E-02 
524	 7.55901506777543E-02 
525	 7.62059360788552E-02 
526	 7.68896344199195E-02 
527	 7.67971325773645E-02 
528	 7.67570027682408E-02 
529	 7.69143380217878E-02 
530	 7.69490637144772E-02 
531	 7.70655108998393E-02 
532	 0.077383816417886 
533	 7.77208201136876E-02 
534	 7.79110304518295E-02 
535	 7.76467636897658E-02 
536	 7.77985789423355E-02 
537	 7.84767194268472E-02 
538	 7.87539652474362E-02 
539	 7.88703578640491E-02 
540	 7.91012910795504E-02 
541	 7.94199474717509E-02 
542	 7.97010731541418E-02 
543	 0.079603914334828 
544	 7.95602592011208E-02 
545	 7.97575729601571E-02 
546	 8.00841604426979E-02 
547	 8.03918959670774E-02 
548	 8.05060255564696E-02 
549	 8.06230858269672E-02 
550	 0.080809874669096 
551	 8.11315640371222E-02 
552	 8.13553799207999E-02 
553	 8.13447018080716E-02 
554	 8.12883205882175E-02 
555	 8.12973559622076E-02 
556	 8.15127736675817E-02 
557	 8.18050709806902E-02 
558	 8.20879484772679E-02 
559	 8.22107361812579E-02 
560	 8.22967050454279E-02 
561	 8.24654216872024E-02 
562	 8.26264680464043E-02 
563	 8.28379812030774E-02 
564	 8.33614129062219E-02 
565	 8.35407370152202E-02 
566	 8.31969616541543E-02 
567	 8.31135310807965E-02 
568	 8.31595387528612E-02 
569	 8.30737037561965E-02 
570	 8.32947322205976E-02 
571	 0.083780816902767 
572	 8.41179517861173E-02 
573	 8.40376714914812E-02 
574	 8.35101768029767E-02 
575	 8.37728216279156E-02 
576	 8.44207174892561E-02 
577	 8.43922907279331E-02 
578	 0.084339835803071 
579	 0.084383962194414 
580	 8.41896362212522E-02 
581	 0.083955103055367 
582	 8.38963754502398E-02 
583	 8.44153853025414E-02 
584	 8.51598396858032E-02 
585	 8.50636432648778E-02 
586	 8.49346557743457E-02 
587	 8.50239286642653E-02 
588	 8.47755651881943E-02 
589	 8.45126458018989E-02 
590	 8.47086583870557E-02 
591	 0.084812245622935 
592	 8.47221429877254E-02 
593	 8.45565552492065E-02 
594	 8.45116859589398E-02 
595	 8.46947683361019E-02 
596	 8.49267266242954E-02 
597	 8.50921771653455E-02 
598	 8.50566749663973E-02 
599	 0.084834958438434 
600	 8.45260063385945E-02 
601	 8.44354606045218E-02 
602	 8.46854098938298E-02 
603	 8.52993476020611E-02 
604	 8.53944787809887E-02 
605	 8.50638872777157E-02 
606	 8.49549035424962E-02 
607	 8.49239602433737E-02 
608	 8.49752435445542E-02 
609	 8.53487109728055E-02 
610	 8.55582956659717E-02 
611	 8.49954877467696E-02 
612	 8.48635516046651E-02 
613	 8.51936051251253E-02 
614	 8.49911871126038E-02 
615	 8.48951426990027E-02 
616	 8.52101569359163E-02 
617	 0.085112368552053 
618	 8.47579418237957E-02 
619	 8.45832262002037E-02 
620	 8.47160508097503E-02 
621	 8.50714697903199E-02 
622	 8.50916474702993E-02 
623	 8.48652176935099E-02 
624	 8.45268052621881E-02 
625	 8.45247901766363E-02 
626	 8.47705541498214E-02 
627	 8.47856051889597E-02 
628	 0.084828382477523 
629	 8.49745261467812E-02 
630	 8.51279342582506E-02 
631	 8.51684645444729E-02 
632	 0.084967256890625 
633	 8.50786835452622E-02 
634	 8.54321372329079E-02 
635	 8.53376136031332E-02 
636	 8.51956591133013E-02 
637	 0.085236744740257 
638	 8.52682281033331E-02 
639	 8.53198257806977E-02 
640	 8.54893017664154E-02 
641	 0.085619366610395 
642	 8.56342682977486E-02 
643	 8.54575212116756E-02 
644	 0.085304019660636 
645	 8.53704219499153E-02 
646	 0.085654975909827 
647	 0.085991149202109 
648	 8.59921894856379E-02 
649	 8.57793675196413E-02 
650	 0.085491590771841 
651	 8.56079853209542E-02 
652	 8.58262071192662E-02 
653	 8.57425351913207E-02 
654	 8.56807839118485E-02 
655	 0.085690392416133 
656	 8.57533518041287E-02 
657	 8.54708163248187E-02 
658	 8.47323308848781E-02 
659	 8.43096648956989E-02 
660	 8.41760605102614E-02 
661	 8.41675502539207E-02 
662	 8.39916877960893E-02 
663	 8.36307819325777E-02 
664	 8.34769244498657E-02 
665	 8.33558489008393E-02 
666	 8.31003274660798E-02 
667	 8.25735191893902E-02 
668	 8.20599322769403E-02 
669	 8.23428140704889E-02 
670	 8.24030086221732E-02 
671	 8.20291843960972E-02 
672	 8.23728234142369E-02 
673	 8.27667299445729E-02 
674	 8.23769473108125E-02 
675	 8.20818884998964E-02 
676	 8.20690075811348E-02 
677	 0.082249632719459 
678	 8.24604292477969E-02 
679	 8.26239592832568E-02 
680	 0.082966374434036 
681	 8.32926766819939E-02 
682	 8.32495159559853E-02 
683	 8.34921295356368E-02 
684	 8.40440557468715E-02 
685	 8.41662936141693E-02 
686	 8.44935940198181E-02 
687	 8.54888760432014E-02 
688	 8.54964548737766E-02 
689	 8.49991075928763E-02 
690	 8.57116259753077E-02 
691	 8.65657475448204E-02 
692	 8.71701888243103E-02 
693	 8.72055627005642E-02 
694	 8.73800377122068E-02 
695	 8.83867080492608E-02 
696	 8.90127332220325E-02 
697	 0.089244139851651 
698	 8.97950464505412E-02 
699	 9.01587279768787E-02 
700	 9.00899584307612E-02 
701	 8.96330011708598E-02 
702	 8.94445051844243E-02 
703	 9.03789687474671E-02 
704	 9.09130284941826E-02 
705	 9.08213838848373E-02 
706	 9.07379201803582E-02 
707	 9.08195078833676E-02 
708	 9.11254292711613E-02 
709	 9.10995884683414E-02 
710	 9.10123706383788E-02 
711	 9.15078307607357E-02 
712	 9.20541369133816E-02 
713	 9.24178996450904E-02 
714	 9.24066725126537E-02 
715	 9.22859021018344E-02 
716	 9.23238584661836E-02 
717	 9.26587569845296E-02 
718	 9.31438312745256E-02 
719	 9.31344766503583E-02 
720	 9.30691773894716E-02 
721	 9.30724351099596E-02 
722	 9.28164372035439E-02 
723	 9.25628404455322E-02 
724	 9.26403783387009E-02 
725	 9.28621980759843E-02 
726	 9.32061095782706E-02 
727	 9.38773035887488E-02 
728	 9.41266485401915E-02 
729	 9.36741479637219E-02 
730	 9.34712581351398E-02 
731	 9.35745056236434E-02 
732	 9.38894474996185E-02 
733	 9.38287434911882E-02 
734	 0.093482628212493 
735	 9.36297083155946E-02 
736	 9.40019788308671E-02 
737	 9.43715373365974E-02 
738	 9.44854257625265E-02 
739	 9.43856805148945E-02 
740	 9.41924094678566E-02 
741	 0.094410661299805 
742	 9.50082346956691E-02 
743	 9.51093664831527E-02 
744	 9.50665366971046E-02 
745	 9.51762960695059E-02 
746	 9.49149501061627E-02 
747	 9.45800146825081E-02 
748	 0.095087396610723 
749	 9.55501211011144E-02 
750	 9.56298582888713E-02 
751	 9.54420082289142E-02 
752	 9.51925064188068E-02 
753	 9.51059728250619E-02 
754	 9.54183132726529E-02 
755	 0.095952100543121 
756	 9.61345402143142E-02 
757	 9.59803182292744E-02 
758	 9.55448745376239E-02 
759	 0.09550469183734 
760	 9.60769939822816E-02 
761	 9.69994123670472E-02 
762	 0.096757258100764 
763	 9.59110237829957E-02 
764	 9.64597554646837E-02 
765	 9.69400550725905E-02 
766	 9.69197138155012E-02 
767	 9.72192828805195E-02 
768	 9.74856513188881E-02 
769	 9.72201009379758E-02 
770	 9.70501669533503E-02 
771	 9.70393595364902E-02 
772	 9.67373098253008E-02 
773	 9.68066697247682E-02 
774	 9.75501358838357E-02 
775	 9.74822405145597E-02 
776	 9.70670992236944E-02 
777	 9.75409233386237E-02 
778	 9.78670378182518E-02 
779	 9.78137885987775E-02 
780	 9.77854127777943E-02 
781	 9.77136693825663E-02 
782	 9.75862572064921E-02 
783	 9.78870550545678E-02 
784	 9.84390264066192E-02 
785	 9.87493610375252E-02 
786	 9.86723755773384E-02 
787	 9.82831838078968E-02 
788	 9.82148923289167E-02 
789	 9.84674023981043E-02 
790	 9.89691934841038E-02 
791	 9.92815069089025E-02 
792	 9.93178126507948E-02 
793	 9.90963727037168E-02 
794	 9.89663386717179E-02 
795	 9.90196416590607E-02 
796	 0.09889869829094 
797	 9.88213710602605E-02 
798	 9.89971178828149E-02 
799	 9.88631712376723E-02 
800	 9.86029099237392E-02 
801	 0.098993320689251 
802	 9.95190755174541E-02 
803	 0.099903084301471 
804	 9.98555856703704E-02 
805	 0.099763298520802 
806	 0.100040375135821 
807	 9.98921018939339E-02 
808	 9.95193700328541E-02 
809	 0.10001277797037 
810	 0.100200076762671 
811	 9.97724457847967E-02 
812	 0.10027939398608 
813	 0.100960640787859 
814	 0.100674823074968 
815	 0.100813649953589 
816	 0.101526089045567 
817	 0.102380796771878 
818	 0.101645907833441 
819	 9.94022011113682E-02 
820	 0.100372431233043 
821	 0.102347323668449 
822	 0.102323659944217 
823	 0.101407291769945 
824	 0.100422174490653 
825	 0.10092121935332 
826	 0.101501274969578 
827	 0.101633877543815 
828	 0.102111445592046 
829	 0.102078189498575 
830	 0.100534550658277 
831	 0.100553994415389 
832	 0.101921334057823 
833	 0.102081499270272 
834	 0.101476445389537 
835	 0.100578327899339 
836	 0.101160413480706 
837	 0.10209256981781 
838	 0.101956147388367 
839	 0.101622493756957 
840	 0.101367015294726 
841	 0.10142310014064 
842	 0.101637293097788 
843	 0.101830501256166 
844	 0.101416257585434 
845	 0.10095287386651 
846	 0.101099549566094 
847	 0.101222433117541 
848	 0.101309811156639 
849	 0.10181244250328 
850	 0.101799759673295 
851	 0.10108497476076 
852	 0.101075023543512 
853	 0.101144664580977 
854	 0.100590439135493 
855	 0.101158499177195 
856	 0.102357526589582 
857	 0.102180457300614 
858	 0.101843798469108 
859	 0.101710338492326 
860	 0.101374284575719 
861	 0.101496682519615 
862	 0.102575783673536 
863	 0.102332510201646 
864	 0.101566004023838 
865	 0.103326604254289 
866	 0.103965625190886 
867	 0.102642083496065 
868	 0.101649968452445 
869	 0.101533864166462 
870	 0.102517515545317 
871	 0.103127038815949 
872	 0.103332485671251 
873	 0.103649900002361 
874	 0.103345859279537 
875	 0.102400985247196 
876	 0.101467614554316 
877	 0.101381279831063 
878	 0.102461674832195 
879	 0.102175962907155 
880	 0.101578929338999 
881	 0.102968858177221 
882	 0.103471709994913 
883	 0.102613033187081 
884	 0.101451975112094 
885	 0.10128725320339 
886	 0.102603923084163 
887	 0.102985245386426 
888	 0.103032637694725 
889	 0.10387974183937 
890	 0.103440964826151 
891	 0.102017809181739 
892	 0.102079034474609 
893	 0.102219468905558 
894	 0.101944112301808 
895	 0.102192448226635 
896	 0.103053724475258 
897	 0.104402352851969 
898	 0.104228972423915 
899	 0.103364165847896 
900	 0.105339106688613 
901	 0.104297303927214 
902	 0.100149488921039 
903	 0.101282740466077 
904	 0.10331046966033 
905	 0.102768874968839 
906	 0.102304109295648 
907	 0.102876551766949 
908	 0.105590408641584 
909	 0.106707277414806 
910	 0.105764003003716 
911	 0.105831619949594 
912	 0.105937677476589 
913	 0.105678682443594 
914	 0.10591545122942 
915	 0.106798526474548 
916	 0.108298007862004 
917	 0.107951577667771 
918	 0.105779280764676 
919	 0.10261090082545 
920	 0.103265343574831 
921	 0.107626219799494 
922	 0.105220255608444 
923	 0.10266582242382 
924	 0.105901158264074 
925	 0.106630133959758 
926	 0.105396133278486 
927	 0.106551664256897 
928	 0.106313251972612 
929	 0.103974580810094 
930	 0.103041985595975 
931	 0.102198948199444 
932	 0.100488952352498 
933	 0.09915359670369 
934	 9.76808499705981E-02 
935	 9.53155417030985E-02 
936	 9.95891061158829E-02 
937	 0.106851998953165 
938	 0.103668671609116 
939	 0.101164316442389 
940	 0.103429418050832 
941	 0.113010062569606 
942	 0.115784529218416 
943	 0.103784816031967 
944	 0.100901417544737 
945	 0.104973318290986 
946	 0.107031532865936 
947	 0.108748690719553 
948	 0.110179090711095 
949	 0.111882920105393 
950	 0.110551733000573 
951	 0.106673502446784 
952	 0.11128961047596 
953	 0.114030476759515 
954	 0.106256125775149 
955	 0.106086010721982 
956	 0.110918047699364 
957	 0.110962077615631 
958	 0.107434701112922 
959	 0.102488514899101 
960	 0.10212548070343 
961	 0.102649307025827 
962	 0.102791032051309 
963	 0.106425155235582 
964	 0.11017875568436 
965	 0.11059259176432 
966	 0.106647341169522 
967	 0.102242158898819 
968	 0.105122334617851 
969	 0.105279777197936 
970	 0.101847730328129 
971	 0.102840980204695 
972	 0.103508745774498 
973	 0.101905506961754 
974	 0.102939613271933 
975	 0.106378460914691 
976	 0.111004357709733 
977	 0.111401041790988 
978	 0.108510641176977 
979	 0.106785877391258 
980	 0.10553982761618 
981	 0.105022958001525 
982	 0.106171604528163 
983	 0.107289610307813 
984	 0.107569875023072 
985	 0.108361954115567 
986	 0.110197358726642 
987	 0.113017633252963 
988	 0.109329712720918 
989	 0.103728265164415 
990	 0.108217632782688 
991	 0.108297147527644 
992	 0.102373267855187 
993	 9.95949017088226E-02 
994	 0.102959806722748 
995	 0.111427739230011 
996	 0.109932393588772 
997	 0.105696216115074 
998	 0.106835871228517 
999	 0.107954790468223 
1000	 0.108569006232202 
1001	 0.109356328211318 
1002	 0.105502576814732 
1003	 9.87126537574293E-02 
1004	 9.80582453617868E-02 
1005	 0.102168069486153 
1006	 0.108276128864165 
1007	 0.10547100714684 
1008	 0.103234944293751 
1009	 0.108143611356015 
1010	 0.106442102197841 
1011	 0.102586737600884 
1012	 0.104773112273793 
1013	 0.100919174199746 
1014	 9.60447836128125E-02 
1015	 0.108926090349785 
1016	 0.111210684920197 
1017	 9.98901324621829E-02 
1018	 0.102727879360716 
1019	 0.107573078103544 
1020	 0.107351339160927 
1021	 0.10242006937454 
1022	 0.100000763873859 
1023	 0.105989230984492 
1024	 0.108183954731793 
1025	 0.105128509225217 
1026	 9.80322599986672E-02 
1027	 0.101616663010354 
1028	 0.111541400824568 
1029	 0.101230395553889 
1030	 0.101717580021691 
1031	 0.116080051972578 
1032	 0.105780543521552 
1033	 0.098744030890547 
1034	 0.110284671208114 
1035	 0.111795376732512 
1036	 0.108906585010883 
1037	 0.10990837058706 
1038	 0.111206130250581 
1039	 0.112028390812794 
1040	 0.111938371379108 
1041	 0.114670281223793 
1042	 0.117281901029464 
1043	 0.10815029332298 
1044	 0.105726192494739 
1045	 0.113511930590827 
1046	 0.115999937313296 
1047	 0.101252530072025 
1048	 7.15016394565281E-02 
1049	 9.36691984015491E-02 
1050	 0.124268472907227 
1051	 0.120684293024374 
1052	 0.111815816298869 
1053	 0.106399216142929 
1054	 0.111155999241075 
1055	 0.116981866821496 
1056	 0.123495396173704 
1057	 0.137211423501252 
1058	 0.127881912493225 
1059	 9.75853525271705E-02 
1060	 0.102498276769771 
1061	 9.82275034793313E-02 
1062	 7.66442329343746E-02 
1063	 0.114792508472949 
1064	 0.133987587485669 
1065	 9.05096715468462E-02 
1066	 0.111380028576656 
1067	 0.144089371808762 
1068	 0.125814156533277 
1069	 0.140045387889055 
1070	 0.164069894275783 
1071	 0.13488024951005 
1072	 0.10954008496694 
1073	 9.55390542764519E-02 
1074	 7.52291431226997E-02 
1075	 6.98254744951589E-02 
