Wavelength	A00119.asd
325	 0.03354531599505 
326	 3.90231787507543E-02 
327	 4.83364200585775E-02 
328	 4.30763230277739E-02 
329	 4.23740035642721E-02 
330	 4.97046619956978E-02 
331	 4.38049861217049E-02 
332	 3.84898348738872E-02 
333	 4.75331476189344E-02 
334	 4.99194091516217E-02 
335	 4.70125143304915E-02 
336	 5.08992453644295E-02 
337	 5.05031610289776E-02 
338	 4.52153886804674E-02 
339	 4.82710985971111E-02 
340	 5.01143162246896E-02 
341	 4.36183510167263E-02 
342	 4.33719327507565E-02 
343	 4.77682392059027E-02 
344	 5.02897830367139E-02 
345	 4.83629826429349E-02 
346	 4.36584310342537E-02 
347	 4.55626560167199E-02 
348	 4.90906036625351E-02 
349	 5.05871357375448E-02 
350	 5.05470773621166E-02 
351	 4.95175668074173E-02 
352	 4.82318647358538E-02 
353	 4.69212226143448E-02 
354	 0.046411658935908 
355	 0.04935448313447 
356	 0.050816137484731 
357	 4.84798774587174E-02 
358	 4.91498603801012E-02 
359	 5.10662621247872E-02 
360	 5.04282017259156E-02 
361	 4.91514214871307E-02 
362	 4.83714866041203E-02 
363	 5.04361689124385E-02 
364	 5.10285036132341E-02 
365	 4.85309005980181E-02 
366	 4.84894017325402E-02 
367	 4.92558435679881E-02 
368	 4.78778778600012E-02 
369	 4.78191601006059E-02 
370	 0.049157474345954 
371	 4.96134824936056E-02 
372	 4.91200676902235E-02 
373	 4.79291813965809E-02 
374	 4.81943145043323E-02 
375	 4.93174508536403E-02 
376	 5.01377761139164E-02 
377	 5.05796210813997E-02 
378	 5.02854812398042E-02 
379	 4.80753617680821E-02 
380	 4.73606510698939E-02 
381	 0.049409939858819 
382	 5.00927520841781E-02 
383	 4.99578802769388E-02 
384	 5.02751821714341E-02 
385	 5.08544374735795E-02 
386	 5.12888516526656E-02 
387	 5.05282787665611E-02 
388	 4.95943746113062E-02 
389	 4.90799801923262E-02 
390	 4.92846402263773E-02 
391	 4.99678927233404E-02 
392	 5.07987792575877E-02 
393	 5.06599143305504E-02 
394	 4.99534522203592E-02 
395	 5.05911242373174E-02 
396	 5.09287641081418E-02 
397	 0.050481073723142 
398	 5.08228839692599E-02 
399	 5.04427714226703E-02 
400	 4.78727805021032E-02 
401	 4.79751579133393E-02 
402	 5.01394001594365E-02 
403	 5.08136938995617E-02 
404	 5.11235320633409E-02 
405	 5.14164079524903E-02 
406	 5.10921375191756E-02 
407	 5.07268180344689E-02 
408	 5.10507823249709E-02 
409	 5.11936328190247E-02 
410	 5.09448039910871E-02 
411	 5.01181742879442E-02 
412	 0.050114221212389 
413	 5.13052701921909E-02 
414	 5.15452969328814E-02 
415	 5.12004052816299E-02 
416	 0.051021434142357 
417	 5.12080779894628E-02 
418	 5.16296467146413E-02 
419	 0.051665502160299 
420	 5.16270879582263E-02 
421	 0.051708304904722 
422	 0.052004655548501 
423	 5.23679044446575E-02 
424	 0.052578071754399 
425	 5.26005637908999E-02 
426	 5.26521725911802E-02 
427	 5.35957107683637E-02 
428	 5.42720531705529E-02 
429	 5.39597128610824E-02 
430	 0.053422703070156 
431	 5.30147612904874E-02 
432	 5.31381923255241E-02 
433	 5.28527230684724E-02 
434	 5.22717521066377E-02 
435	 5.27311363753923E-02 
436	 5.32073451738727E-02 
437	 5.31015432315359E-02 
438	 5.36542164805712E-02 
439	 5.43726496732857E-02 
440	 5.40104584642656E-02 
441	 0.054057543300185 
442	 5.47108206693171E-02 
443	 5.48126132306866E-02 
444	 5.47131738253099E-02 
445	 5.47383595360286E-02 
446	 5.49077087526423E-02 
447	 5.51259887347604E-02 
448	 5.51455697979732E-02 
449	 0.05526183045899 
450	 0.055541306971893 
451	 5.57486315735384E-02 
452	 5.60955567187288E-02 
453	 5.67535881725592E-02 
454	 0.056734799567007 
455	 5.62343345333327E-02 
456	 5.63167908215618E-02 
457	 5.65008604287125E-02 
458	 5.66788895820672E-02 
459	 5.73565701912312E-02 
460	 5.78511300387458E-02 
461	 5.73493531374656E-02 
462	 5.69189252209878E-02 
463	 0.056753701073189 
464	 5.65450581819114E-02 
465	 0.056608396994345 
466	 5.70432828262742E-02 
467	 5.73739597995707E-02 
468	 5.75060238341794E-02 
469	 0.057397383367017 
470	 5.74959416039841E-02 
471	 0.057827641589147 
472	 5.80462331485063E-02 
473	 5.80467735158942E-02 
474	 5.78284217346778E-02 
475	 5.79753234431525E-02 
476	 5.82900238851295E-02 
477	 5.83089426927662E-02 
478	 5.79780953399255E-02 
479	 5.75139372008996E-02 
480	 5.78392911235217E-02 
481	 5.83458200344635E-02 
482	 5.85135520691935E-02 
483	 0.058476742905482 
484	 5.83869821606773E-02 
485	 5.85798687066688E-02 
486	 5.86464309294892E-02 
487	 5.85582741341523E-02 
488	 5.90588858140602E-02 
489	 5.93024777956137E-02 
490	 5.84802312843589E-02 
491	 5.80549836805137E-02 
492	 5.84039617769916E-02 
493	 5.98586255990337E-02 
494	 6.05903021611382E-02 
495	 5.99380818048694E-02 
496	 5.94674136167176E-02 
497	 5.94561359837712E-02 
498	 6.00415096113371E-02 
499	 6.05607318907094E-02 
500	 6.07599970299139E-02 
501	 6.04380466294164E-02 
502	 6.03750551203928E-02 
503	 0.060960966021259 
504	 6.11839879408797E-02 
505	 6.12580823143772E-02 
506	 6.17708268533237E-02 
507	 6.21315208399626E-02 
508	 6.22579719104566E-02 
509	 6.25039314346423E-02 
510	 6.28310793624498E-02 
511	 6.31933078614196E-02 
512	 6.34986198969419E-02 
513	 6.37731153969431E-02 
514	 0.064144025685148 
515	 6.43668358479514E-02 
516	 6.44177079936342E-02 
517	 6.46593282571009E-02 
518	 6.50545553661513E-02 
519	 6.55154353626205E-02 
520	 6.57625251257672E-02 
521	 6.59776466816104E-02 
522	 6.69000920935076E-02 
523	 6.74344294263463E-02 
524	 6.72600044428051E-02 
525	 0.067879967803959 
526	 6.87524048187856E-02 
527	 6.88908476442308E-02 
528	 6.90167227107559E-02 
529	 6.92754423332843E-02 
530	 6.94967058743805E-02 
531	 6.97670028999496E-02 
532	 7.01642727583605E-02 
533	 7.08925182327508E-02 
534	 7.15578657633858E-02 
535	 0.071322897643117 
536	 7.13297736652539E-02 
537	 7.18439979877322E-02 
538	 7.22138826807463E-02 
539	 7.25064023697126E-02 
540	 7.28062075765045E-02 
541	 7.29926762026701E-02 
542	 7.30881224702099E-02 
543	 7.31669456951059E-02 
544	 0.073450323783321 
545	 0.073951196522369 
546	 7.40863743126737E-02 
547	 7.41316959539855E-02 
548	 7.45135710859605E-02 
549	 7.47456566367615E-02 
550	 7.48407252736386E-02 
551	 7.52696302939886E-02 
552	 7.56919933426636E-02 
553	 7.58667293255271E-02 
554	 7.56750854350042E-02 
555	 7.55013237870659E-02 
556	 7.60924844397637E-02 
557	 0.07653751777797 
558	 7.65942128989887E-02 
559	 0.076628613175036 
560	 7.67985622680834E-02 
561	 7.71909903332468E-02 
562	 7.70833503984506E-02 
563	 7.67052556691358E-02 
564	 7.70396833227219E-02 
565	 0.077217745359054 
566	 7.69572535853722E-02 
567	 0.076848582784967 
568	 7.68195483420206E-02 
569	 7.67115966574177E-02 
570	 7.67094629549694E-02 
571	 7.68692515416434E-02 
572	 7.72750368176552E-02 
573	 7.74370354615529E-02 
574	 7.71080069381837E-02 
575	 7.69390864336408E-02 
576	 7.69519335355503E-02 
577	 7.70159534644028E-02 
578	 7.69905868849657E-02 
579	 7.68234910459189E-02 
580	 7.65490810087858E-02 
581	 7.63047965254086E-02 
582	 7.62218179592176E-02 
583	 7.64127500560824E-02 
584	 7.67293734802551E-02 
585	 7.67868629496205E-02 
586	 7.66912380828029E-02 
587	 7.64954156915334E-02 
588	 7.63228767261522E-02 
589	 7.61938272784677E-02 
590	 7.61166077101076E-02 
591	 7.58792703109517E-02 
592	 7.55338901429549E-02 
593	 7.52921001338815E-02 
594	 0.075585769423327 
595	 7.65198320667453E-02 
596	 7.67503788264088E-02 
597	 7.65193519018641E-02 
598	 7.66122299142283E-02 
599	 7.63954148475379E-02 
600	 7.59053470510578E-02 
601	 7.60513933129121E-02 
602	 7.63587677313305E-02 
603	 7.63716198543083E-02 
604	 7.62237833592006E-02 
605	 0.075989665812913 
606	 7.57529537096099E-02 
607	 7.57702947679131E-02 
608	 7.60694776587519E-02 
609	 7.61055652140568E-02 
610	 7.58812717840415E-02 
611	 7.54777244016783E-02 
612	 7.57109556136849E-02 
613	 7.63729074422099E-02 
614	 7.60979460740972E-02 
615	 0.075566743711245 
616	 7.52193164009326E-02 
617	 7.49950457027415E-02 
618	 7.49025504799387E-02 
619	 7.49420880620601E-02 
620	 7.50581714382346E-02 
621	 7.51729234230632E-02 
622	 7.51345645490158E-02 
623	 7.48600586065777E-02 
624	 7.43416773104684E-02 
625	 7.44349292792765E-02 
626	 7.49072775013429E-02 
627	 7.47006111192737E-02 
628	 7.46473398927569E-02 
629	 0.074941062876684 
630	 7.47269538778295E-02 
631	 7.43749313398009E-02 
632	 7.44262702790705E-02 
633	 7.46888693802474E-02 
634	 7.49348823316984E-02 
635	 7.45560082497412E-02 
636	 7.43051477052888E-02 
637	 7.45807403157536E-02 
638	 7.46834920416502E-02 
639	 7.46135485265728E-02 
640	 7.45297801886891E-02 
641	 7.46093677116007E-02 
642	 7.47462557237733E-02 
643	 7.41711778102489E-02 
644	 7.36995041904708E-02 
645	 7.40241908617486E-02 
646	 7.42513937242773E-02 
647	 7.41428732700576E-02 
648	 7.35148123674269E-02 
649	 7.30057284857142E-02 
650	 7.29235784844872E-02 
651	 7.32573406844828E-02 
652	 7.34452326446656E-02 
653	 7.28455473342441E-02 
654	 7.27586164549267E-02 
655	 7.31677764113912E-02 
656	 7.28841732138523E-02 
657	 7.21774759745106E-02 
658	 7.13612556624044E-02 
659	 7.10847765237009E-02 
660	 7.10825621299434E-02 
661	 0.070846329290003 
662	 7.03417882667595E-02 
663	 6.96570424214148E-02 
664	 6.92259400324903E-02 
665	 6.90699979255238E-02 
666	 6.91464808269236E-02 
667	 6.88766290472811E-02 
668	 6.84309333253248E-02 
669	 6.85555480385268E-02 
670	 6.83636368207844E-02 
671	 6.77167863377946E-02 
672	 6.77560010784266E-02 
673	 6.80503103657687E-02 
674	 6.80065883981036E-02 
675	 6.77427840218422E-02 
676	 6.74555485106646E-02 
677	 0.067655734968813 
678	 6.79762727613563E-02 
679	 6.82169024024156E-02 
680	 6.84853656780758E-02 
681	 6.87328489550519E-02 
682	 6.88504656552715E-02 
683	 6.94111759251089E-02 
684	 0.070377632163811 
685	 7.09236128913626E-02 
686	 0.071536174927087 
687	 7.26144261865017E-02 
688	 7.36128917185003E-02 
689	 7.44177811630593E-02 
690	 7.51964131378505E-02 
691	 7.62019089725252E-02 
692	 7.74835276062076E-02 
693	 7.86477721728317E-02 
694	 7.98912590146041E-02 
695	 8.13792768432526E-02 
696	 0.082959713442765 
697	 8.45178789209046E-02 
698	 8.59781611802731E-02 
699	 8.70135701278589E-02 
700	 8.75891159848643E-02 
701	 8.87771200327866E-02 
702	 9.03312412433492E-02 
703	 9.17442604891544E-02 
704	 9.25507729028146E-02 
705	 9.30371843767783E-02 
706	 9.47017312821331E-02 
707	 0.095871138583809 
708	 9.56138471360816E-02 
709	 9.58563565360919E-02 
710	 9.67049161633889E-02 
711	 0.097820097844077 
712	 9.89764221158121E-02 
713	 9.99696756347481E-02 
714	 0.100453469283731 
715	 0.100928346355914 
716	 0.101883986762461 
717	 0.102576916143486 
718	 0.102969833382494 
719	 0.103490745423434 
720	 0.103755832293833 
721	 0.103820854484816 
722	 0.10458528437845 
723	 0.105202200327014 
724	 0.10462410458551 
725	 0.104753618804671 
726	 0.105758517159569 
727	 0.106799955466713 
728	 0.107188538446096 
729	 0.10672253032437 
730	 0.106892384877146 
731	 0.107397917482747 
732	 0.107581526886592 
733	 0.107611106432634 
734	 0.107624141767053 
735	 0.107955416208837 
736	 0.108352525012728 
737	 0.10862473643839 
738	 0.108778108036241 
739	 0.108903396698321 
740	 0.109181667182785 
741	 0.109291630596944 
742	 0.109242303672453 
743	 0.109525494756401 
744	 0.109777780039663 
745	 0.109716372633069 
746	 0.109926082207318 
747	 0.110300498776105 
748	 0.110350807479367 
749	 0.110397465385087 
750	 0.110450194968064 
751	 0.109906401711575 
752	 0.109559101156805 
753	 0.110231925470088 
754	 0.110717095997746 
755	 0.11085504366757 
756	 0.110974039857569 
757	 0.11108791920661 
758	 0.111244285243569 
759	 0.111536497359492 
760	 0.112121238797029 
761	 0.112719154172754 
762	 0.112675379158673 
763	 0.112352205500962 
764	 0.112790366666544 
765	 0.113102871182128 
766	 0.113028043604625 
767	 0.112996723122204 
768	 0.112963203241733 
769	 0.112816896553562 
770	 0.113016835991694 
771	 0.113402424912475 
772	 0.112879614666191 
773	 0.112760933564052 
774	 0.113723217099044 
775	 0.113447714073091 
776	 0.112669421669152 
777	 0.113309275912594 
778	 0.113854759593029 
779	 0.113919577214955 
780	 0.113878108052666 
781	 0.113883950343754 
782	 0.114046867103655 
783	 0.114173289310371 
784	 0.114300823958168 
785	 0.114570776090343 
786	 0.114961678698886 
787	 0.115304901765524 
788	 0.114831746532493 
789	 0.114478813969838 
790	 0.115081507912101 
791	 0.115350626827707 
792	 0.115166326469738 
793	 0.114788204855542 
794	 0.114741840864231 
795	 0.115194849635359 
796	 0.115832285030106 
797	 0.116115743873607 
798	 0.115598869082533 
799	 0.115444063648822 
800	 0.115727500095003 
801	 0.115980093158086 
802	 0.116208253678686 
803	 0.116379573953467 
804	 0.116525022331794 
805	 0.116483041568472 
806	 0.116108277408234 
807	 0.11595134218571 
808	 0.116087617498427 
809	 0.116360940684971 
810	 0.116681055206582 
811	 0.116967758644505 
812	 0.117147040446673 
813	 0.117192102525895 
814	 0.117092195740518 
815	 0.117349254303125 
816	 0.117943572750574 
817	 0.11849001315395 
818	 0.118230007563737 
819	 0.117227018177675 
820	 0.11771252770179 
821	 0.118649093971608 
822	 0.118622872312433 
823	 0.118144890911731 
824	 0.117712208859708 
825	 0.118375787438101 
826	 0.118967879899597 
827	 0.119010751177073 
828	 0.118920343855939 
829	 0.1185655992459 
830	 0.117814114045334 
831	 0.118563324563649 
832	 0.120069665764367 
833	 0.119030389443146 
834	 0.117858474458171 
835	 0.117697769103623 
836	 0.118621412164301 
837	 0.119536265866437 
838	 0.119240421161048 
839	 0.118688618672208 
840	 0.118301437349335 
841	 0.118573786349079 
842	 0.119208223091433 
843	 0.119881924494768 
844	 0.119651460132574 
845	 0.119203265917629 
846	 0.119373121487339 
847	 0.11926065829618 
848	 0.118990715330949 
849	 0.119519237695799 
850	 0.119587698788249 
851	 0.11889245942407 
852	 0.119001148778142 
853	 0.119088885700073 
854	 0.118264380956546 
855	 0.118921593615176 
856	 0.120428774490184 
857	 0.120090161227363 
858	 0.119640035802113 
859	 0.119628238491311 
860	 0.11973450717332 
861	 0.1199656556933 
862	 0.120288363481253 
863	 0.120007893884611 
864	 0.119560201512938 
865	 0.120268910285067 
866	 0.121061671553357 
867	 0.121444735422539 
868	 0.121041434929524 
869	 0.120707504118946 
870	 0.121129986192938 
871	 0.121803253095893 
872	 0.122376635824808 
873	 0.122356036288952 
874	 0.122393356154501 
875	 0.122357764680278 
876	 0.120616853946142 
877	 0.120132671690051 
878	 0.122505077546471 
879	 0.122534990966494 
880	 0.121325523214281 
881	 0.121872191173842 
882	 0.121781473133484 
883	 0.121029043233284 
884	 0.121694891350318 
885	 0.122482666050556 
886	 0.122545324287917 
887	 0.121456907816747 
888	 0.120570974890028 
889	 0.121667645265058 
890	 0.123258767872835 
891	 0.124491315820288 
892	 0.123991515633315 
893	 0.123198805624601 
894	 0.122856457270455 
895	 0.122611669390831 
896	 0.123102802646125 
897	 0.124813939646851 
898	 0.123096208931253 
899	 0.120136315788388 
900	 0.124080274161637 
901	 0.125504141774074 
902	 0.122686964075935 
903	 0.122616649687435 
904	 0.124019889695551 
905	 0.125480280430186 
906	 0.12479091918901 
907	 0.123681588092538 
908	 0.125929754188918 
909	 0.126105548635728 
910	 0.123794357278072 
911	 0.123528765135208 
912	 0.125228061302746 
913	 0.128140718032942 
914	 0.12800786137476 
915	 0.126172898407731 
916	 0.124955244800984 
917	 0.125723483450976 
918	 0.127082012348755 
919	 0.124247101982355 
920	 0.12261583922123 
921	 0.123540908487317 
922	 0.122982594869004 
923	 0.123103890981974 
924	 0.125705087251819 
925	 0.126405780588383 
926	 0.125692513368984 
927	 0.126392862445178 
928	 0.126033180145245 
929	 0.124268755494797 
930	 0.12353877253121 
931	 0.125152857512668 
932	 0.128817063719431 
933	 0.122105888422079 
934	 0.115308833688249 
935	 0.125341720175598 
936	 0.130381047709514 
937	 0.128225116534371 
938	 0.127669695713838 
939	 0.127052756116655 
940	 0.126501236517587 
941	 0.127255345815209 
942	 0.128868552847272 
943	 0.130471786677548 
944	 0.127467044752178 
945	 0.12279296239644 
946	 0.121669911175688 
947	 0.126025463774108 
948	 0.133119318085578 
949	 0.133202735113143 
950	 0.130485533207387 
951	 0.12837698413986 
952	 0.135811429093499 
953	 0.136974350584687 
954	 0.120038078111776 
955	 0.121694583833518 
956	 0.132194166829189 
957	 0.123150933496146 
958	 0.12067260127479 
959	 0.125634915404982 
960	 0.117397854714181 
961	 0.115257542009117 
962	 0.125781603923182 
963	 0.130999629638022 
964	 0.132357977767985 
965	 0.13245314876107 
966	 0.126940300989471 
967	 0.120109680609241 
968	 0.120889214969323 
969	 0.122498015766117 
970	 0.123215121560137 
971	 0.124201489792777 
972	 0.12447564019303 
973	 0.124108504750711 
974	 0.126995327561785 
975	 0.130288243081433 
976	 0.130417915297574 
977	 0.128311263291813 
978	 0.125085284129326 
979	 0.122636844647798 
980	 0.122348916453566 
981	 0.124268720141078 
982	 0.127363607828865 
983	 0.127266036224908 
984	 0.123093405732972 
985	 0.125216193645825 
986	 0.12992035482731 
987	 0.131897875973832 
988	 0.126795803881456 
989	 0.120456941211844 
990	 0.126206292032757 
991	 0.128301087719302 
992	 0.124387010090134 
993	 0.123185076783432 
994	 0.124431641099774 
995	 0.126857840535936 
996	 0.123327190690612 
997	 0.120143144064422 
998	 0.123584780880948 
999	 0.125662144563558 
1000	 0.12668513285543 
1001	 0.129681273456075 
1002	 0.126685671777046 
1003	 0.119396076932758 
1004	 0.119980992968281 
1005	 0.123220188953573 
1006	 0.125633372786399 
1007	 0.120413857772822 
1008	 0.119067219363628 
1009	 0.128527781425275 
1010	 0.127244401442687 
1011	 0.120046138531295 
1012	 0.117643740539288 
1013	 0.122416780879585 
1014	 0.129081089610259 
1015	 0.123432746440558 
1016	 0.1217780679929 
1017	 0.126478507105259 
1018	 0.124111906481252 
1019	 0.124001949554329 
1020	 0.12924314104419 
1021	 0.124509211136774 
1022	 0.119787643067208 
1023	 0.125095721135985 
1024	 0.128962114963007 
1025	 0.126865077119233 
1026	 0.114835727132677 
1027	 0.11082427035559 
1028	 0.115571945885783 
1029	 0.115658229005138 
1030	 0.116185083975762 
1031	 0.117902642714308 
1032	 0.118240124275353 
1033	 0.115544816492265 
1034	 0.111642474970742 
1035	 0.123861766595463 
1036	 0.1370241877785 
1037	 0.135129800675429 
1038	 0.132843587695016 
1039	 0.130105578078583 
1040	 0.122512839296019 
1041	 0.121164933508525 
1042	 0.123860978758978 
1043	 0.115024874330458 
1044	 0.112400560656313 
1045	 0.120562337129592 
1046	 0.129704516577017 
1047	 0.126996969221959 
1048	 0.109143126744361 
1049	 0.111839979179002 
1050	 0.115800049651122 
1051	 0.103005064536907 
1052	 0.110344050046516 
1053	 0.123488387330225 
1054	 0.112600638953144 
1055	 0.118209812955749 
1056	 0.14003760399794 
1057	 0.158633491330193 
1058	 0.146383717168152 
1059	 0.110616117846265 
1060	 0.130957356157766 
1061	 0.12754392915555 
1062	 0.080804795980159 
1063	 9.54862334357542E-02 
1064	 0.115908940404203 
1065	 0.104639626283717 
1066	 0.136199843797534 
1067	 0.165265619110131 
1068	 0.141557012313164 
1069	 0.132007098203683 
1070	 0.127469318634492 
1071	 9.22348152523398E-02 
1072	 7.58032119081485E-02 
1073	 8.07006311866538E-02 
1074	 8.23653753515663E-02 
1075	 0.101602357020629 
