Wavelength	A00194.asd
325	 4.23143500103773E-02 
326	 4.52318993223297E-02 
327	 5.51799260295045E-02 
328	 0.047055149328751 
329	 4.67659043246696E-02 
330	 5.90294170671192E-02 
331	 5.73189605876133E-02 
332	 5.07354959523732E-02 
333	 4.98916953740824E-02 
334	 5.29259968349004E-02 
335	 5.69827209372001E-02 
336	 0.056514652373212 
337	 5.54138512500874E-02 
338	 5.53513812942936E-02 
339	 5.82200077499205E-02 
340	 5.95834816477965E-02 
341	 5.63512322160329E-02 
342	 5.55011517283684E-02 
343	 5.75891897332423E-02 
344	 6.22364318464134E-02 
345	 6.09958733942467E-02 
346	 5.47523565334318E-02 
347	 5.64262746808145E-02 
348	 5.88171119919395E-02 
349	 0.05742372637207 
350	 5.90002635226769E-02 
351	 6.10725868719546E-02 
352	 5.86238047458185E-02 
353	 0.055436493976278 
354	 5.38600140152077E-02 
355	 5.85904527133395E-02 
356	 6.16610416489957E-02 
357	 5.88615166208689E-02 
358	 5.74009944962606E-02 
359	 5.81135899702711E-02 
360	 0.060911529629653 
361	 5.95598264069779E-02 
362	 5.56700648031725E-02 
363	 6.02836953889001E-02 
364	 6.28785325718913E-02 
365	 5.89678410930339E-02 
366	 5.83545772454087E-02 
367	 0.059097494114656 
368	 0.057248473714675 
369	 5.78456140387769E-02 
370	 6.01812625984016E-02 
371	 5.78550745275182E-02 
372	 0.056660547757605 
373	 5.91643212300044E-02 
374	 5.97307974468625E-02 
375	 5.89138430774759E-02 
376	 5.83287180128514E-02 
377	 5.83525379399537E-02 
378	 5.87728723994395E-02 
379	 5.83610846174819E-02 
380	 5.80879945748761E-02 
381	 5.84776087136863E-02 
382	 0.059519441077059 
383	 6.05194723954889E-02 
384	 6.05974738062535E-02 
385	 6.15597795444214E-02 
386	 6.26345735992056E-02 
387	 6.02360866502652E-02 
388	 5.85758050821482E-02 
389	 5.91260821492134E-02 
390	 5.81657604385425E-02 
391	 0.05757852363442 
392	 5.97963175488193E-02 
393	 6.05549254007311E-02 
394	 5.96822795773989E-02 
395	 5.94917210347455E-02 
396	 5.92395688751051E-02 
397	 5.87631022138081E-02 
398	 5.87000827260498E-02 
399	 5.86320636354832E-02 
400	 0.058125798042189 
401	 5.89933874110256E-02 
402	 6.05264876491824E-02 
403	 6.03621620590162E-02 
404	 5.94851677895086E-02 
405	 5.86931953556884E-02 
406	 0.060249947006293 
407	 6.20560508612577E-02 
408	 6.13564366128132E-02 
409	 6.07809667032521E-02 
410	 6.07475888465056E-02 
411	 6.05924485130126E-02 
412	 6.08070887684943E-02 
413	 6.14479767077662E-02 
414	 6.14647578208877E-02 
415	 6.11032304297079E-02 
416	 6.08118368645101E-02 
417	 0.060844096801577 
418	 0.061150032512357 
419	 6.13695352032983E-02 
420	 0.061384566186297 
421	 6.12146794751631E-02 
422	 0.061487916089242 
423	 6.20101111164366E-02 
424	 6.24053949247829E-02 
425	 6.26517514361424E-02 
426	 6.27595072721109E-02 
427	 6.27867507736456E-02 
428	 6.30469946563164E-02 
429	 0.063626698115365 
430	 6.35147734231716E-02 
431	 6.30749659048713E-02 
432	 6.31625349534288E-02 
433	 6.26785870211635E-02 
434	 6.18854271652057E-02 
435	 0.062685728235514 
436	 6.35157516159504E-02 
437	 6.34280059651081E-02 
438	 6.40255130025613E-02 
439	 6.47328266595951E-02 
440	 6.40245749738136E-02 
441	 6.40479657493824E-02 
442	 0.06505383103116 
443	 6.51859635818058E-02 
444	 6.50528388216605E-02 
445	 6.52175345641376E-02 
446	 6.57892442511802E-02 
447	 0.06636153353334 
448	 6.59679702659059E-02 
449	 6.56495505477433E-02 
450	 6.57792782526497E-02 
451	 0.06623298689158 
452	 6.67225438528857E-02 
453	 6.69699049826744E-02 
454	 6.70872443780698E-02 
455	 6.71480864971246E-02 
456	 0.067349778432168 
457	 0.067177984683936 
458	 6.66777832645915E-02 
459	 0.06740218308093 
460	 6.82258321065991E-02 
461	 6.77121554547405E-02 
462	 0.067536531302371 
463	 6.77569809407574E-02 
464	 6.72261414326388E-02 
465	 6.71630939280195E-02 
466	 6.80419998318203E-02 
467	 6.84507628723058E-02 
468	 6.84474277951955E-02 
469	 6.83719208199724E-02 
470	 6.82422747921316E-02 
471	 6.82234225091565E-02 
472	 6.87911953647627E-02 
473	 6.92516216106755E-02 
474	 6.91525076060599E-02 
475	 6.86586880193753E-02 
476	 6.82887191546573E-02 
477	 6.89053380643924E-02 
478	 6.91302944248801E-02 
479	 6.88182232039991E-02 
480	 6.92157367877775E-02 
481	 6.96537006919552E-02 
482	 0.069604118989815 
483	 6.97174794421396E-02 
484	 7.00292807499043E-02 
485	 7.04364586725402E-02 
486	 7.02810790626083E-02 
487	 6.96268469182609E-02 
488	 7.02485508296464E-02 
489	 0.070911887694402 
490	 7.03272591690772E-02 
491	 6.99227618434689E-02 
492	 6.99841162762017E-02 
493	 7.05378795340632E-02 
494	 7.08468476642771E-02 
495	 7.06595120848582E-02 
496	 7.07122552457216E-02 
497	 7.10117078378681E-02 
498	 7.14713108162964E-02 
499	 0.071774185790886 
500	 7.18616203660433E-02 
501	 7.18415197775945E-02 
502	 7.19719865573799E-02 
503	 7.23866854162657E-02 
504	 7.27969079080065E-02 
505	 7.31100008241746E-02 
506	 7.32525984179463E-02 
507	 7.33464733805126E-02 
508	 7.34402863707909E-02 
509	 7.35012560684857E-02 
510	 7.37652747048878E-02 
511	 7.43454430658117E-02 
512	 7.42730861472505E-02 
513	 7.38997848888436E-02 
514	 7.44072079328546E-02 
515	 7.50934099795063E-02 
516	 0.075630208624707 
517	 7.56720069266253E-02 
518	 0.075671798079454 
519	 7.61309899844076E-02 
520	 7.66377806691684E-02 
521	 7.70837152258457E-02 
522	 7.74193757748152E-02 
523	 7.78295989273743E-02 
524	 7.83730967912213E-02 
525	 7.88372183496046E-02 
526	 7.91257810266024E-02 
527	 7.91403236410845E-02 
528	 7.91411192908967E-02 
529	 7.92620627513752E-02 
530	 7.96504615323272E-02 
531	 8.00852354055516E-02 
532	 8.04189512570293E-02 
533	 0.080773079543519 
534	 8.10810529099791E-02 
535	 8.11691798723055E-02 
536	 8.13956434327066E-02 
537	 8.18053442386643E-02 
538	 8.19996180171302E-02 
539	 8.21936948081184E-02 
540	 8.25856109764068E-02 
541	 8.26398863270602E-02 
542	 0.082473629237296 
543	 8.26452401233378E-02 
544	 8.29558623601399E-02 
545	 8.33221916405289E-02 
546	 8.37565420212379E-02 
547	 8.40275005911236E-02 
548	 8.38458964267363E-02 
549	 8.40211944034369E-02 
550	 8.45726314631581E-02 
551	 8.48050119571702E-02 
552	 8.50414874054138E-02 
553	 8.54290481244001E-02 
554	 8.54321556725476E-02 
555	 0.085265336835465 
556	 8.54561137290751E-02 
557	 8.56209130767145E-02 
558	 8.56984301210367E-02 
559	 8.59637248792067E-02 
560	 8.62526640083138E-02 
561	 8.63963371531976E-02 
562	 8.63079089189909E-02 
563	 8.61458000208871E-02 
564	 8.63480305630291E-02 
565	 8.66077651317691E-02 
566	 8.67425793538632E-02 
567	 8.64757988432212E-02 
568	 8.61829714221055E-02 
569	 8.63653402373417E-02 
570	 8.65824617396386E-02 
571	 8.67586634458429E-02 
572	 8.70587781181884E-02 
573	 8.72505943255612E-02 
574	 8.72223470755918E-02 
575	 8.73507877891203E-02 
576	 0.087430731002475 
577	 0.086974642667575 
578	 8.66995085618779E-02 
579	 0.086808725336061 
580	 8.71111965071461E-02 
581	 8.71753732110725E-02 
582	 8.66980850230091E-02 
583	 8.67780109735858E-02 
584	 8.73015239359066E-02 
585	 8.74785138783171E-02 
586	 8.74640624850838E-02 
587	 8.73043870356547E-02 
588	 8.70778517494059E-02 
589	 8.69183805272785E-02 
590	 0.086981793164975 
591	 8.68567453339157E-02 
592	 8.66271608867983E-02 
593	 8.69086006485622E-02 
594	 8.71185287978764E-02 
595	 8.69792945626326E-02 
596	 8.72190315093084E-02 
597	 8.76211885102521E-02 
598	 8.76679960821067E-02 
599	 8.73944868521781E-02 
600	 0.086956645444081 
601	 8.70059587869253E-02 
602	 0.087126326147593 
603	 8.69524060103147E-02 
604	 8.70093054647813E-02 
605	 8.71616464335974E-02 
606	 8.67759332466625E-02 
607	 8.67117415646211E-02 
608	 8.71824697465951E-02 
609	 8.72416171318576E-02 
610	 8.69614095635449E-02 
611	 8.65526455889725E-02 
612	 8.66146860417149E-02 
613	 0.087007117151267 
614	 8.67023991979295E-02 
615	 8.63590128163228E-02 
616	 8.63637428267574E-02 
617	 8.63845210284901E-02 
618	 8.63208619578175E-02 
619	 8.60589040440965E-02 
620	 8.60069506767137E-02 
621	 8.61820815187092E-02 
622	 0.086095563655891 
623	 8.58542747665182E-02 
624	 8.55982352107438E-02 
625	 8.56728248980529E-02 
626	 0.08594673249272 
627	 0.085894862559383 
628	 0.085898793900948 
629	 8.60537103440147E-02 
630	 8.60190599600187E-02 
631	 8.59197990109094E-02 
632	 8.59457917635591E-02 
633	 8.64474048967702E-02 
634	 8.70824324094558E-02 
635	 8.64463812598968E-02 
636	 8.59671425827127E-02 
637	 8.63900195143154E-02 
638	 8.63325609442751E-02 
639	 8.59383480110453E-02 
640	 8.57530465855457E-02 
641	 8.59935234959854E-02 
642	 8.64852137893456E-02 
643	 8.60787020248979E-02 
644	 8.57320753616705E-02 
645	 8.62501514287175E-02 
646	 8.62605945222704E-02 
647	 8.58348308752716E-02 
648	 8.58573859543898E-02 
649	 8.58261072307135E-02 
650	 8.56193227648133E-02 
651	 0.085626411780255 
652	 0.085685890540438 
653	 8.55728264409455E-02 
654	 8.55686407563665E-02 
655	 0.085595291731496 
656	 8.51694670709165E-02 
657	 8.46682958605554E-02 
658	 8.43433249569929E-02 
659	 8.40559561331271E-02 
660	 0.083776496402975 
661	 8.35263753300768E-02 
662	 8.27306675307048E-02 
663	 0.081618995504485 
664	 0.081881916315421 
665	 8.22175829435172E-02 
666	 0.081553417177077 
667	 8.10929539531415E-02 
668	 8.09479937732313E-02 
669	 8.09072286546216E-02 
670	 8.06784063618482E-02 
671	 8.02763270724974E-02 
672	 8.05834631439391E-02 
673	 8.08458539918028E-02 
674	 8.01651880270609E-02 
675	 8.00018036434709E-02 
676	 8.04068694503006E-02 
677	 8.04507769104165E-02 
678	 8.05375436628399E-02 
679	 8.08692775018521E-02 
680	 8.13688903983167E-02 
681	 8.17889031615004E-02 
682	 8.17426095837133E-02 
683	 8.21310805483587E-02 
684	 8.30339126657723E-02 
685	 8.37090588756232E-02 
686	 8.42579754786878E-02 
687	 8.47751430553578E-02 
688	 8.55699817989963E-02 
689	 8.64313581807967E-02 
690	 8.68824405961107E-02 
691	 8.76930465898546E-02 
692	 8.89621055692334E-02 
693	 8.98079103646713E-02 
694	 9.05278965603531E-02 
695	 9.14427330069303E-02 
696	 9.23075201361099E-02 
697	 9.31143076033241E-02 
698	 0.094007397268183 
699	 9.47832669150922E-02 
700	 9.53857116031167E-02 
701	 9.62628419223237E-02 
702	 9.71615890535761E-02 
703	 9.76804613534777E-02 
704	 9.80167598951684E-02 
705	 9.83592560696285E-02 
706	 9.91708106733946E-02 
707	 0.099794284934149 
708	 9.98561264006175E-02 
709	 0.100067131653885 
710	 0.100503668727924 
711	 0.101119939798138 
712	 0.101629426729428 
713	 0.101956486773964 
714	 0.102270812044055 
715	 0.102611022031686 
716	 0.103040329182049 
717	 0.103723334852539 
718	 0.104486330023923 
719	 0.104606957916042 
720	 0.10460255185849 
721	 0.10469850594543 
722	 0.104883949519076 
723	 0.104907627273211 
724	 0.104476402884616 
725	 0.10473017276025 
726	 0.105590751360552 
727	 0.106004247236126 
728	 0.106251191861833 
729	 0.106418594885948 
730	 0.106271898708812 
731	 0.106064355807136 
732	 0.106155314353392 
733	 0.106262745787116 
734	 0.106366765909762 
735	 0.106586571981068 
736	 0.107051381738311 
737	 0.107725502380829 
738	 0.107630418361291 
739	 0.107087916363167 
740	 0.106915206384057 
741	 0.10717421533989 
742	 0.107747634454259 
743	 0.107996881986879 
744	 0.107983352481609 
745	 0.107801950631798 
746	 0.107694506685882 
747	 0.107667968588258 
748	 0.107549763150466 
749	 0.1077558691803 
750	 0.108290558397197 
751	 0.108332129196966 
752	 0.108205013548253 
753	 0.108314674671697 
754	 0.108488541872143 
755	 0.108670739302541 
756	 0.108821538348664 
757	 0.108794305108094 
758	 0.108571630017265 
759	 0.108634762363487 
760	 0.109396139943634 
761	 0.110962138647758 
762	 0.111181476683268 
763	 0.110307806007129 
764	 0.11008416953651 
765	 0.110121428850768 
766	 0.110210296885464 
767	 0.1100559451733 
768	 0.109877804758087 
769	 0.109958424864019 
770	 0.110089612238695 
771	 0.110197092312793 
772	 0.110194172329254 
773	 0.110229785045307 
774	 0.110395933988026 
775	 0.110555095911059 
776	 0.110700621135549 
777	 0.110857187616749 
778	 0.111116939710279 
779	 0.111316421552307 
780	 0.110573635326437 
781	 0.110287466107545 
782	 0.111427020571429 
783	 0.111790932176768 
784	 0.111469673379124 
785	 0.111463638941939 
786	 0.111406245029589 
787	 0.111309611411911 
788	 0.111632108075843 
789	 0.112020948801299 
790	 0.112112189347185 
791	 0.111852396289789 
792	 0.11153835843088 
793	 0.111895133411297 
794	 0.112386917321537 
795	 0.112667668056816 
796	 0.112043733134886 
797	 0.111492389675966 
798	 0.111979268282024 
799	 0.112353423877759 
800	 0.112539881162041 
801	 0.113052577232709 
802	 0.113123305679342 
803	 0.112628195145825 
804	 0.112642218266789 
805	 0.11295758456862 
806	 0.113235763173467 
807	 0.113004409043456 
808	 0.112555854238073 
809	 0.113107770851619 
810	 0.113272927338743 
811	 0.112660746351121 
812	 0.112872811819691 
813	 0.113649105793883 
814	 0.114438467534084 
815	 0.114590706628975 
816	 0.114296402641428 
817	 0.11497884360675 
818	 0.114849398948941 
819	 0.113548995590425 
820	 0.113429408051074 
821	 0.114095698136452 
822	 0.114857852051526 
823	 0.115038479629385 
824	 0.114742778372485 
825	 0.114894105834335 
826	 0.114891701036716 
827	 0.114558833217896 
828	 0.114388991046879 
829	 0.114274175636944 
830	 0.114051617850921 
831	 0.114610341392966 
832	 0.115602972472977 
833	 0.115594708878939 
834	 0.115196158439987 
835	 0.114733262851236 
836	 0.11442763589496 
837	 0.11441208583157 
838	 0.114791535613409 
839	 0.115585500385882 
840	 0.11624034341229 
841	 0.115167970449097 
842	 0.114598091939185 
843	 0.115308414075754 
844	 0.115654253011711 
845	 0.115608139808004 
846	 0.115313937598788 
847	 0.115195592792471 
848	 0.115282716253421 
849	 0.115352879786896 
850	 0.115345437733135 
851	 0.115258609130094 
852	 0.115289063492327 
853	 0.115454180987341 
854	 0.115728005009392 
855	 0.115743089009625 
856	 0.11557150842891 
857	 0.115622249045263 
858	 0.115445827944527 
859	 0.115033449607699 
860	 0.115043497768506 
861	 0.115445534199946 
862	 0.116069706219837 
863	 0.115398716587498 
864	 0.11434894189877 
865	 0.115797019185815 
866	 0.116930891515485 
867	 0.116855157886065 
868	 0.116307639795322 
869	 0.116142027208596 
870	 0.116905864846675 
871	 0.117050792536303 
872	 0.116769214217249 
873	 0.116947074886454 
874	 0.116841549507081 
875	 0.116268199115608 
876	 0.115241020955778 
877	 0.114987763990112 
878	 0.116141996563096 
879	 0.116304347277946 
880	 0.116086473967724 
881	 0.117067454396013 
882	 0.116798653161484 
883	 0.115331274475777 
884	 0.11519093736051 
885	 0.115344254578688 
886	 0.115260265577379 
887	 0.115398060286601 
888	 0.115892466896802 
889	 0.116836955725255 
890	 0.11660466180941 
891	 0.115566305456338 
892	 0.116207964495731 
893	 0.116666573220187 
894	 0.116382064884556 
895	 0.117499085221739 
896	 0.119330273339946 
897	 0.120675330266865 
898	 0.119466755167872 
899	 0.116969136086831 
900	 0.117430247283045 
901	 0.118054089063613 
902	 0.118041088347661 
903	 0.118105437896448 
904	 0.118174049107356 
905	 0.118131530068275 
906	 0.117386637719298 
907	 0.116871903766482 
908	 0.118386484016719 
909	 0.119279338112208 
910	 0.119178787088193 
911	 0.120041894951978 
912	 0.120404014442708 
913	 0.119702619442608 
914	 0.120069976577065 
915	 0.120740933782618 
916	 0.120516960886032 
917	 0.119705955986394 
918	 0.1184960849313 
919	 0.116813082294777 
920	 0.117127370325539 
921	 0.119423821891243 
922	 0.118744020141959 
923	 0.11775922579405 
924	 0.118919031752939 
925	 0.119163072034595 
926	 0.118778023447141 
927	 0.119511365151209 
928	 0.120356671181714 
929	 0.120266786968531 
930	 0.115846290762541 
931	 0.112917560898877 
932	 0.115734097444896 
933	 0.113845662558498 
934	 0.111764282737399 
935	 0.117931800499814 
936	 0.124363315034243 
937	 0.12669939258594 
938	 0.119529779551685 
939	 0.114345310417522 
940	 0.11543768258282 
941	 0.124258308518249 
942	 0.125902907452284 
943	 0.112317530693816 
944	 0.112299973694667 
945	 0.119995132001209 
946	 0.119944561215421 
947	 0.120520518346158 
948	 0.122472453935927 
949	 0.122512488995494 
950	 0.121181051390112 
951	 0.119327387117992 
952	 0.120068646120186 
953	 0.120987210857257 
954	 0.11996999764066 
955	 0.121015605777045 
956	 0.123202284614497 
957	 0.123862181615257 
958	 0.123132963404337 
959	 0.12074662865866 
960	 0.11477499188205 
961	 0.113973084748618 
962	 0.120836883991371 
963	 0.124632665770193 
964	 0.125242255583569 
965	 0.123632946447208 
966	 0.12182857115707 
967	 0.120985762768391 
968	 0.122574308220565 
969	 0.120740179860959 
970	 0.116024722551822 
971	 0.116859192600609 
972	 0.119160005994801 
973	 0.120451524997673 
974	 0.12028761244297 
975	 0.121618843957253 
976	 0.127107294934408 
977	 0.126197719403313 
978	 0.120629895972081 
979	 0.118416251493026 
980	 0.119398989548702 
981	 0.122715556204077 
982	 0.125328217174379 
983	 0.124904488973268 
984	 0.121263768424653 
985	 0.121387033302144 
986	 0.124633437334254 
987	 0.128868782763875 
988	 0.124205017178032 
989	 0.116590117730543 
990	 0.121545172485636 
991	 0.124719622829862 
992	 0.123083611129537 
993	 0.121638586026595 
994	 0.119813825109469 
995	 0.1178789595694 
996	 0.118101684075347 
997	 0.118987123118523 
998	 0.118905188048694 
999	 0.11837909339451 
1000	 0.11929274080687 
1001	 0.12482812124403 
1002	 0.120080331789525 
1003	 0.108859128055839 
1004	 0.117435587314536 
1005	 0.12393393321984 
1006	 0.120064373138332 
1007	 0.111805464037711 
1008	 0.110310191406118 
1009	 0.121762455161834 
1010	 0.12552493636199 
1011	 0.120123499979261 
1012	 0.108214592964351 
1013	 0.10727687271885 
1014	 0.116528767948589 
1015	 0.123772957863724 
1016	 0.129408674179736 
1017	 0.131338907991088 
1018	 0.123601464937635 
1019	 0.119292485891467 
1020	 0.123738184055206 
1021	 0.120248254330884 
1022	 0.11725344910266 
1023	 0.123402723546331 
1024	 0.128539566705236 
1025	 0.127652905592879 
1026	 0.115694825528588 
1027	 0.111524602211315 
1028	 0.116378290040915 
1029	 0.117977602742015 
1030	 0.117390193242718 
1031	 0.114226183003834 
1032	 0.107059964034964 
1033	 0.102151721569717 
1034	 0.105193247570616 
1035	 0.123216562630674 
1036	 0.139140318637295 
1037	 0.136203752930995 
1038	 0.127135025501477 
1039	 0.122321240323121 
1040	 0.134537903920695 
1041	 0.143703396950923 
1042	 0.143582949129832 
1043	 0.131958097362012 
1044	 0.12809524116846 
1045	 0.136467617983976 
1046	 0.141220787393222 
1047	 0.127584014628672 
1048	 9.55418437572742E-02 
1049	 0.11112741911811 
1050	 0.131908597830253 
1051	 0.117633338032958 
1052	 0.118674843066056 
1053	 0.129353913552359 
1054	 0.129087699864505 
1055	 0.128351391594246 
1056	 0.131554804966253 
1057	 0.145596147855591 
1058	 0.132003882467131 
1059	 9.74235104669887E-02 
1060	 0.12869137625036 
1061	 0.138134764407479 
1062	 0.102103784466673 
1063	 0.119296778390124 
1064	 0.128815534060949 
1065	 9.47135650468286E-02 
1066	 0.112777247716692 
1067	 0.146258293595249 
1068	 0.14831544065685 
1069	 0.140838421332425 
1070	 0.116568270850929 
1071	 0.06228112882538 
1072	 9.23638108229818E-02 
1073	 0.165795640115418 
1074	 0.115524213710481 
1075	 9.67589638299328E-02 
