Wavelength	A00178.asd
325	 4.07674118594479E-02 
326	 4.04858616111111E-02 
327	 4.17829615119167E-02 
328	 3.84669398662694E-02 
329	 4.17889029217114E-02 
330	 5.12884711945554E-02 
331	 4.28760916811809E-02 
332	 3.32338835718698E-02 
333	 3.93001833209699E-02 
334	 4.07610180016575E-02 
335	 3.91615252967516E-02 
336	 4.70048548228492E-02 
337	 4.96536500266161E-02 
338	 4.52086922400626E-02 
339	 4.77555658337388E-02 
340	 4.82145790835535E-02 
341	 4.02174424914759E-02 
342	 0.043109618787354 
343	 5.20567254028822E-02 
344	 5.36012748920747E-02 
345	 5.04414998143041E-02 
346	 4.53369701463644E-02 
347	 4.66637131308837E-02 
348	 4.68783206542791E-02 
349	 4.18430362139719E-02 
350	 0.042079750960358 
351	 4.46917508181795E-02 
352	 4.30194171552955E-02 
353	 4.37417109802729E-02 
354	 4.67828939817653E-02 
355	 4.62284487249008E-02 
356	 4.39312586925612E-02 
357	 4.16000400191126E-02 
358	 4.23699025565234E-02 
359	 4.52968286776713E-02 
360	 4.84707555165423E-02 
361	 4.82692619809372E-02 
362	 0.04556351678112 
363	 4.66897205414449E-02 
364	 4.69010249073454E-02 
365	 0.044360254378585 
366	 4.44581484045401E-02 
367	 4.56531503557348E-02 
368	 0.045192107798033 
369	 4.51110420089011E-02 
370	 4.53563809970166E-02 
371	 0.044077499794922 
372	 4.36627297610644E-02 
373	 4.51906975397446E-02 
374	 4.63149978990429E-02 
375	 0.046912084516742 
376	 4.72165895461502E-02 
377	 4.69158936866355E-02 
378	 4.62060820482055E-02 
379	 4.56693147769006E-02 
380	 4.61483889692815E-02 
381	 4.75980336410439E-02 
382	 4.68122951008649E-02 
383	 4.53135402517381E-02 
384	 4.54950343695874E-02 
385	 4.63367494806936E-02 
386	 4.71049733767246E-02 
387	 4.64845571657576E-02 
388	 4.56247923874403E-02 
389	 4.51300077268688E-02 
390	 4.50175429691713E-02 
391	 4.53812228727537E-02 
392	 4.62858279503613E-02 
393	 4.64711132287474E-02 
394	 4.60451226444879E-02 
395	 4.60762376733243E-02 
396	 4.65961667484591E-02 
397	 4.73205029813795E-02 
398	 4.68952834370446E-02 
399	 4.57544571138444E-02 
400	 4.44652462352895E-02 
401	 0.04414757400431 
402	 4.47918983056359E-02 
403	 4.60470485106365E-02 
404	 4.65590595418353E-02 
405	 4.60477575373444E-02 
406	 4.67240843514612E-02 
407	 4.78941424466737E-02 
408	 4.84571975780334E-02 
409	 0.047855275655574 
410	 4.66163248493253E-02 
411	 4.64592373182376E-02 
412	 4.69178972754582E-02 
413	 0.047599953138179 
414	 4.75804754029608E-02 
415	 4.71594815912578E-02 
416	 4.68521362227204E-02 
417	 4.65301704850052E-02 
418	 4.64201574188661E-02 
419	 4.72943921723393E-02 
420	 4.79472650085829E-02 
421	 4.77935368739542E-02 
422	 4.77773273750483E-02 
423	 4.79344305182771E-02 
424	 4.81471093808887E-02 
425	 4.85210714449773E-02 
426	 4.89388103945629E-02 
427	 4.89301344134256E-02 
428	 4.87973727337099E-02 
429	 4.88040741362845E-02 
430	 4.93794474152794E-02 
431	 4.99775165288947E-02 
432	 4.96502058493846E-02 
433	 4.87834885674902E-02 
434	 4.79690023574476E-02 
435	 4.87698393396005E-02 
436	 4.95482451406305E-02 
437	 4.93119213737138E-02 
438	 4.96872158623511E-02 
439	 5.03066626063997E-02 
440	 5.00616549834824E-02 
441	 5.00624170223013E-02 
442	 0.050490215004791 
443	 5.06568404814909E-02 
444	 5.06234091620002E-02 
445	 0.050498242760894 
446	 0.050743253572067 
447	 5.11434481934505E-02 
448	 0.05102041696551 
449	 5.10378214358308E-02 
450	 0.051361852480066 
451	 5.16378129549243E-02 
452	 5.18768429346492E-02 
453	 5.21038379614763E-02 
454	 5.22028699265745E-02 
455	 5.22331179764112E-02 
456	 5.24480607511486E-02 
457	 5.24269571605224E-02 
458	 5.21686157880296E-02 
459	 5.27571542017016E-02 
460	 5.33123974778712E-02 
461	 5.27304418096337E-02 
462	 5.24519239172569E-02 
463	 5.25880766140355E-02 
464	 5.23646077967632E-02 
465	 5.22788690001889E-02 
466	 5.25620405920155E-02 
467	 5.29719786247098E-02 
468	 0.053245992339385 
469	 5.30556027502989E-02 
470	 5.31998516521042E-02 
471	 5.36813367260293E-02 
472	 5.37591571334241E-02 
473	 5.35740892564225E-02 
474	 5.32754495497447E-02 
475	 5.32534217348614E-02 
476	 5.35023275573772E-02 
477	 5.39500513055841E-02 
478	 5.37520258324058E-02 
479	 5.30346885084661E-02 
480	 0.05344460730811 
481	 5.39910124601097E-02 
482	 5.38703084921363E-02 
483	 5.37792914178725E-02 
484	 0.053917759673678 
485	 5.45412527424579E-02 
486	 5.47968577655716E-02 
487	 5.45228529584643E-02 
488	 5.48017528681869E-02 
489	 5.50883153110957E-02 
490	 5.47889800264769E-02 
491	 5.43148791324586E-02 
492	 5.40642952750559E-02 
493	 0.054912195750684 
494	 5.55200361863486E-02 
495	 5.53603086143832E-02 
496	 5.52173711752055E-02 
497	 0.055242776916503 
498	 5.55280184493177E-02 
499	 5.58186475582945E-02 
500	 0.056006484832083 
501	 5.59513712595532E-02 
502	 5.61073702260212E-02 
503	 5.66696562121998E-02 
504	 5.68447089984318E-02 
505	 5.68748451703726E-02 
506	 5.73526318416161E-02 
507	 5.75492221286604E-02 
508	 5.74200921493804E-02 
509	 5.75904912459107E-02 
510	 5.80191368413593E-02 
511	 5.86218109015278E-02 
512	 5.90217744628992E-02 
513	 5.91926436186596E-02 
514	 5.92211859120719E-02 
515	 5.93602486199495E-02 
516	 5.96609967902842E-02 
517	 5.97195242542844E-02 
518	 0.059876165108141 
519	 6.04898486384079E-02 
520	 6.07969107810943E-02 
521	 6.08566663051241E-02 
522	 6.13052615345981E-02 
523	 6.16127697259399E-02 
524	 6.16111746516824E-02 
525	 6.18558530551658E-02 
526	 6.22395007025692E-02 
527	 6.25207118052451E-02 
528	 6.29389239631682E-02 
529	 6.33922691978154E-02 
530	 6.33502773387201E-02 
531	 6.33238167267376E-02 
532	 0.063668809261611 
533	 6.43467854239497E-02 
534	 6.49398017722524E-02 
535	 6.46304990041846E-02 
536	 6.45601713312179E-02 
537	 6.50007012502277E-02 
538	 6.53337071866986E-02 
539	 6.55712373679964E-02 
540	 6.57499492535249E-02 
541	 6.58981425337465E-02 
542	 6.59547075627744E-02 
543	 6.56368899172404E-02 
544	 6.58001986272302E-02 
545	 6.66475674481642E-02 
546	 6.69915342262499E-02 
547	 6.69989840791278E-02 
548	 6.70398668911215E-02 
549	 6.71298989483093E-02 
550	 6.73317934935225E-02 
551	 6.77878552836782E-02 
552	 6.81804741088186E-02 
553	 6.82996315428098E-02 
554	 6.82631510345857E-02 
555	 0.068150699891847 
556	 6.80461362043647E-02 
557	 6.81818608475808E-02 
558	 6.85514802687041E-02 
559	 6.87325802342595E-02 
560	 6.88077974368995E-02 
561	 6.88696430143249E-02 
562	 6.88033404933315E-02 
563	 6.88019877080117E-02 
564	 6.94752923638404E-02 
565	 6.98258124040601E-02 
566	 0.069485937711842 
567	 6.90559103276207E-02 
568	 6.87682965783068E-02 
569	 6.88351858301113E-02 
570	 0.069159545010177 
571	 6.95633754636749E-02 
572	 6.96165154819506E-02 
573	 6.95106782632661E-02 
574	 6.94156655017221E-02 
575	 6.97377946106251E-02 
576	 7.00656358098139E-02 
577	 6.95262327546477E-02 
578	 6.92263386842848E-02 
579	 6.93946106536277E-02 
580	 6.93503499425834E-02 
581	 6.92372505760135E-02 
582	 6.92114400575633E-02 
583	 6.93707301454429E-02 
584	 6.96114943691361E-02 
585	 0.06963789155885 
586	 6.95899091748855E-02 
587	 6.95190231303206E-02 
588	 0.069393559868588 
589	 6.93463163964324E-02 
590	 6.95423090526334E-02 
591	 6.93977271624864E-02 
592	 6.89863880176696E-02 
593	 6.89994428768828E-02 
594	 6.90758456476756E-02 
595	 6.90380284026011E-02 
596	 6.92214078448272E-02 
597	 6.95146156091112E-02 
598	 6.96674391561322E-02 
599	 6.97043194445731E-02 
600	 6.96227761266505E-02 
601	 6.94178706799366E-02 
602	 6.92128803895231E-02 
603	 6.91328190575358E-02 
604	 6.93896713043977E-02 
605	 0.069678897451878 
606	 6.90655567977795E-02 
607	 6.88754451139098E-02 
608	 6.94571716804419E-02 
609	 6.93956812751065E-02 
610	 6.89773016740468E-02 
611	 6.87257873931286E-02 
612	 6.88672454586466E-02 
613	 6.93011125294288E-02 
614	 6.95390135544853E-02 
615	 6.93328202039519E-02 
616	 6.86396794355372E-02 
617	 6.84641366143565E-02 
618	 6.86620159897867E-02 
619	 6.87235245823638E-02 
620	 6.87463906722133E-02 
621	 6.87583294807072E-02 
622	 6.88918016860104E-02 
623	 6.88359166093822E-02 
624	 6.83618052838048E-02 
625	 6.83437438800051E-02 
626	 6.86363829125555E-02 
627	 6.83784622185881E-02 
628	 6.83488556257493E-02 
629	 6.87156437477049E-02 
630	 6.85692909898371E-02 
631	 6.82681463209407E-02 
632	 0.068348693254778 
633	 6.87566353806944E-02 
634	 6.92181266921883E-02 
635	 0.068900901261546 
636	 6.85470775314131E-02 
637	 6.85868806403248E-02 
638	 6.86294833699827E-02 
639	 6.86002951496094E-02 
640	 6.84319835915569E-02 
641	 6.85650991213159E-02 
642	 6.89649545641136E-02 
643	 6.88420020287978E-02 
644	 6.86714528937888E-02 
645	 0.068870060010456 
646	 6.89632373363083E-02 
647	 6.88169196711845E-02 
648	 6.82642220203767E-02 
649	 6.79869678008623E-02 
650	 6.81490253721008E-02 
651	 6.78017243601547E-02 
652	 6.75233113075074E-02 
653	 6.80724588263701E-02 
654	 6.81591466681578E-02 
655	 6.76205690335261E-02 
656	 0.067103124503011 
657	 0.066763791686958 
658	 6.66490036621322E-02 
659	 6.61740082766764E-02 
660	 0.065653369478232 
661	 6.57446620535562E-02 
662	 6.52669171011735E-02 
663	 6.42422246117291E-02 
664	 0.064248366194708 
665	 6.45303826610692E-02 
666	 6.44071635748164E-02 
667	 6.40389501591077E-02 
668	 6.36337643358643E-02 
669	 6.37093020068772E-02 
670	 6.34028328064241E-02 
671	 6.26846028044348E-02 
672	 6.33069476600157E-02 
673	 6.40594773075993E-02 
674	 6.34537794446407E-02 
675	 6.32008677981803E-02 
676	 6.34536548899687E-02 
677	 6.34196339417303E-02 
678	 6.34826592644719E-02 
679	 6.38010510472325E-02 
680	 6.40245921790144E-02 
681	 6.41560658061742E-02 
682	 6.42500803550724E-02 
683	 6.47451230125475E-02 
684	 6.56012277812861E-02 
685	 6.61456171154778E-02 
686	 6.66938297461938E-02 
687	 0.067487498049842 
688	 6.80770038442492E-02 
689	 6.85111702418116E-02 
690	 6.91466715548934E-02 
691	 7.01331486924523E-02 
692	 7.14473954680083E-02 
693	 0.072618236312579 
694	 7.36240747918421E-02 
695	 7.44396625724948E-02 
696	 7.52099077944587E-02 
697	 7.60151387558869E-02 
698	 7.70250561740475E-02 
699	 7.78236368782072E-02 
700	 7.82601691579914E-02 
701	 7.89335686866845E-02 
702	 7.97150498844709E-02 
703	 0.080333188845305 
704	 8.10374401715599E-02 
705	 8.18164759970924E-02 
706	 8.24148652646634E-02 
707	 8.29385168840112E-02 
708	 8.34613938920204E-02 
709	 8.39775108959487E-02 
710	 8.45374621472023E-02 
711	 8.52567116825823E-02 
712	 8.57320128436359E-02 
713	 8.59435831761605E-02 
714	 8.63937971484112E-02 
715	 8.70454181882901E-02 
716	 8.78576783370782E-02 
717	 8.82464096955846E-02 
718	 8.83912500891059E-02 
719	 8.93648099274993E-02 
720	 8.98970338851254E-02 
721	 8.97238771997331E-02 
722	 8.99094160817142E-02 
723	 0.090120689140508 
724	 8.99140150144626E-02 
725	 9.02360766313951E-02 
726	 9.10361406879755E-02 
727	 9.15566365406428E-02 
728	 9.18149663010606E-02 
729	 9.18323571197788E-02 
730	 0.09183552864414 
731	 9.19550643123667E-02 
732	 9.23155693800799E-02 
733	 9.23901756193862E-02 
734	 9.22932389682073E-02 
735	 0.092882069440137 
736	 9.33621518420882E-02 
737	 9.32259869329724E-02 
738	 9.31258652159374E-02 
739	 9.31661964605512E-02 
740	 9.33727284349093E-02 
741	 9.33518918904225E-02 
742	 9.31535487681341E-02 
743	 9.35908646741131E-02 
744	 9.39442223858454E-02 
745	 9.36520282722122E-02 
746	 9.38109923005663E-02 
747	 9.42687291893279E-02 
748	 9.41974138775011E-02 
749	 9.41186821417484E-02 
750	 0.094205703991491 
751	 9.43490930701081E-02 
752	 9.45487200438777E-02 
753	 9.48021637312222E-02 
754	 9.49417044774672E-02 
755	 9.50171472907836E-02 
756	 9.52981347755744E-02 
757	 0.09548912212018 
758	 9.54680961577334E-02 
759	 9.52461876399001E-02 
760	 9.53711240191969E-02 
761	 9.71697838995575E-02 
762	 9.72249789483356E-02 
763	 9.59444905897129E-02 
764	 9.62619317355963E-02 
765	 9.69010855787568E-02 
766	 0.097280780953407 
767	 9.71788451554548E-02 
768	 9.68693877063973E-02 
769	 9.66401771643316E-02 
770	 0.096895109251237 
771	 9.74043083205704E-02 
772	 9.68436212522688E-02 
773	 9.66198257405751E-02 
774	 9.74897266568638E-02 
775	 9.72163244930898E-02 
776	 9.65439889268638E-02 
777	 9.74085749563476E-02 
778	 9.78915689719849E-02 
779	 9.75583735350777E-02 
780	 9.70760784285777E-02 
781	 9.71119136622224E-02 
782	 9.80586882700603E-02 
783	 9.83252963739167E-02 
784	 9.80746005938561E-02 
785	 9.82531071198041E-02 
786	 9.83936296617465E-02 
787	 9.83792859941398E-02 
788	 9.82751699891324E-02 
789	 9.83184575031055E-02 
790	 9.87075969570577E-02 
791	 9.91179095564717E-02 
792	 0.099438335247649 
793	 9.96071918195395E-02 
794	 9.95453117452382E-02 
795	 9.93295719485863E-02 
796	 9.94577203766196E-02 
797	 9.96851692395744E-02 
798	 9.97426982098424E-02 
799	 9.98812068466915E-02 
800	 9.99918848561276E-02 
801	 9.95967075339164E-02 
802	 9.95701460262092E-02 
803	 0.100079126750645 
804	 9.99093428142762E-02 
805	 9.97023845252372E-02 
806	 0.100197046386087 
807	 0.100193814867239 
808	 9.98263954123094E-02 
809	 0.100236104071487 
810	 0.100420466102152 
811	 0.100097161471523 
812	 0.100372101367636 
813	 0.100925865795987 
814	 0.101217141824614 
815	 0.101598856846488 
816	 0.102015068929569 
817	 0.102186011967401 
818	 0.101784258291197 
819	 0.100979691574437 
820	 0.101375756640733 
821	 0.10209506218603 
822	 0.101969254878113 
823	 0.101351550580108 
824	 0.100930445960852 
825	 0.102510223854012 
826	 0.103132424084307 
827	 0.101927749127125 
828	 0.102069141981939 
829	 0.102493887441897 
830	 0.101608942540921 
831	 0.101334734372445 
832	 0.101879230447751 
833	 0.102708267144013 
834	 0.102876911515184 
835	 0.102175469281369 
836	 0.102203626975618 
837	 0.102461824866038 
838	 0.10224896448933 
839	 0.102210343196232 
840	 0.102324289057193 
841	 0.10205006079744 
842	 0.102370407189315 
843	 0.103389416140859 
844	 0.103120625181756 
845	 0.102535781399675 
846	 0.102874110143404 
847	 0.102965147704638 
848	 0.102871477962353 
849	 0.103567004221741 
850	 0.10360375591722 
851	 0.102693142448395 
852	 0.103014031974234 
853	 0.103225453782231 
854	 0.101893934376214 
855	 0.102677075596313 
856	 0.104641526301083 
857	 0.103541376262874 
858	 0.103398186191657 
859	 0.1049257420158 
860	 0.10454733034522 
861	 0.103579789191488 
862	 0.103444988629528 
863	 0.103404069143062 
864	 0.103601927985926 
865	 0.104736448292586 
866	 0.105011567711197 
867	 0.104179720889876 
868	 0.104306660634641 
869	 0.104730207707305 
870	 0.104899786677175 
871	 0.105696296422868 
872	 0.106490776784492 
873	 0.10582900518241 
874	 0.105605525184789 
875	 0.106048333374623 
876	 0.105470546204264 
877	 0.105154519502491 
878	 0.105825362327997 
879	 0.105414383916258 
880	 0.104630360963708 
881	 0.105081584639467 
882	 0.104932778274926 
883	 0.104110792294243 
884	 0.104054071816413 
885	 0.104491899813066 
886	 0.105189826740957 
887	 0.105714173471469 
888	 0.105783534958135 
889	 0.105156519254594 
890	 0.105337487242759 
891	 0.106139910695428 
892	 0.105807498173717 
893	 0.105000867434919 
894	 0.104295245746549 
895	 0.105248679681909 
896	 0.106498646525413 
897	 0.10629658487715 
898	 0.105837265140845 
899	 0.105897586455604 
900	 0.107879479996231 
901	 0.108468631378916 
902	 0.106932968742916 
903	 0.105168140326633 
904	 0.10500500999095 
905	 0.107484118084652 
906	 0.109203381295356 
907	 0.109310032356754 
908	 0.107328362254654 
909	 0.105177247252734 
910	 0.104192088948224 
911	 0.106486110999785 
912	 0.108650245202691 
913	 0.108782498133323 
914	 0.108891594835518 
915	 0.109529402399811 
916	 0.111042626266426 
917	 0.112076290656298 
918	 0.111280118763284 
919	 0.105220717588683 
920	 0.103456934306078 
921	 0.107681577143366 
922	 0.106827179321287 
923	 0.105458210989431 
924	 0.107793260631974 
925	 0.108121415216947 
926	 0.106775041135335 
927	 0.106602657300443 
928	 0.106287149418495 
929	 0.105529011367679 
930	 0.104632854066375 
931	 0.104952057327556 
932	 0.107055349203483 
933	 0.105526228969101 
934	 0.102647309016379 
935	 0.103155488582933 
936	 0.10788039894569 
937	 0.112800199078159 
938	 0.107627541980606 
939	 0.103268128265542 
940	 0.104060697714 
941	 0.113097843820103 
942	 0.116904099252643 
943	 0.107467844710095 
944	 0.104298231656169 
945	 0.106129294970734 
946	 0.106330789450173 
947	 0.109679151099318 
948	 0.114071416446899 
949	 0.109715962087907 
950	 0.10716391774988 
951	 0.110096440022339 
952	 0.111727169102119 
953	 0.110676705456132 
954	 0.10666190885903 
955	 0.104770228606366 
956	 0.105809834617863 
957	 0.109490478948269 
958	 0.112805290934931 
959	 0.112712513097619 
960	 0.100940072082033 
961	 9.89605125509315E-02 
962	 0.113211137114728 
963	 0.118354287955657 
964	 0.117254123697783 
965	 0.114822434922623 
966	 0.112314421684224 
967	 0.110616848085543 
968	 0.110619098000954 
969	 0.107881127438121 
970	 0.103319562981771 
971	 0.105429904468011 
972	 0.10712855578395 
973	 0.105240759827385 
974	 0.105956584094891 
975	 0.109424456479422 
976	 0.114511952659735 
977	 0.111889303383772 
978	 0.105265266005744 
979	 0.106766087854339 
980	 0.106867880205045 
981	 0.105053988993684 
982	 0.109887944489639 
983	 0.113468089509533 
984	 0.111886685419449 
985	 0.110315657196119 
986	 0.110366930373247 
987	 0.112683505930874 
988	 0.109011655375187 
989	 0.103202357150491 
990	 0.105798948512395 
991	 0.109454471808366 
992	 0.111404119045379 
993	 0.109851931943487 
994	 0.108808022121373 
995	 0.109746655388286 
996	 0.107779498306148 
997	 0.106772224075532 
998	 0.110308733907038 
999	 0.110761627957119 
1000	 0.11019638431279 
1001	 0.114536199252752 
1002	 0.110631306759911 
1003	 9.97891859537532E-02 
1004	 9.76113439004572E-02 
1005	 9.85855173123324E-02 
1006	 0.100058845251107 
1007	 9.92658016118404E-02 
1008	 0.101916899845912 
1009	 0.110385519643337 
1010	 0.106541871824327 
1011	 9.93020824009937E-02 
1012	 0.103764436203828 
1013	 0.10468113103117 
1014	 0.102927431038687 
1015	 0.109088214346963 
1016	 0.10948785787465 
1017	 0.104308357251227 
1018	 0.113454628491392 
1019	 0.11858761524643 
1020	 0.111720146822926 
1021	 0.111405429035138 
1022	 0.111801426746619 
1023	 0.107006752691048 
1024	 0.114674218632867 
1025	 0.122192538718228 
1026	 0.104803321599623 
1027	 0.102031172404786 
1028	 0.114775203398599 
1029	 0.114580082619636 
1030	 0.10940257709252 
1031	 0.103021603533256 
1032	 0.101610273557066 
1033	 0.101938894759716 
1034	 0.101673217354829 
1035	 9.98420520553031E-02 
1036	 0.103036877113308 
1037	 0.116291613835795 
1038	 0.114210978642435 
1039	 0.101556764953475 
1040	 0.095165731662007 
1041	 0.101167323459659 
1042	 0.111794784186436 
1043	 9.95430301087744E-02 
1044	 9.66316618273195E-02 
1045	 0.109417495986778 
1046	 0.112248077808666 
1047	 9.85183973160784E-02 
1048	 7.40812442156438E-02 
1049	 0.10771405340839 
1050	 0.139435788168131 
1051	 0.116501281338895 
1052	 0.115037257337198 
1053	 0.124672586296499 
1054	 0.111920673219737 
1055	 0.112966362001798 
1056	 0.130504418371112 
1057	 0.154450138097103 
1058	 0.144716021059443 
1059	 0.102006480895424 
1060	 9.48902831525072E-02 
1061	 9.10471979261615E-02 
1062	 8.15611276091593E-02 
1063	 0.10748672766986 
1064	 0.122251263394465 
1065	 9.96545653972394E-02 
1066	 0.111984315489594 
1067	 0.128987054478739 
1068	 0.114954853210531 
1069	 0.125952267439587 
1070	 0.141004225452028 
1071	 0.108683671376284 
1072	 9.01892183555146E-02 
1073	 8.79327396097309E-02 
1074	 7.01093311563402E-02 
1075	 6.08412258154052E-02 
