Wavelength	A00169.asd
325	 3.82219484137715E-02 
326	 3.83533809064343E-02 
327	 3.97450674713158E-02 
328	 3.51696529497613E-02 
329	 3.64652454301773E-02 
330	 4.48437287346955E-02 
331	 4.33858033750177E-02 
332	 4.04908976440275E-02 
333	 4.49528349303783E-02 
334	 4.63985235046122E-02 
335	 4.56915637179324E-02 
336	 4.92531974175789E-02 
337	 5.02366592412029E-02 
338	 0.04741582039626 
339	 0.045302909356492 
340	 4.38257259422532E-02 
341	 4.29255292176431E-02 
342	 0.044760072852276 
343	 4.80540340625184E-02 
344	 5.04184446044178E-02 
345	 5.04484277520689E-02 
346	 4.85209184924335E-02 
347	 4.79303478781726E-02 
348	 4.68892479879825E-02 
349	 4.46240041143673E-02 
350	 4.57142214404621E-02 
351	 4.76214455146077E-02 
352	 4.55414496748656E-02 
353	 4.42670578770672E-02 
354	 4.48262235546934E-02 
355	 4.64893894376852E-02 
356	 4.67426800853566E-02 
357	 4.47330449197289E-02 
358	 4.64712370849905E-02 
359	 4.91474573336028E-02 
360	 4.76000376754079E-02 
361	 4.60033073258527E-02 
362	 4.56536608956379E-02 
363	 4.72349972966751E-02 
364	 4.82081160225625E-02 
365	 4.75181778759295E-02 
366	 4.82454937382471E-02 
367	 4.83290958498848E-02 
368	 4.46385501167472E-02 
369	 4.37352479668989E-02 
370	 4.56322376653342E-02 
371	 4.47839785815367E-02 
372	 4.43193539454252E-02 
373	 0.045669726949885 
374	 4.64651816671596E-02 
375	 4.69741430289764E-02 
376	 4.79081770485662E-02 
377	 4.80031041192844E-02 
378	 4.70829686487701E-02 
379	 4.53543930989737E-02 
380	 4.48158016363406E-02 
381	 4.61166512014776E-02 
382	 4.60276264122483E-02 
383	 4.55942336821505E-02 
384	 4.65905233133774E-02 
385	 0.047470803062983 
386	 4.78352699758839E-02 
387	 4.79533633695513E-02 
388	 4.71058984662692E-02 
389	 4.53268272689812E-02 
390	 4.40559154384473E-02 
391	 4.49795107321201E-02 
392	 4.96576141939186E-02 
393	 5.03731741313345E-02 
394	 4.73733314785204E-02 
395	 4.62709894156057E-02 
396	 4.64602508224392E-02 
397	 4.73508558874768E-02 
398	 4.70689869722119E-02 
399	 0.046160843586636 
400	 4.53597035429626E-02 
401	 4.58527914780665E-02 
402	 4.71030696623975E-02 
403	 4.73291043168721E-02 
404	 4.74156127573918E-02 
405	 4.77017493872767E-02 
406	 4.79922734520511E-02 
407	 4.81194161710538E-02 
408	 4.79059050238633E-02 
409	 4.75963618943772E-02 
410	 0.047277359618634 
411	 4.68459155874111E-02 
412	 4.71009950963068E-02 
413	 4.81489385924139E-02 
414	 4.81798495102646E-02 
415	 4.77639494064872E-02 
416	 4.78591061762537E-02 
417	 4.80114179464236E-02 
418	 4.82232315143935E-02 
419	 4.88737920390981E-02 
420	 4.91046491741544E-02 
421	 4.86026507051339E-02 
422	 4.86763225770839E-02 
423	 4.91507700664622E-02 
424	 4.95576227572701E-02 
425	 4.97014270337721E-02 
426	 4.96237016563097E-02 
427	 0.049714955100754 
428	 4.99127188334407E-02 
429	 5.01450894529362E-02 
430	 5.01957789635981E-02 
431	 5.01498807215644E-02 
432	 5.02357565112011E-02 
433	 4.96398502051985E-02 
434	 4.87506404695318E-02 
435	 4.96669840783443E-02 
436	 5.05131346235599E-02 
437	 5.01631344217035E-02 
438	 5.05537737969201E-02 
439	 5.12789320073731E-02 
440	 5.10936910804931E-02 
441	 5.09872648165374E-02 
442	 5.11696966311052E-02 
443	 5.11999315677277E-02 
444	 5.12478609937256E-02 
445	 0.051483364414414 
446	 5.21913151899521E-02 
447	 5.29187658858144E-02 
448	 5.25773419120989E-02 
449	 5.22297837692111E-02 
450	 5.22499972558526E-02 
451	 5.24580615180235E-02 
452	 5.28409871145563E-02 
453	 5.33542972829671E-02 
454	 5.33065438375473E-02 
455	 5.29203167302199E-02 
456	 5.32016636824837E-02 
457	 5.34643742389576E-02 
458	 5.35081024933539E-02 
459	 5.39153006728593E-02 
460	 5.41392378709912E-02 
461	 5.35203083515623E-02 
462	 5.33530812340729E-02 
463	 5.36921827329137E-02 
464	 5.36973358696548E-02 
465	 5.37686612857065E-02 
466	 5.40638735647488E-02 
467	 5.42754519640716E-02 
468	 5.43421872381118E-02 
469	 5.42263039321053E-02 
470	 5.44755176387723E-02 
471	 0.055012836687634 
472	 5.50259571365168E-02 
473	 5.50444695082588E-02 
474	 5.52919945422195E-02 
475	 5.45906289554916E-02 
476	 5.38014188081306E-02 
477	 5.47046864443529E-02 
478	 0.055014481603723 
479	 5.44914881784929E-02 
480	 5.51597787926327E-02 
481	 5.58513176950415E-02 
482	 5.56244129198725E-02 
483	 5.53594063624694E-02 
484	 5.52708604575832E-02 
485	 5.55138276046436E-02 
486	 5.56599902393322E-02 
487	 5.56350977695581E-02 
488	 0.056018720217858 
489	 5.63768821483789E-02 
490	 5.62483346179211E-02 
491	 5.56468745416913E-02 
492	 5.51439818628817E-02 
493	 5.62839873838932E-02 
494	 5.71724750254289E-02 
495	 0.057030756486442 
496	 5.67177989214921E-02 
497	 5.65654332571353E-02 
498	 5.68854526927998E-02 
499	 5.70055059401036E-02 
500	 5.69327371869788E-02 
501	 5.73407885313331E-02 
502	 5.76111282392059E-02 
503	 0.057447013078405 
504	 5.76195421156934E-02 
505	 5.80659496426954E-02 
506	 5.85279518178997E-02 
507	 5.88054599673645E-02 
508	 5.89132082537904E-02 
509	 0.059218275810686 
510	 5.95207089146747E-02 
511	 5.96649671442352E-02 
512	 5.98566781684564E-02 
513	 6.00805303393007E-02 
514	 6.02203004806531E-02 
515	 6.03276435089208E-02 
516	 6.04604693726159E-02 
517	 0.060801283105437 
518	 6.12209846779231E-02 
519	 6.15489209234175E-02 
520	 6.13549236087708E-02 
521	 6.11003903707904E-02 
522	 6.23181711743598E-02 
523	 6.31351786037347E-02 
524	 6.28680645491645E-02 
525	 6.32137706087544E-02 
526	 6.38056466881416E-02 
527	 6.38725608333905E-02 
528	 6.40020997776791E-02 
529	 6.42548788726948E-02 
530	 6.42834834521995E-02 
531	 6.44671025689471E-02 
532	 6.50074296082176E-02 
533	 6.53201739781143E-02 
534	 6.53531539025861E-02 
535	 6.51264631656145E-02 
536	 6.54149389986113E-02 
537	 0.06622090334378 
538	 6.62295511436477E-02 
539	 6.61157452603519E-02 
540	 6.65661310218221E-02 
541	 6.69314256757142E-02 
542	 0.067063176746229 
543	 6.68746603665252E-02 
544	 6.68785495239969E-02 
545	 6.72660940776487E-02 
546	 6.76899955874816E-02 
547	 6.79388879207146E-02 
548	 6.77925705303475E-02 
549	 6.77121986752808E-02 
550	 6.78980299347719E-02 
551	 6.85826793495912E-02 
552	 6.91611778533895E-02 
553	 6.92483136001147E-02 
554	 6.91477345804815E-02 
555	 6.90777430422955E-02 
556	 6.93466077876157E-02 
557	 6.96714822412005E-02 
558	 6.99116025347437E-02 
559	 6.98892154286962E-02 
560	 6.98997955740964E-02 
561	 7.01976223095482E-02 
562	 7.03306047298474E-02 
563	 7.03059178326361E-02 
564	 7.03602324873015E-02 
565	 0.070460724894869 
566	 7.05634221949532E-02 
567	 7.04740321591465E-02 
568	 7.02317665229846E-02 
569	 6.99131886660377E-02 
570	 7.00180702495703E-02 
571	 7.04805029220168E-02 
572	 7.06462227006187E-02 
573	 7.06305128678863E-02 
574	 7.05317292905137E-02 
575	 0.070636437925104 
576	 7.07501120699426E-02 
577	 7.04177500286987E-02 
578	 7.03359407725627E-02 
579	 7.05934137111208E-02 
580	 7.05453746424947E-02 
581	 7.03773132715608E-02 
582	 0.070294148922623 
583	 7.05528020383388E-02 
584	 0.07090116187696 
585	 7.05331698837205E-02 
586	 7.03303697971311E-02 
587	 7.05838681180349E-02 
588	 7.07139244814524E-02 
589	 7.06491201256164E-02 
590	 0.070375258362019 
591	 0.070248720940968 
592	 7.03047104836315E-02 
593	 0.070261606104823 
594	 7.05033651418584E-02 
595	 7.11276311460281E-02 
596	 7.10287416588399E-02 
597	 7.06002568274437E-02 
598	 7.07945091152792E-02 
599	 7.09765290107897E-02 
600	 7.09707029683439E-02 
601	 7.08708378465353E-02 
602	 7.07118741550287E-02 
603	 7.05444394564493E-02 
604	 7.06331389367763E-02 
605	 0.070786104769668 
606	 7.03159217885591E-02 
607	 7.02574521218078E-02 
608	 7.08807051931989E-02 
609	 7.11087399601997E-02 
610	 7.09170913128665E-02 
611	 7.04172401664777E-02 
612	 7.01443706907544E-02 
613	 7.02021882942357E-02 
614	 7.04037601652891E-02 
615	 7.04807549304714E-02 
616	 7.02795448547681E-02 
617	 7.00784913392637E-02 
618	 6.99892871397469E-02 
619	 7.01370099288392E-02 
620	 7.01372049479726E-02 
621	 6.99579920741727E-02 
622	 0.070060422645922 
623	 7.00666970959191E-02 
624	 0.069675050410782 
625	 0.069765343839804 
626	 7.01142738165917E-02 
627	 6.96391862918301E-02 
628	 6.95744107628092E-02 
629	 7.01944926560715E-02 
630	 6.99694753348735E-02 
631	 6.96171093540496E-02 
632	 7.01698129199811E-02 
633	 7.04375535652375E-02 
634	 0.070271860390545 
635	 0.070158575705533 
636	 7.00931086410274E-02 
637	 7.00691824477974E-02 
638	 6.99538141402826E-02 
639	 6.98025575177813E-02 
640	 6.97159026524257E-02 
641	 7.00596992501192E-02 
642	 7.06483669836631E-02 
643	 7.01546473140898E-02 
644	 6.97545022509563E-02 
645	 7.04229956423283E-02 
646	 7.03334508193394E-02 
647	 6.96321405954842E-02 
648	 6.96079083160748E-02 
649	 6.96298510013718E-02 
650	 6.95051600205932E-02 
651	 6.94861541548038E-02 
652	 6.94541994500441E-02 
653	 6.92518556960483E-02 
654	 6.92701592142121E-02 
655	 6.94071902881503E-02 
656	 6.89515625885638E-02 
657	 0.068545137859073 
658	 6.84886091837117E-02 
659	 6.78533576518666E-02 
660	 6.71004937226975E-02 
661	 6.71459579453389E-02 
662	 6.69668837129593E-02 
663	 0.066430864344311 
664	 0.066302570304665 
665	 6.62196969394744E-02 
666	 6.58768131230829E-02 
667	 6.55645678388233E-02 
668	 6.53810718937637E-02 
669	 6.55045782839363E-02 
670	 6.52642944660503E-02 
671	 6.46315495897252E-02 
672	 0.064985758641272 
673	 6.55673904124957E-02 
674	 6.54069424948152E-02 
675	 6.53393766294595E-02 
676	 6.54782688793565E-02 
677	 6.55845873494737E-02 
678	 6.57092156686659E-02 
679	 6.58925806220919E-02 
680	 6.62505408352332E-02 
681	 6.66469325516326E-02 
682	 6.68458905751598E-02 
683	 6.71699197903016E-02 
684	 6.76721709520632E-02 
685	 6.82225730224654E-02 
686	 6.87110607673427E-02 
687	 6.90387875248375E-02 
688	 6.94728511724759E-02 
689	 7.00916840085531E-02 
690	 0.071031253640413 
691	 7.19250456856977E-02 
692	 7.27007057803789E-02 
693	 7.35900109330822E-02 
694	 7.45402706479727E-02 
695	 0.075442734044283 
696	 7.63471041597635E-02 
697	 7.71790499075288E-02 
698	 7.77158338265203E-02 
699	 7.83359897653165E-02 
700	 7.91629045991115E-02 
701	 7.97217242505885E-02 
702	 8.02185472896632E-02 
703	 8.10061772425539E-02 
704	 8.16396124762182E-02 
705	 8.21243417876169E-02 
706	 8.29043833725379E-02 
707	 8.34210884943692E-02 
708	 8.33757399215866E-02 
709	 8.34780593103898E-02 
710	 8.38821197518141E-02 
711	 8.46639485535392E-02 
712	 8.54706020632926E-02 
713	 8.61571510725433E-02 
714	 8.67814394317573E-02 
715	 0.087204020416169 
716	 0.087334555078041 
717	 8.77169956219257E-02 
718	 8.83496413380251E-02 
719	 0.088744844905253 
720	 8.88015759742293E-02 
721	 0.0886601284764 
722	 8.90362679499933E-02 
723	 8.95398620345999E-02 
724	 8.96765083693299E-02 
725	 8.99294871635557E-02 
726	 9.03850776222252E-02 
727	 9.11035211561937E-02 
728	 9.13810657462411E-02 
729	 9.09441985688652E-02 
730	 9.05883207966686E-02 
731	 9.06457105324488E-02 
732	 9.13979167300785E-02 
733	 9.17216702151692E-02 
734	 9.15500138326247E-02 
735	 9.16197358773207E-02 
736	 9.17727577444734E-02 
737	 9.19261885223883E-02 
738	 9.23152477903716E-02 
739	 9.27495013124078E-02 
740	 9.28140799645523E-02 
741	 9.30200669160801E-02 
742	 0.093386717350277 
743	 9.33548102924949E-02 
744	 9.30298399863366E-02 
745	 9.25866025204851E-02 
746	 0.092866682196034 
747	 0.093557558424021 
748	 9.35448902868702E-02 
749	 9.35884568772076E-02 
750	 9.38303477535283E-02 
751	 9.35572222510873E-02 
752	 9.33767183978501E-02 
753	 9.39355086394051E-02 
754	 0.094217755172882 
755	 9.41407404938395E-02 
756	 9.41061879334917E-02 
757	 9.40390582041944E-02 
758	 0.093981374606282 
759	 9.45024227962125E-02 
760	 9.55776402786965E-02 
761	 9.57564180864878E-02 
762	 0.095557220419246 
763	 9.54516453381004E-02 
764	 9.58397328697507E-02 
765	 9.60970809686703E-02 
766	 9.60410246556355E-02 
767	 9.59565246688719E-02 
768	 9.59685747219073E-02 
769	 9.62110708723935E-02 
770	 9.63705401018804E-02 
771	 9.62912276238076E-02 
772	 9.56963928062078E-02 
773	 9.52975175441559E-02 
774	 9.55393176924693E-02 
775	 9.57288300149106E-02 
776	 9.59819244851638E-02 
777	 0.096746005039572 
778	 9.68874059985827E-02 
779	 9.63300355466294E-02 
780	 9.62825316364801E-02 
781	 9.65914525492124E-02 
782	 9.70524379466518E-02 
783	 9.71233929357024E-02 
784	 9.69418131213271E-02 
785	 9.69956137064597E-02 
786	 9.72286703758517E-02 
787	 9.75333132936954E-02 
788	 9.73925521406269E-02 
789	 9.73197474076051E-02 
790	 9.77797600742788E-02 
791	 9.81034862842658E-02 
792	 9.82389428446505E-02 
793	 9.83895303374092E-02 
794	 9.84698986349112E-02 
795	 9.84753217814701E-02 
796	 9.85032570926772E-02 
797	 0.098504398699552 
798	 9.84299188440253E-02 
799	 9.83847946024881E-02 
800	 0.098397157296636 
801	 9.84378011889183E-02 
802	 9.87390636386208E-02 
803	 9.92455417424188E-02 
804	 9.91895290898938E-02 
805	 9.88674508972758E-02 
806	 9.86788555914936E-02 
807	 9.88225546163514E-02 
808	 9.91993855820318E-02 
809	 9.93912040378299E-02 
810	 9.95024188181671E-02 
811	 9.95640798379299E-02 
812	 9.95838001159612E-02 
813	 9.95659432624099E-02 
814	 9.95292406552104E-02 
815	 0.100012144196639 
816	 0.100873393122597 
817	 0.101381540813684 
818	 0.100971648131271 
819	 9.98240887573985E-02 
820	 0.100223576891717 
821	 0.10121750113054 
822	 0.101474689946731 
823	 0.101039922674224 
824	 0.100466922836417 
825	 0.101357423396598 
826	 0.101885297491763 
827	 0.101430636556771 
828	 0.101404890285602 
829	 0.101197034701876 
830	 0.099997384640972 
831	 0.100256885149747 
832	 0.101618140186289 
833	 0.101495414340272 
834	 0.101200607691667 
835	 0.101305432551334 
836	 0.10181219848021 
837	 0.102255917742702 
838	 0.102122703368358 
839	 0.101714715201892 
840	 0.10125312628423 
841	 0.101013653428688 
842	 0.101478819746428 
843	 0.10256621004402 
844	 0.102538372801903 
845	 0.102049149737044 
846	 0.102000780367374 
847	 0.10217950995869 
848	 0.10222657269808 
849	 0.101061741569364 
850	 0.100680555074958 
851	 0.101647794003054 
852	 0.101867343391628 
853	 0.101790782501029 
854	 0.102059291537519 
855	 0.102144088657174 
856	 0.102071398846589 
857	 0.102102806698075 
858	 0.102396626222774 
859	 0.102792954790437 
860	 0.102085295768007 
861	 0.101662303521412 
862	 0.102791642411275 
863	 0.103488856251099 
864	 0.10348904097155 
865	 0.103063228657432 
866	 0.102845828752062 
867	 0.10300878454887 
868	 0.102982459435517 
869	 0.102992755567315 
870	 0.103236478728958 
871	 0.103669791038841 
872	 0.104020285205688 
873	 0.103771052430633 
874	 0.103939883438395 
875	 0.104351293255973 
876	 0.102878733006736 
877	 0.101765937171331 
878	 0.102497960834726 
879	 0.103154767788139 
880	 0.103645036260255 
881	 0.104300702538567 
882	 0.103783863088833 
883	 0.102429540393068 
884	 0.102678865617634 
885	 0.103046409189098 
886	 0.102845143575818 
887	 0.10347490631335 
888	 0.104436290155784 
889	 0.104893779314166 
890	 0.10477599451331 
891	 0.10433575757419 
892	 0.104456224155199 
893	 0.104583970341812 
894	 0.104501143456048 
895	 0.10450380576232 
896	 0.104588818943137 
897	 0.104683715577212 
898	 0.104050239655694 
899	 0.103188115925488 
900	 0.103759054206084 
901	 0.10376225597998 
902	 0.10301756286543 
903	 0.103775583507684 
904	 0.104939390057825 
905	 0.105514635620152 
906	 0.104894615519553 
907	 0.104486822768076 
908	 0.106974765563241 
909	 0.108322170778099 
910	 0.107728584791327 
911	 0.107120440584858 
912	 0.106924830762471 
913	 0.10738485589792 
914	 0.108025898710816 
915	 0.108417557241329 
916	 0.108163255104719 
917	 0.108769408327286 
918	 0.109204414811284 
919	 0.105409546100628 
920	 0.104405930801263 
921	 0.107499454009759 
922	 0.107382247074469 
923	 0.106340202866039 
924	 0.106674325728481 
925	 0.10699093167896 
926	 0.106972336487042 
927	 0.10631219200759 
928	 0.106754176806937 
929	 0.107969716073842 
930	 0.104789801076784 
931	 0.101959123968519 
932	 0.103052090821261 
933	 0.100789504030561 
934	 0.099328153277879 
935	 0.105688785281669 
936	 0.110965779911355 
937	 0.112313787363706 
938	 0.109245107760442 
939	 0.104171001954017 
940	 0.100063058211658 
941	 0.105554264205999 
942	 0.108078711974311 
943	 0.100050549800724 
944	 0.10028126471627 
945	 0.106064811290066 
946	 0.109127650270141 
947	 0.111407711602158 
948	 0.11357227711687 
949	 0.117960014788422 
950	 0.117774860652558 
951	 0.112121696114722 
952	 0.113325531659441 
953	 0.114361704649994 
954	 0.108928871167099 
955	 0.108343368103969 
956	 0.110782025750179 
957	 0.1097663824358 
958	 0.109001002690965 
959	 0.107769784769187 
960	 9.96141491180283E-02 
961	 9.79394208848288E-02 
962	 0.106846996454178 
963	 0.11091598955798 
964	 0.112121358000461 
965	 0.113416897754719 
966	 0.111547822107964 
967	 0.10793776876075 
968	 0.106088002580545 
969	 0.103241710417102 
970	 0.100567699315048 
971	 0.105130676780457 
972	 0.108653236952699 
973	 0.106951658701219 
974	 0.104327976354378 
975	 0.104750485055152 
976	 0.111237691404892 
977	 0.109778342418692 
978	 0.102945194882636 
979	 0.102206723129197 
980	 0.103391650310711 
981	 0.105214525051383 
982	 0.106993011134483 
983	 0.109174277256409 
984	 0.111435752165423 
985	 0.110467716408935 
986	 0.109424402194203 
987	 0.111676206309825 
988	 0.113206489580801 
989	 0.112404264396593 
990	 0.107486546702229 
991	 0.105172486123001 
992	 0.106586778083384 
993	 0.107486957394969 
994	 0.109105300492071 
995	 0.110993827480678 
996	 0.107117640858571 
997	 0.105342200327928 
998	 0.11252936346655 
999	 0.111233710510656 
1000	 0.106684148956207 
1001	 0.113057877420762 
1002	 0.108669041867628 
1003	 9.59339385982537E-02 
1004	 0.10169274963819 
1005	 0.107964648366602 
1006	 0.107319026705491 
1007	 0.101073926706878 
1008	 0.100510211586456 
1009	 0.11189245718359 
1010	 0.112471057176764 
1011	 0.106164192919531 
1012	 0.102666734602292 
1013	 0.101566724146139 
1014	 0.102843515556639 
1015	 0.105831821323245 
1016	 0.10877272778447 
1017	 0.110363525330417 
1018	 0.10892451820362 
1019	 0.107001492667248 
1020	 0.106654581880798 
1021	 0.110890228440212 
1022	 0.114092369324523 
1023	 0.111161274002656 
1024	 0.109943927986809 
1025	 0.107885999002913 
1026	 9.87918603953969E-02 
1027	 0.102291410223585 
1028	 0.113139784609114 
1029	 9.87489475237665E-02 
1030	 9.51609021103656E-02 
1031	 0.108866616536968 
1032	 0.107580321296084 
1033	 0.10696035423691 
1034	 0.115076479170809 
1035	 0.113904935066481 
1036	 0.109851847557556 
1037	 0.11049928620876 
1038	 0.106205296819994 
1039	 0.101807616128961 
1040	 0.107815830871755 
1041	 0.120442359195816 
1042	 0.130431755657819 
1043	 0.116308091831875 
1044	 0.106317298852227 
1045	 0.109991617879644 
1046	 0.116547541837347 
1047	 0.108622760250031 
1048	 8.35321127045287E-02 
1049	 0.099332403444118 
1050	 0.122196557633559 
1051	 0.11855633053291 
1052	 0.114192760087739 
1053	 0.109324906075637 
1054	 9.93501229419442E-02 
1055	 0.099352040880032 
1056	 0.108707515472684 
1057	 0.118041992089747 
1058	 0.122720416146693 
1059	 0.118967438639769 
1060	 0.104704101921153 
1061	 7.05009036564609E-02 
1062	 2.74171447323103E-02 
1063	 7.44327795664832E-02 
1064	 0.120197342008435 
1065	 0.102182085089707 
1066	 0.110840523708414 
1067	 0.126578254371189 
1068	 0.121121419846837 
1069	 0.116340748789296 
1070	 0.109252399970654 
1071	 8.94619321706336E-02 
1072	 7.56716841379388E-02 
1073	 0.069979113182115 
1074	 0.06415419176843 
1075	 7.28786581928313E-02 
