Wavelength	A00151.asd
325	 0.056617458751135 
326	 6.05341619627186E-02 
327	 6.37240576861643E-02 
328	 5.71146581324632E-02 
329	 5.21566471341444E-02 
330	 0.052894508815956 
331	 5.56336695571513E-02 
332	 5.90111427209048E-02 
333	 0.061752588022669 
334	 6.11156668855002E-02 
335	 5.87610994551783E-02 
336	 5.91116597032184E-02 
337	 6.01048285854457E-02 
338	 6.15139665890407E-02 
339	 6.63176856160746E-02 
340	 6.63959072053448E-02 
341	 5.66959172249717E-02 
342	 0.056843913943778 
343	 0.062618777205973 
344	 6.08635213727231E-02 
345	 5.71838095996223E-02 
346	 0.054258109161189 
347	 5.64637112435346E-02 
348	 5.94562724135858E-02 
349	 6.01654749894074E-02 
350	 5.95482514306282E-02 
351	 0.057548345668459 
352	 5.36926864466086E-02 
353	 5.13053155994508E-02 
354	 5.14602596079288E-02 
355	 5.46136999445416E-02 
356	 5.60776113128366E-02 
357	 5.37253998892575E-02 
358	 5.47055688548331E-02 
359	 0.056756051906013 
360	 5.52467456005303E-02 
361	 5.43438612922397E-02 
362	 5.50469097591643E-02 
363	 5.74291567650987E-02 
364	 5.78695332015282E-02 
365	 0.055229332512582 
366	 5.55870149293443E-02 
367	 5.68179936789988E-02 
368	 5.52647211518498E-02 
369	 5.53068087742224E-02 
370	 5.67233312658865E-02 
371	 5.50886683219971E-02 
372	 5.47566271192543E-02 
373	 5.75644286848736E-02 
374	 5.86169401097291E-02 
375	 5.87400522465856E-02 
376	 5.97944206324586E-02 
377	 5.90359176368967E-02 
378	 5.68134034075578E-02 
379	 0.056071457591716 
380	 5.62857983900697E-02 
381	 5.70566586291634E-02 
382	 5.73576072240185E-02 
383	 5.75945148991975E-02 
384	 5.84432591960662E-02 
385	 5.89104067800275E-02 
386	 5.87830824570102E-02 
387	 5.81848648267229E-02 
388	 5.79871864987676E-02 
389	 0.058388017008752 
390	 5.78095715454943E-02 
391	 5.75383431407969E-02 
392	 5.91301490620783E-02 
393	 5.86473934109905E-02 
394	 5.67459618470233E-02 
395	 5.78599834253836E-02 
396	 5.82934113302769E-02 
397	 5.69627086774693E-02 
398	 5.69727576528039E-02 
399	 5.68922142414554E-02 
400	 5.51490538927912E-02 
401	 5.55488627920446E-02 
402	 5.74701449229836E-02 
403	 0.057839612619635 
404	 5.78183301635281E-02 
405	 5.79025689752677E-02 
406	 5.81595818156781E-02 
407	 5.85394498915462E-02 
408	 0.058952372860707 
409	 5.89264815567185E-02 
410	 5.85372467354483E-02 
411	 5.82133681726301E-02 
412	 5.83286855009719E-02 
413	 5.89461840872954E-02 
414	 5.92630541702986E-02 
415	 5.92853816885417E-02 
416	 5.91414778018437E-02 
417	 5.89526163210959E-02 
418	 5.88710176043004E-02 
419	 5.92138301670755E-02 
420	 5.95507469777339E-02 
421	 5.96825303808649E-02 
422	 6.00568978610626E-02 
423	 6.03971553872699E-02 
424	 6.02299621334767E-02 
425	 0.060604788368395 
426	 6.14440127484055E-02 
427	 6.14787360386816E-02 
428	 6.12711496430639E-02 
429	 0.061210124304371 
430	 6.12519665481789E-02 
431	 6.13676978950425E-02 
432	 6.15115285744137E-02 
433	 6.14405511651885E-02 
434	 6.12562908220373E-02 
435	 6.15312501445595E-02 
436	 6.19065856623078E-02 
437	 0.062161161840859 
438	 0.062641532404269 
439	 6.31262327981353E-02 
440	 6.31206993795826E-02 
441	 6.32918634567012E-02 
442	 6.36758463240315E-02 
443	 6.35244185679566E-02 
444	 6.33027483547285E-02 
445	 6.34239140733643E-02 
446	 6.39319723789704E-02 
447	 6.45966075215073E-02 
448	 6.49534696836077E-02 
449	 6.49862223172993E-02 
450	 6.48014470685837E-02 
451	 0.064977201338656 
452	 6.53255797587697E-02 
453	 6.56263487835242E-02 
454	 6.59838100869161E-02 
455	 6.62794798415455E-02 
456	 6.61659468482761E-02 
457	 6.60023916753453E-02 
458	 6.60053229622786E-02 
459	 6.64360180875071E-02 
460	 6.68353694972754E-02 
461	 6.66551605970993E-02 
462	 6.66167018869449E-02 
463	 6.67659694038631E-02 
464	 6.66576965678478E-02 
465	 6.67744152396037E-02 
466	 6.72733431436009E-02 
467	 6.73954433210678E-02 
468	 6.73305741823242E-02 
469	 0.067481048079137 
470	 6.77223264431397E-02 
471	 6.79553885340453E-02 
472	 6.79599543061877E-02 
473	 6.78299424075728E-02 
474	 6.76800557247223E-02 
475	 6.79000581737597E-02 
476	 6.82322362096315E-02 
477	 6.81522613991365E-02 
478	 6.78288587292209E-02 
479	 6.75367863415715E-02 
480	 0.06812795152923 
481	 6.88792869021216E-02 
482	 6.91886250640974E-02 
483	 6.93482202116637E-02 
484	 6.94621611410544E-02 
485	 6.96987073311308E-02 
486	 6.97283952319244E-02 
487	 6.95405793653778E-02 
488	 6.97704279069997E-02 
489	 6.99337027998194E-02 
490	 6.95360257728756E-02 
491	 6.91636804699457E-02 
492	 6.90765635513768E-02 
493	 6.96364047500709E-02 
494	 7.02039033956812E-02 
495	 7.04573354163995E-02 
496	 0.070398724743599 
497	 7.04212409229813E-02 
498	 0.071023923844146 
499	 7.13339948452877E-02 
500	 7.12450248123882E-02 
501	 7.11425525333289E-02 
502	 7.13202608438241E-02 
503	 7.19050690833826E-02 
504	 7.24009068154404E-02 
505	 7.26283663790923E-02 
506	 7.23971053555544E-02 
507	 7.25065305087862E-02 
508	 7.30288027625538E-02 
509	 7.31997939444816E-02 
510	 7.33199799448087E-02 
511	 7.36225725257972E-02 
512	 7.37389594547951E-02 
513	 7.37859177964249E-02 
514	 7.41903844888228E-02 
515	 7.44978432806148E-02 
516	 7.45682012310354E-02 
517	 7.46122977870739E-02 
518	 7.47455941103588E-02 
519	 7.50476831123732E-02 
520	 7.47897768317587E-02 
521	 7.43559587600487E-02 
522	 7.51879647727853E-02 
523	 7.58914962139211E-02 
524	 7.59165639293167E-02 
525	 0.07620967149524 
526	 7.66309334655723E-02 
527	 7.68514634557543E-02 
528	 0.076851959865107 
529	 7.67624755606006E-02 
530	 7.70122898853009E-02 
531	 0.07742401441777 
532	 7.78481726737788E-02 
533	 7.80768696955972E-02 
534	 7.81801443963482E-02 
535	 7.83495078442933E-02 
536	 7.86797421067308E-02 
537	 7.90898906681482E-02 
538	 7.90070850857385E-02 
539	 7.89402768676643E-02 
540	 7.93760246884389E-02 
541	 7.96174446803087E-02 
542	 7.96167136235596E-02 
543	 7.95947219914679E-02 
544	 7.97573053516387E-02 
545	 8.01391524406554E-02 
546	 8.02854351087363E-02 
547	 8.03564134366157E-02 
548	 8.06163259922853E-02 
549	 8.07139242825142E-02 
550	 8.07126772789089E-02 
551	 8.11180599797932E-02 
552	 8.15563951353307E-02 
553	 8.17737385161921E-02 
554	 8.17778184919416E-02 
555	 8.17425945325072E-02 
556	 8.19870455595674E-02 
557	 8.22265896413857E-02 
558	 8.23638713558866E-02 
559	 8.24020613208068E-02 
560	 8.24547138838419E-02 
561	 8.26231164159481E-02 
562	 8.28208978661057E-02 
563	 8.30017025760182E-02 
564	 8.31056758771142E-02 
565	 8.31404531966924E-02 
566	 8.31320676239915E-02 
567	 8.32021868278819E-02 
568	 8.33329274935403E-02 
569	 8.34847997579578E-02 
570	 8.38530621274602E-02 
571	 8.42856313632285E-02 
572	 8.41369888116749E-02 
573	 0.083959655480914 
574	 8.41182585085643E-02 
575	 8.46488034282883E-02 
576	 8.50963661542094E-02 
577	 8.45989759486448E-02 
578	 8.44845919800242E-02 
579	 8.49558749024901E-02 
580	 8.49012981813822E-02 
581	 8.46632873375361E-02 
582	 8.45863496385949E-02 
583	 8.46352986520647E-02 
584	 8.47778885529812E-02 
585	 8.49622187244821E-02 
586	 8.50086915716417E-02 
587	 8.48577222521479E-02 
588	 8.46891197203397E-02 
589	 8.46334653058942E-02 
590	 8.48286077888256E-02 
591	 8.47998874988323E-02 
592	 8.45856660689504E-02 
593	 0.084679262018709 
594	 8.49296843183843E-02 
595	 0.085204626858086 
596	 8.51678952119144E-02 
597	 8.50495429321244E-02 
598	 8.53545225810264E-02 
599	 8.54249879933733E-02 
600	 8.51664639790506E-02 
601	 8.50960894386123E-02 
602	 8.51068474905224E-02 
603	 8.51067965857378E-02 
604	 8.54549709243081E-02 
605	 8.58326356785483E-02 
606	 8.52046669502587E-02 
607	 8.50086916819579E-02 
608	 8.56578141505778E-02 
609	 8.58551459647505E-02 
610	 8.55439459722107E-02 
611	 8.48235930577072E-02 
612	 8.49330576256437E-02 
613	 8.57166018528456E-02 
614	 8.55063501079047E-02 
615	 8.53052443279948E-02 
616	 8.56410558772007E-02 
617	 0.085609027452649 
618	 8.52790014937715E-02 
619	 8.49374803843433E-02 
620	 8.51105593940312E-02 
621	 0.085674704669177 
622	 8.53175912182938E-02 
623	 8.47884289895662E-02 
624	 8.47894630511198E-02 
625	 8.47830040609762E-02 
626	 8.48020653689934E-02 
627	 8.52097799786069E-02 
628	 8.54612547659983E-02 
629	 8.53932644088673E-02 
630	 8.55090586432684E-02 
631	 8.56984223385388E-02 
632	 8.57714633587558E-02 
633	 8.58882868444376E-02 
634	 8.60039430112414E-02 
635	 8.58498266224751E-02 
636	 8.57270461172352E-02 
637	 8.57924361686659E-02 
638	 8.56847816720981E-02 
639	 8.56482614462283E-02 
640	 0.086222163858282 
641	 8.65177242285859E-02 
642	 8.63267868312898E-02 
643	 8.60746307153915E-02 
644	 8.60193886241971E-02 
645	 8.63507522283605E-02 
646	 8.66449230768845E-02 
647	 8.67089070211172E-02 
648	 0.086256024507477 
649	 8.59306380121335E-02 
650	 8.59604959578143E-02 
651	 8.58748189099136E-02 
652	 8.58101333101117E-02 
653	 8.59690368051566E-02 
654	 8.60602775258127E-02 
655	 8.60704907783788E-02 
656	 8.62931782012147E-02 
657	 0.086179327784813 
658	 8.55059246540836E-02 
659	 8.49411991688128E-02 
660	 8.46799397961427E-02 
661	 8.49556539207535E-02 
662	 0.084599995328398 
663	 0.083610404031274 
664	 8.35303817808923E-02 
665	 8.37831641920476E-02 
666	 8.38045403743445E-02 
667	 0.08325172851674 
668	 0.082536470701822 
669	 8.29018371053384E-02 
670	 8.28442862861481E-02 
671	 8.20752057690576E-02 
672	 8.22924634812893E-02 
673	 8.28055183076427E-02 
674	 8.26887471102934E-02 
675	 8.24464750899368E-02 
676	 0.082324588477493 
677	 8.27484349366063E-02 
678	 8.30993924007275E-02 
679	 8.30760924565153E-02 
680	 8.31781939151721E-02 
681	 0.083313401403004 
682	 8.32195263223867E-02 
683	 8.35913730103247E-02 
684	 8.43921662605352E-02 
685	 8.46946761652491E-02 
686	 8.48527842414869E-02 
687	 8.51711901578311E-02 
688	 8.54207606506393E-02 
689	 8.57595913864697E-02 
690	 8.67146883255641E-02 
691	 8.71577352201548E-02 
692	 8.70116549884578E-02 
693	 8.77952757461962E-02 
694	 8.87033823891993E-02 
695	 8.88130762332374E-02 
696	 0.089094408724798 
697	 8.95882568166929E-02 
698	 8.98882513726959E-02 
699	 9.01320658534039E-02 
700	 9.03649912925821E-02 
701	 9.04870619022058E-02 
702	 9.07199112475674E-02 
703	 0.091376312325794 
704	 9.14444690522221E-02 
705	 9.09989576639084E-02 
706	 9.12188934682965E-02 
707	 0.091359163791548 
708	 9.10257875472121E-02 
709	 9.12040780956784E-02 
710	 9.16907745803011E-02 
711	 9.18645577439481E-02 
712	 9.20133936398358E-02 
713	 9.22051359475359E-02 
714	 0.092400723138069 
715	 9.25837632869697E-02 
716	 9.27583213145867E-02 
717	 0.093061746257775 
718	 9.35029456032068E-02 
719	 9.40014439223438E-02 
720	 9.40649968681299E-02 
721	 9.36755803905092E-02 
722	 9.34912144691115E-02 
723	 9.33215473818529E-02 
724	 9.29398965972589E-02 
725	 9.32876990099519E-02 
726	 9.41504596229043E-02 
727	 9.42752748020863E-02 
728	 9.42078657314449E-02 
729	 9.42054093787284E-02 
730	 9.41252117343436E-02 
731	 9.40809670558505E-02 
732	 9.42284213964496E-02 
733	 9.43611947215776E-02 
734	 9.44664732504522E-02 
735	 9.46776131252415E-02 
736	 9.49157043593629E-02 
737	 9.51119215301951E-02 
738	 9.52463487342549E-02 
739	 9.52844875022865E-02 
740	 9.51584549106392E-02 
741	 9.51408646749672E-02 
742	 9.52633424193086E-02 
743	 9.52518183435603E-02 
744	 9.51750466195827E-02 
745	 9.51043092745202E-02 
746	 9.50579073657519E-02 
747	 9.51056291309666E-02 
748	 9.54059245684549E-02 
749	 9.57220749247197E-02 
750	 9.58753820357477E-02 
751	 9.54445446012623E-02 
752	 9.51860516497099E-02 
753	 9.58706928800365E-02 
754	 9.61457971107678E-02 
755	 9.59463600894029E-02 
756	 9.59352776925344E-02 
757	 9.59157141147108E-02 
758	 0.095856785595388 
759	 9.60485104676203E-02 
760	 9.69371263835654E-02 
761	 9.86326152397949E-02 
762	 0.099102607754623 
763	 0.098445285167913 
764	 9.80232713118337E-02 
765	 9.78657300798944E-02 
766	 9.79189395833618E-02 
767	 9.78017647912921E-02 
768	 9.76311063331703E-02 
769	 9.75739400313591E-02 
770	 9.76173473796235E-02 
771	 9.76995442919758E-02 
772	 9.75605041803078E-02 
773	 9.75979829620803E-02 
774	 9.80048544007982E-02 
775	 9.79591915968695E-02 
776	 9.77825559183286E-02 
777	 0.098286807158206 
778	 9.85371011232739E-02 
779	 9.82983009025692E-02 
780	 9.78186943420467E-02 
781	 0.097578707500179 
782	 9.79465563462832E-02 
783	 9.86158848420564E-02 
784	 9.92839968860444E-02 
785	 9.94954763399341E-02 
786	 9.93724196778045E-02 
787	 9.90444189560959E-02 
788	 9.88616465599289E-02 
789	 9.89839349521679E-02 
790	 9.94937742691006E-02 
791	 9.97785451385442E-02 
792	 9.97828176763455E-02 
793	 9.96885452673909E-02 
794	 9.96174517328843E-02 
795	 9.96175648646412E-02 
796	 9.95663107354646E-02 
797	 9.95791755444146E-02 
798	 9.97560041311569E-02 
799	 9.96714675500361E-02 
800	 9.95015034371806E-02 
801	 9.99825925922338E-02 
802	 0.10028892218533 
803	 0.100183812287279 
804	 0.100352246417634 
805	 0.100509624328508 
806	 0.10031239203244 
807	 0.100012850115214 
808	 9.99048116711745E-02 
809	 0.100699928507789 
810	 0.101307911810005 
811	 0.101272583912703 
812	 0.101170476372649 
813	 0.101135756806654 
814	 0.101285236259036 
815	 0.101595462418691 
816	 0.102011657576471 
817	 0.102526550142483 
818	 0.102333091810347 
819	 0.101355369903872 
820	 0.10113292042277 
821	 0.101317923420913 
822	 0.101363854308586 
823	 0.101325794508723 
824	 0.101344397216537 
825	 0.101866042115826 
826	 0.102204125294116 
827	 0.10208342491581 
828	 0.101815965282779 
829	 0.101386647657217 
830	 0.100789533201504 
831	 0.101240034728599 
832	 0.102418168626425 
833	 0.102744565635607 
834	 0.102487949201468 
835	 0.101970640270834 
836	 0.102548200091167 
837	 0.103033250701935 
838	 0.102024084695995 
839	 0.101394592207144 
840	 0.101360483814403 
841	 0.101217740951923 
842	 0.101567237460398 
843	 0.102491212350603 
844	 0.103169747537059 
845	 0.10307005340711 
846	 0.101796952149834 
847	 0.101869010549369 
848	 0.10298669173116 
849	 0.102600129820268 
850	 0.102406464217359 
851	 0.10287860018488 
852	 0.102751244178522 
853	 0.102169357705411 
854	 0.101463431028103 
855	 0.101555339094233 
856	 0.102142616892809 
857	 0.101924454322375 
858	 0.102135948118632 
859	 0.102822554076136 
860	 0.101912073335949 
861	 0.101578438781164 
862	 0.103723711928296 
863	 0.103940383405236 
864	 0.102750485447451 
865	 0.103443954847059 
866	 0.103566004672897 
867	 0.102685725067588 
868	 0.102670442788858 
869	 0.102806038010605 
870	 0.102553761403817 
871	 0.103154572539906 
872	 0.104230081571174 
873	 0.104733836189283 
874	 0.105038114904283 
875	 0.104984644549794 
876	 0.103494385203052 
877	 0.102613648759625 
878	 0.103593378307471 
879	 0.103858818947299 
880	 0.103828407340249 
881	 0.104798025418544 
882	 0.104609906919493 
883	 0.103258718643299 
884	 0.102771918173077 
885	 0.10276366605289 
886	 0.103021658561331 
887	 0.103501532803652 
888	 0.103997455325786 
889	 0.104282620793155 
890	 0.105196479161231 
891	 0.106052959961177 
892	 0.103963628659591 
893	 0.102449616802942 
894	 0.103163640738774 
895	 0.104413929688078 
896	 0.105881930070833 
897	 0.107196601522605 
898	 0.106875244863557 
899	 0.10557027317475 
900	 0.105733453040052 
901	 0.105833038955792 
902	 0.105448250499887 
903	 0.104897792634934 
904	 0.104522164811388 
905	 0.104592745704878 
906	 0.104942561273669 
907	 0.105851507147393 
908	 0.107929563508852 
909	 0.108163543968291 
910	 0.10647110166798 
911	 0.106089833926781 
912	 0.107251118232053 
913	 0.109528373401645 
914	 0.109406869093895 
915	 0.107837614750533 
916	 0.106564691744489 
917	 0.107482291104976 
918	 0.109194590086887 
919	 0.106608023102458 
920	 0.105554592088363 
921	 0.107346315543264 
922	 0.107091405606818 
923	 0.107253954884433 
924	 0.109823478968899 
925	 0.108916464755792 
926	 0.106195187165775 
927	 0.107578268470182 
928	 0.109394946471995 
929	 0.110001791681432 
930	 0.107699671003967 
931	 0.105785876961474 
932	 0.106769450931003 
933	 0.105408775375827 
934	 0.10383183279192 
935	 0.106213022549835 
936	 0.113368424315243 
937	 0.12025640898089 
938	 0.114496505087686 
939	 0.10998249619179 
940	 0.110576480403126 
941	 0.112365494117455 
942	 0.110655154031168 
943	 0.103616316696221 
944	 0.106090972303979 
945	 0.113681268355931 
946	 0.116518430221896 
947	 0.117109944229666 
948	 0.116647359805217 
949	 0.117613854209083 
950	 0.119288856648383 
951	 0.120591189222638 
952	 0.117601504273701 
953	 0.113955434792917 
954	 0.11312321508851 
955	 0.112412343327095 
956	 0.113699685013349 
957	 0.121373153399958 
958	 0.120242638315871 
959	 0.110885501606627 
960	 0.108012484200187 
961	 0.109599791151293 
962	 0.113705609107909 
963	 0.116095099423439 
964	 0.116100754015311 
965	 0.113691687539136 
966	 0.111233324403377 
967	 0.109494760047892 
968	 0.109037070723358 
969	 0.105982206133 
970	 0.101484957782014 
971	 0.103732527960347 
972	 0.108225335810417 
973	 0.111826117970368 
974	 0.111719471482819 
975	 0.113013375203464 
976	 0.120649405444741 
977	 0.117182693201781 
978	 0.107452454915447 
979	 0.109230653287855 
980	 0.110191974937781 
981	 0.108433497220619 
982	 0.110184418973721 
983	 0.1123636167322 
984	 0.113359890497954 
985	 0.114725736198161 
986	 0.116074693861969 
987	 0.116763793384188 
988	 0.11515272165166 
989	 0.112129168347011 
990	 0.109949997090672 
991	 0.108710382500146 
992	 0.108315452050653 
993	 0.107747858243872 
994	 0.108477439113852 
995	 0.11042724846086 
996	 0.108481378830644 
997	 0.108271113166074 
998	 0.114598740745211 
999	 0.113593368636211 
1000	 0.108972974654953 
1001	 0.111227961956052 
1002	 0.109456917492015 
1003	 0.104873917998931 
1004	 0.111364121972842 
1005	 0.112782270509926 
1006	 0.10534241075818 
1007	 0.105590247858482 
1008	 0.108216158773324 
1009	 0.108562422230143 
1010	 0.110107274268563 
1011	 0.110982978844168 
1012	 0.108368008031335 
1013	 0.108508169687359 
1014	 0.112427954613917 
1015	 0.120073982437592 
1016	 0.117325617614056 
1017	 0.105501433228642 
1018	 0.109636207984757 
1019	 0.119161901336538 
1020	 0.125992263614219 
1021	 0.118935129277496 
1022	 0.112693801163635 
1023	 0.120925863764786 
1024	 0.122695429008641 
1025	 0.116426485023328 
1026	 0.10541460315056 
1027	 0.107848623689431 
1028	 0.120387868194573 
1029	 0.117717277200194 
1030	 0.113816356870877 
1031	 0.113587726761862 
1032	 0.116830995940254 
1033	 0.118975781607019 
1034	 0.118727023790393 
1035	 0.130073485504425 
1036	 0.136288000543875 
1037	 0.121062961176626 
1038	 0.110759301497701 
1039	 0.112289501750059 
1040	 0.127402443748205 
1041	 0.135764128323875 
1042	 0.134880733129365 
1043	 0.136305462195306 
1044	 0.130439718592304 
1045	 0.121686572720526 
1046	 0.143078785131678 
1047	 0.144465629428212 
1048	 0.105910307455305 
1049	 0.111360390646659 
1050	 0.129872768163674 
1051	 0.127317675289096 
1052	 0.130343769983652 
1053	 0.131510116134143 
1054	 0.115331234153138 
1055	 0.118163379657377 
1056	 0.142388938979326 
1057	 0.177274798419871 
1058	 0.159024425088133 
1059	 9.51432955912239E-02 
1060	 0.118617489927471 
1061	 0.128990148897835 
1062	 9.84640308878939E-02 
1063	 0.136495921036911 
1064	 0.161974723832938 
1065	 0.125749806652001 
1066	 0.141723420056625 
1067	 0.168175791268956 
1068	 0.153416989038078 
1069	 0.157588991598747 
1070	 0.16518491885301 
1071	 0.133227517281092 
1072	 0.133027186790102 
1073	 0.152786881907383 
1074	 0.120695661722461 
1075	 0.110594573991895 
