Wavelength	A00136.asd
325	 4.00074740155581E-02 
326	 4.30883280453121E-02 
327	 0.046535134809035 
328	 4.14487919644036E-02 
329	 4.16663992976459E-02 
330	 4.93517346488196E-02 
331	 0.048510675606638 
332	 4.40609473631225E-02 
333	 4.19409987567509E-02 
334	 4.18019016736913E-02 
335	 4.26405918589949E-02 
336	 0.042008956700994 
337	 4.25876485291762E-02 
338	 4.45979210714751E-02 
339	 4.53304412652168E-02 
340	 4.59267144011062E-02 
341	 0.047195218198185 
342	 4.59590208690469E-02 
343	 4.43579822153561E-02 
344	 4.72165953977622E-02 
345	 4.89024108951738E-02 
346	 4.79798387716611E-02 
347	 4.51165835405278E-02 
348	 4.34997662731921E-02 
349	 0.044849641596523 
350	 4.56610348514096E-02 
351	 4.52950993565101E-02 
352	 4.35079636839175E-02 
353	 4.19927925570789E-02 
354	 4.19455944939456E-02 
355	 4.59712674426252E-02 
356	 4.81408521588764E-02 
357	 4.55296322554047E-02 
358	 4.51796094830754E-02 
359	 4.61519131631926E-02 
360	 4.57729503194399E-02 
361	 0.044064013872487 
362	 4.21424122255537E-02 
363	 4.34982224045269E-02 
364	 4.54368870937196E-02 
365	 4.63731272689421E-02 
366	 4.64204928678799E-02 
367	 4.58563162991437E-02 
368	 4.50438133397413E-02 
369	 4.43043992946493E-02 
370	 4.38836782264341E-02 
371	 4.40239021194826E-02 
372	 4.49106251729075E-02 
373	 4.64012069369518E-02 
374	 0.046996715075071 
375	 4.69990136779796E-02 
376	 4.70790435215247E-02 
377	 4.70151082285419E-02 
378	 4.66252809612058E-02 
379	 4.51235811510061E-02 
380	 4.51548718823419E-02 
381	 4.74649794502524E-02 
382	 4.76494245947023E-02 
383	 0.046495133576701 
384	 4.56380105486854E-02 
385	 4.62103365719692E-02 
386	 4.76403884427877E-02 
387	 4.72025036801666E-02 
388	 4.72088147989341E-02 
389	 4.80980972308731E-02 
390	 0.045824392657966 
391	 4.38245457964832E-02 
392	 4.62715853104496E-02 
393	 0.04685258406937 
394	 4.55995509099848E-02 
395	 4.68758516738694E-02 
396	 4.69119838244207E-02 
397	 4.48340444939878E-02 
398	 4.47540059730638E-02 
399	 0.04480950280676 
400	 4.29182509318454E-02 
401	 4.34834125309669E-02 
402	 0.045719401404948 
403	 4.58586137211633E-02 
404	 0.045874140066809 
405	 4.64610422780421E-02 
406	 4.67208559307903E-02 
407	 4.67815378849208E-02 
408	 0.046887460090843 
409	 4.64706582779361E-02 
410	 4.58592353239401E-02 
411	 4.62707552999817E-02 
412	 4.67906738461662E-02 
413	 4.69679832092109E-02 
414	 4.70510509716788E-02 
415	 0.046820426781619 
416	 4.59769355704251E-02 
417	 4.57593397296028E-02 
418	 4.62888783319104E-02 
419	 4.70213506634794E-02 
420	 0.047357512717096 
421	 4.70983090755329E-02 
422	 4.74727381386901E-02 
423	 4.80465354997444E-02 
424	 4.79882293469585E-02 
425	 4.81678762208548E-02 
426	 4.86751286371582E-02 
427	 4.90145100412822E-02 
428	 4.92809888265559E-02 
429	 4.94929015682554E-02 
430	 4.94038083401438E-02 
431	 4.90184352781315E-02 
432	 4.84081868791099E-02 
433	 4.76679815063404E-02 
434	 4.71626225229584E-02 
435	 4.79483298599347E-02 
436	 0.048697529504224 
437	 4.86120382579512E-02 
438	 4.90600168696723E-02 
439	 4.97193577050079E-02 
440	 4.96875030215132E-02 
441	 4.92774730239972E-02 
442	 4.88420248678434E-02 
443	 4.94062866745668E-02 
444	 5.00056273498402E-02 
445	 4.98879131443332E-02 
446	 5.00384741360327E-02 
447	 5.04122775896277E-02 
448	 5.05547657790446E-02 
449	 5.06666685618902E-02 
450	 5.08209603760462E-02 
451	 5.10947175980751E-02 
452	 5.12783338011085E-02 
453	 5.11796409469204E-02 
454	 5.11738525655195E-02 
455	 5.13325896938799E-02 
456	 5.16776212660383E-02 
457	 5.16837584682302E-02 
458	 5.13370765572914E-02 
459	 0.05203974812177 
460	 5.26358051645052E-02 
461	 5.16851503918231E-02 
462	 5.14192251522249E-02 
463	 5.18999702737063E-02 
464	 5.16007330106506E-02 
465	 5.15148290527205E-02 
466	 5.20360948423213E-02 
467	 5.22040596158035E-02 
468	 5.21168766752723E-02 
469	 5.20740118284256E-02 
470	 5.23634130037259E-02 
471	 5.29050534907616E-02 
472	 5.31551084282694E-02 
473	 5.31794668097258E-02 
474	 5.30241586555344E-02 
475	 5.26521132166855E-02 
476	 5.24161649971612E-02 
477	 5.29403194972479E-02 
478	 5.30156961694208E-02 
479	 5.25599457613263E-02 
480	 5.28304125371086E-02 
481	 5.32596530164634E-02 
482	 5.33569455375728E-02 
483	 5.31684799593481E-02 
484	 5.30598339929515E-02 
485	 5.40104867997972E-02 
486	 5.41358182677665E-02 
487	 5.31760368176778E-02 
488	 5.38060917519424E-02 
489	 5.45201837028163E-02 
490	 5.37171978700028E-02 
491	 5.32435372764626E-02 
492	 5.34014844493441E-02 
493	 5.40057866912407E-02 
494	 0.054572073666371 
495	 5.48244861361112E-02 
496	 5.47651654996896E-02 
497	 5.45585711887188E-02 
498	 5.44110660468495E-02 
499	 0.054648114240796 
500	 5.51802288757724E-02 
501	 0.055380748596696 
502	 5.56073253927213E-02 
503	 5.60414471095598E-02 
504	 5.63707705609961E-02 
505	 5.65854933872459E-02 
506	 5.67445653148063E-02 
507	 5.67765123198183E-02 
508	 5.67972158293341E-02 
509	 5.72940056214539E-02 
510	 5.78499507873683E-02 
511	 5.81409480142959E-02 
512	 5.85617913078641E-02 
513	 5.90823108624429E-02 
514	 5.95166104867694E-02 
515	 5.97489504696756E-02 
516	 5.98271366532993E-02 
517	 6.02947372146668E-02 
518	 6.08119755367553E-02 
519	 6.09853591429695E-02 
520	 6.13311893474342E-02 
521	 0.061861202183886 
522	 6.22939040593337E-02 
523	 6.29049781101576E-02 
524	 6.37590045599171E-02 
525	 6.44640981760374E-02 
526	 0.064854316350823 
527	 6.47590850463935E-02 
528	 6.49132135456474E-02 
529	 6.54275232482653E-02 
530	 6.58927439381265E-02 
531	 0.066456550164724 
532	 6.71706432121413E-02 
533	 6.76224415775179E-02 
534	 6.77708174755546E-02 
535	 6.76109350059677E-02 
536	 6.78780015977033E-02 
537	 6.86310394174711E-02 
538	 6.88515500102049E-02 
539	 6.90059387690511E-02 
540	 6.95531800752609E-02 
541	 6.96983893841167E-02 
542	 6.95156224910121E-02 
543	 6.95417468571411E-02 
544	 6.99281361098111E-02 
545	 7.06495536049327E-02 
546	 7.10526598007119E-02 
547	 7.11656392313337E-02 
548	 7.11145201422859E-02 
549	 7.14901555952996E-02 
550	 7.21950870385563E-02 
551	 7.23300068374647E-02 
552	 7.24530131643714E-02 
553	 7.28587981561287E-02 
554	 7.28873017558307E-02 
555	 7.27310612121289E-02 
556	 7.28913950811423E-02 
557	 7.32441485643298E-02 
558	 7.36264027417795E-02 
559	 7.34631874364325E-02 
560	 7.32563020369324E-02 
561	 7.34718495390008E-02 
562	 7.36729635974269E-02 
563	 7.37679659490208E-02 
564	 7.37414453180933E-02 
565	 7.36755257097335E-02 
566	 7.36212661229723E-02 
567	 7.36421131847393E-02 
568	 7.36126022972598E-02 
569	 7.33695151265554E-02 
570	 7.32988330852815E-02 
571	 7.34348071041886E-02 
572	 7.35495960137758E-02 
573	 7.35930489878737E-02 
574	 7.35241849653983E-02 
575	 7.33247329807409E-02 
576	 7.31298672093956E-02 
577	 7.31957311268685E-02 
578	 7.31032715544116E-02 
579	 7.27863091825357E-02 
580	 7.25662171836332E-02 
581	 7.24514382904352E-02 
582	 7.24342232712304E-02 
583	 7.24749235045817E-02 
584	 7.25027876262038E-02 
585	 7.23460891478583E-02 
586	 7.23567180210778E-02 
587	 7.25658407919118E-02 
588	 7.22102835422001E-02 
589	 7.17229491089409E-02 
590	 0.071761010827562 
591	 7.16853153984025E-02 
592	 7.14830039843427E-02 
593	 7.15913144667198E-02 
594	 7.18163665551183E-02 
595	 7.20283664893176E-02 
596	 7.21809440395821E-02 
597	 0.072238965853765 
598	 7.21649459659545E-02 
599	 7.20574890108931E-02 
600	 7.19321684756807E-02 
601	 7.16361187330248E-02 
602	 7.15522857562232E-02 
603	 7.19539850398478E-02 
604	 7.18183713936492E-02 
605	 7.13439494637171E-02 
606	 7.15106555582013E-02 
607	 7.17234100750774E-02 
608	 7.17611654262726E-02 
609	 7.18014460478201E-02 
610	 7.16430623789464E-02 
611	 7.10359989454002E-02 
612	 7.11014304188665E-02 
613	 7.16728588033001E-02 
614	 7.12290126231821E-02 
615	 7.06730483447212E-02 
616	 7.05465485647021E-02 
617	 7.04687326288687E-02 
618	 7.03482473468384E-02 
619	 7.00857833269435E-02 
620	 7.01097338342908E-02 
621	 7.03787205871871E-02 
622	 7.01321823457437E-02 
623	 6.97821263398425E-02 
624	 6.97175535618575E-02 
625	 0.0696747913977 
626	 0.069634405068182 
627	 6.96352380725923E-02 
628	 6.98263299348058E-02 
629	 7.01472487081286E-02 
630	 6.99061366547361E-02 
631	 6.94698347262059E-02 
632	 6.93670600627217E-02 
633	 6.97298245492134E-02 
634	 7.02053612524145E-02 
635	 6.94967976813026E-02 
636	 6.90103652079041E-02 
637	 6.94524826479348E-02 
638	 6.92391791131244E-02 
639	 0.068659429222099 
640	 6.85860811769276E-02 
641	 6.86604028022575E-02 
642	 6.87079039994331E-02 
643	 6.84099534395249E-02 
644	 6.81473441692708E-02 
645	 6.82312976845308E-02 
646	 6.80662981813656E-02 
647	 6.76494711750527E-02 
648	 0.067265067392492 
649	 6.69085219485449E-02 
650	 6.66383006196529E-02 
651	 6.66755144435117E-02 
652	 6.66522155770412E-02 
653	 6.61238782970881E-02 
654	 6.60481869030382E-02 
655	 6.63980585256107E-02 
656	 6.62797735986216E-02 
657	 6.57247142886662E-02 
658	 6.48854782506171E-02 
659	 6.43605068407757E-02 
660	 6.41695247740491E-02 
661	 6.42826090987022E-02 
662	 6.38815341690838E-02 
663	 6.28960954565906E-02 
664	 6.20939139765379E-02 
665	 0.061874252147594 
666	 6.24319360406127E-02 
667	 6.22278295077633E-02 
668	 6.14734568097341E-02 
669	 6.14524364102771E-02 
670	 6.10909519330172E-02 
671	 6.03088544437012E-02 
672	 6.08146244263867E-02 
673	 6.16086692858932E-02 
674	 6.14267096682182E-02 
675	 6.12752222286898E-02 
676	 6.13222999213332E-02 
677	 6.13754635520728E-02 
678	 6.14363853646185E-02 
679	 6.15411511967526E-02 
680	 6.19795952997592E-02 
681	 6.24686146660423E-02 
682	 0.062499858395043 
683	 6.28816941747177E-02 
684	 6.37444066412806E-02 
685	 6.46564909982091E-02 
686	 6.56419540379397E-02 
687	 6.66727614279969E-02 
688	 6.74597179919114E-02 
689	 6.82016557992707E-02 
690	 6.95547378362008E-02 
691	 7.12335248273187E-02 
692	 7.30927400861652E-02 
693	 7.47580545742196E-02 
694	 7.63494573278696E-02 
695	 7.79526089940038E-02 
696	 7.96234435934035E-02 
697	 8.13809099257802E-02 
698	 8.33309645196561E-02 
699	 8.50834843389685E-02 
700	 8.64765246984558E-02 
701	 8.80567061528459E-02 
702	 8.98129077598393E-02 
703	 9.16469428706222E-02 
704	 9.31365504317666E-02 
705	 9.42439767705125E-02 
706	 9.51532056962018E-02 
707	 9.61810313432201E-02 
708	 9.75109534046681E-02 
709	 9.87494901923517E-02 
710	 9.99235039398225E-02 
711	 0.101238934603677 
712	 0.102186438132217 
713	 0.102769304185931 
714	 0.103767683865957 
715	 0.104830965311991 
716	 0.105661950098311 
717	 0.106437370204235 
718	 0.107280823661411 
719	 0.10839612274544 
720	 0.109135309744104 
721	 0.109344762922367 
722	 0.109513697577933 
723	 0.109752204902465 
724	 0.110135052847755 
725	 0.110930929670931 
726	 0.111920819755568 
727	 0.112460637042183 
728	 0.112857922168684 
729	 0.113242985765655 
730	 0.113418657197897 
731	 0.113581688042816 
732	 0.114014421510409 
733	 0.114364898924745 
734	 0.114577176915975 
735	 0.114710453626905 
736	 0.114938814509523 
737	 0.115353649746829 
738	 0.115707728733047 
739	 0.115969938736888 
740	 0.116148731001639 
741	 0.116378790533493 
742	 0.116670452063528 
743	 0.116890735601002 
744	 0.116964684230976 
745	 0.116862934721097 
746	 0.116932046197933 
747	 0.117203544353838 
748	 0.117600370350735 
749	 0.118010611519458 
750	 0.118295252305712 
751	 0.118030386970486 
752	 0.11789661881982 
753	 0.118583551016866 
754	 0.11861995951699 
755	 0.118171390813175 
756	 0.11865378357626 
757	 0.118866945929701 
758	 0.118407258540258 
759	 0.118708235329079 
760	 0.120085327378494 
761	 0.121436853621262 
762	 0.121332979721059 
763	 0.120469279657262 
764	 0.120924175266577 
765	 0.121359181870674 
766	 0.121333793745523 
767	 0.121294423976822 
768	 0.121266328885514 
769	 0.121240361802097 
770	 0.121057511611902 
771	 0.120813360124179 
772	 0.120974043143217 
773	 0.121237968870725 
774	 0.121375774603508 
775	 0.121222500377882 
776	 0.121209598433232 
777	 0.122181254355308 
778	 0.122751147255823 
779	 0.122623515586074 
780	 0.122501327732707 
781	 0.122634063487474 
782	 0.123149347906601 
783	 0.123300265976811 
784	 0.123222702941035 
785	 0.123499843069151 
786	 0.123624890852397 
787	 0.123510185269105 
788	 0.123519320657967 
789	 0.123690914866303 
790	 0.124022676633165 
791	 0.12424418509406 
792	 0.124333180037048 
793	 0.124346845590814 
794	 0.124596380972192 
795	 0.125033482853549 
796	 0.1247171860487 
797	 0.124496326263181 
798	 0.125199383963157 
799	 0.125351388200639 
800	 0.125012833343605 
801	 0.125136841678718 
802	 0.125361771505777 
803	 0.125499180288237 
804	 0.125157405123899 
805	 0.125052396799107 
806	 0.125903631021049 
807	 0.125835551638049 
808	 0.125115991161017 
809	 0.125684092617411 
810	 0.126174235114497 
811	 0.126140326442286 
812	 0.1266635637583 
813	 0.127322034863335 
814	 0.127459954956455 
815	 0.127889962525517 
816	 0.128606363965935 
817	 0.129056986769442 
818	 0.128922430642617 
819	 0.128255366682878 
820	 0.128090893227159 
821	 0.128131191703109 
822	 0.127938708564545 
823	 0.127933079089289 
824	 0.128108237531193 
825	 0.128170015359233 
826	 0.128357343020794 
827	 0.128738858234479 
828	 0.129174205386929 
829	 0.129114428728476 
830	 0.128005575682116 
831	 0.128360435897754 
832	 0.129918050275481 
833	 0.130384480065417 
834	 0.130122138380488 
835	 0.129462727548635 
836	 0.129604793771276 
837	 0.129982155494381 
838	 0.129849160476044 
839	 0.129838006746144 
840	 0.129926060112214 
841	 0.129602349611953 
842	 0.129739216253003 
843	 0.130483097252465 
844	 0.130367621200279 
845	 0.129928096868985 
846	 0.12991355665597 
847	 0.130465463382156 
848	 0.131197411116162 
849	 0.130960262036583 
850	 0.13037361947991 
851	 0.129822883161425 
852	 0.129925331476069 
853	 0.130158069761946 
854	 0.129933897086132 
855	 0.130127182242769 
856	 0.130643646520214 
857	 0.130880047315124 
858	 0.130915186338421 
859	 0.13078033859513 
860	 0.13054473364193 
861	 0.130510930775271 
862	 0.130893597118018 
863	 0.130595169603947 
864	 0.130089652706725 
865	 0.131015417350412 
866	 0.131668384643577 
867	 0.1315465153584 
868	 0.131301945931131 
869	 0.131189288316312 
870	 0.131443643740675 
871	 0.132484590434885 
872	 0.133691203223724 
873	 0.133836359057815 
874	 0.133340518149468 
875	 0.132498970910062 
876	 0.13182816477637 
877	 0.131901819656239 
878	 0.132851201952012 
879	 0.13213884804144 
880	 0.131406576249218 
881	 0.133888206262213 
882	 0.134416133769458 
883	 0.132732086634087 
884	 0.133223461304613 
885	 0.133632394787689 
886	 0.132843492892705 
887	 0.13211042159452 
888	 0.132550504867162 
889	 0.135329104437623 
890	 0.136103370581719 
891	 0.134569020328863 
892	 0.133123964968416 
893	 0.132916125350977 
894	 0.13444889052822 
895	 0.135935011352268 
896	 0.136844366556825 
897	 0.136788767096324 
898	 0.136826330576983 
899	 0.137274179275957 
900	 0.138379546499964 
901	 0.138282266114153 
902	 0.136757612240096 
903	 0.135556765916412 
904	 0.135695375760514 
905	 0.137629452356584 
906	 0.138563014071074 
907	 0.138328703331287 
908	 0.13743424408499 
909	 0.137316604546596 
910	 0.13819052998675 
911	 0.138764616653256 
912	 0.139559920241762 
913	 0.14057159573686 
914	 0.139845315821391 
915	 0.138962180955578 
916	 0.140008072456909 
917	 0.141319490900098 
918	 0.141367413538856 
919	 0.136596041273694 
920	 0.135173652859799 
921	 0.138459923305223 
922	 0.136693179153552 
923	 0.134542066637258 
924	 0.136497369929957 
925	 0.139493460139787 
926	 0.141474753187988 
927	 0.138946903925316 
928	 0.137425351903483 
929	 0.138430965393762 
930	 0.138131457707515 
931	 0.138575884064897 
932	 0.140737812562284 
933	 0.138210924210157 
934	 0.13497428051085 
935	 0.138063060162308 
936	 0.140624891746083 
937	 0.142190192197539 
938	 0.147156530091956 
939	 0.144156916326823 
940	 0.134539065864209 
941	 0.140974857138018 
942	 0.14578419078073 
943	 0.137664988932918 
944	 0.139997948919826 
945	 0.147275420297479 
946	 0.146219441662317 
947	 0.146399156522628 
948	 0.147657186543204 
949	 0.14145135362484 
950	 0.139278263720664 
951	 0.14458636379642 
952	 0.147093003510514 
953	 0.146455363663091 
954	 0.143417616174042 
955	 0.140701192801807 
956	 0.140468412019952 
957	 0.145611155709019 
958	 0.146749015265853 
959	 0.142344989868847 
960	 0.135201848477448 
961	 0.13366317237582 
962	 0.140396986905439 
963	 0.146387915885638 
964	 0.148467647681311 
965	 0.144903763008021 
966	 0.141998454739924 
967	 0.141198946944224 
968	 0.142944005159674 
969	 0.141740477110261 
970	 0.137991438744443 
971	 0.139768341325009 
972	 0.141011822294783 
973	 0.139185828367264 
974	 0.140548918227547 
975	 0.14432770513867 
976	 0.14848380312037 
977	 0.14586570152022 
978	 0.139553658297854 
979	 0.139333972743211 
980	 0.139262941622072 
981	 0.138166748175337 
982	 0.137655418044277 
983	 0.139071882957378 
984	 0.142480466854917 
985	 0.143783519060862 
986	 0.143489804436738 
987	 0.142799405947302 
988	 0.144524267124136 
989	 0.146774586871634 
990	 0.144824117018821 
991	 0.141423295779115 
992	 0.138129919923734 
993	 0.136745876138394 
994	 0.138538519620717 
995	 0.142794670965219 
996	 0.142132537488537 
997	 0.14017024846324 
998	 0.141025250751568 
999	 0.142734413405894 
1000	 0.14450159752145 
1001	 0.145644539060413 
1002	 0.139189799329289 
1003	 0.129945928243933 
1004	 0.140003276004839 
1005	 0.146988006475746 
1006	 0.142902076400256 
1007	 0.137473009275686 
1008	 0.136975204764624 
1009	 0.144357660057401 
1010	 0.145286761952195 
1011	 0.141154352870806 
1012	 0.136857577906439 
1013	 0.137835205146296 
1014	 0.142780112747981 
1015	 0.145087064394275 
1016	 0.149262240635871 
1017	 0.153792105895948 
1018	 0.147512621629014 
1019	 0.143856362073162 
1020	 0.148625960175028 
1021	 0.147505481124665 
1022	 0.144875637092017 
1023	 0.145868155378752 
1024	 0.145848401848315 
1025	 0.143542852569914 
1026	 0.138104893538069 
1027	 0.142923641107036 
1028	 0.153280047342102 
1029	 0.144234040916813 
1030	 0.13764213910817 
1031	 0.139482717300199 
1032	 0.138626269910423 
1033	 0.139826095207659 
1034	 0.145172419741586 
1035	 0.147594469510279 
1036	 0.149566378268461 
1037	 0.154155687278649 
1038	 0.157151271775092 
1039	 0.157908506522387 
1040	 0.156862336923154 
1041	 0.166945006372759 
1042	 0.179780194003801 
1043	 0.164606784688066 
1044	 0.143576067321 
1045	 0.132553393039639 
1046	 0.153778320526761 
1047	 0.164475446825864 
1048	 0.144204680031884 
1049	 0.142701051933015 
1050	 0.148750552560859 
1051	 0.146803494862204 
1052	 0.13308766793449 
1053	 0.11724314311199 
1054	 0.115378762761335 
1055	 0.12046514459095 
1056	 0.137960900523023 
1057	 0.187551801428458 
1058	 0.188634119490909 
1059	 0.139231957991391 
1060	 0.150440712738878 
1061	 0.151261101768248 
1062	 0.122906106971407 
1063	 0.147827565396669 
1064	 0.16610895199308 
1065	 0.140604427617351 
1066	 0.152039831110618 
1067	 0.174927707000493 
1068	 0.176211707878805 
1069	 0.183697823330355 
1070	 0.185590656833755 
1071	 0.156359590048266 
1072	 0.129634396641407 
1073	 0.114057172095415 
1074	 0.106426465368881 
1075	 0.122661887462491 
