Wavelength	A00150.asd
325	 4.47875805580877E-02 
326	 5.10624495583498E-02 
327	 6.06720059367297E-02 
328	 0.055346377769868 
329	 5.30776118793514E-02 
330	 5.74933376099182E-02 
331	 5.00411076644686E-02 
332	 4.29712732189611E-02 
333	 4.87032990005747E-02 
334	 5.22173290933912E-02 
335	 5.26513973179038E-02 
336	 5.46893318776946E-02 
337	 5.42680105349112E-02 
338	 5.18979711738702E-02 
339	 5.59636386348771E-02 
340	 5.73793861150281E-02 
341	 4.96114650419626E-02 
342	 0.046514370957087 
343	 4.90910547326556E-02 
344	 5.57262132934863E-02 
345	 5.60610761559672E-02 
346	 0.050447232644609 
347	 0.052523932083246 
348	 5.52394438707758E-02 
349	 5.41711142384003E-02 
350	 5.62179032593256E-02 
351	 5.76646655350939E-02 
352	 5.12586496154969E-02 
353	 4.79733550575824E-02 
354	 4.99088358326498E-02 
355	 5.38609079559152E-02 
356	 5.55838094715787E-02 
357	 5.32422812274138E-02 
358	 5.38226857680918E-02 
359	 5.58988595704863E-02 
360	 5.61154404923567E-02 
361	 5.44029121957027E-02 
362	 5.23858400232131E-02 
363	 5.54564794686036E-02 
364	 5.80454313041779E-02 
365	 0.057399924227536 
366	 5.66131931790302E-02 
367	 5.56405897268547E-02 
368	 5.39544450271716E-02 
369	 0.053849364746684 
370	 5.50905935241153E-02 
371	 5.49358010147827E-02 
372	 5.51797908425866E-02 
373	 5.64268092391884E-02 
374	 5.57500861318383E-02 
375	 5.50928407491512E-02 
376	 5.73990219310284E-02 
377	 5.77286801656492E-02 
378	 0.056197411801124 
379	 5.72570369974194E-02 
380	 0.057884036600329 
381	 5.67574154620026E-02 
382	 0.055613734128363 
383	 5.51044035741095E-02 
384	 5.58285641518836E-02 
385	 5.69511667111394E-02 
386	 5.76129154136896E-02 
387	 5.60975723599069E-02 
388	 5.52388959159898E-02 
389	 5.60098975834872E-02 
390	 5.56903935589069E-02 
391	 5.57167346342864E-02 
392	 5.79232743242517E-02 
393	 5.76771525219626E-02 
394	 5.56850381872336E-02 
395	 5.68037409687808E-02 
396	 0.058112480514229 
397	 5.82719009360499E-02 
398	 5.73289315858882E-02 
399	 5.61101163850723E-02 
400	 5.53955629937717E-02 
401	 5.58271211114657E-02 
402	 5.68211769202302E-02 
403	 5.66883861695726E-02 
404	 5.67145133164758E-02 
405	 5.73710222942871E-02 
406	 5.81072575967863E-02 
407	 5.86323936719079E-02 
408	 5.86690130252508E-02 
409	 5.81416642916482E-02 
410	 5.74018731024975E-02 
411	 5.72942981443588E-02 
412	 5.77469743489855E-02 
413	 5.85431427239475E-02 
414	 5.86431818593053E-02 
415	 5.83868200522222E-02 
416	 5.83507830906419E-02 
417	 5.81275276593964E-02 
418	 0.057975325766543 
419	 5.90008288653749E-02 
420	 5.96947231791351E-02 
421	 5.93884363280919E-02 
422	 5.96996524387768E-02 
423	 6.01988972232873E-02 
424	 6.00036368486166E-02 
425	 6.00095616973318E-02 
426	 6.03156218061249E-02 
427	 6.03387815223476E-02 
428	 0.060713382706351 
429	 6.16707554705989E-02 
430	 6.16507355447908E-02 
431	 0.061167940003165 
432	 6.14413847832723E-02 
433	 6.12577815275857E-02 
434	 6.07553927570674E-02 
435	 6.15789284811634E-02 
436	 6.21833645304839E-02 
437	 6.16931082981905E-02 
438	 6.21573677923942E-02 
439	 6.30166615956745E-02 
440	 6.26864716783499E-02 
441	 6.26426620132193E-02 
442	 6.31973654151788E-02 
443	 6.37357845869352E-02 
444	 6.40485178756524E-02 
445	 6.40298098984577E-02 
446	 6.42965212550817E-02 
447	 6.47130840558068E-02 
448	 6.47446412857297E-02 
449	 6.46990219225242E-02 
450	 6.47073788765803E-02 
451	 6.48320468953891E-02 
452	 6.51674916393804E-02 
453	 6.57661054776783E-02 
454	 6.59593239366421E-02 
455	 6.58509474846483E-02 
456	 6.61867190224733E-02 
457	 6.61411011621596E-02 
458	 6.56130595405168E-02 
459	 6.60449560400971E-02 
460	 6.66398136223697E-02 
461	 6.63420820169662E-02 
462	 0.066197672102205 
463	 6.63470549771841E-02 
464	 6.64566744069964E-02 
465	 6.65873687733804E-02 
466	 6.67714299236729E-02 
467	 6.70823087901687E-02 
468	 6.73614485656486E-02 
469	 6.73734831669222E-02 
470	 6.75183627658656E-02 
471	 6.78116667837866E-02 
472	 6.79704798402562E-02 
473	 6.78447904855328E-02 
474	 6.74187937366969E-02 
475	 6.73241918525166E-02 
476	 6.75731141053887E-02 
477	 6.80534732617788E-02 
478	 6.80548251765428E-02 
479	 6.76354456398292E-02 
480	 6.80038012722523E-02 
481	 6.85808070811574E-02 
482	 6.88462884739932E-02 
483	 6.86226223942252E-02 
484	 0.068341394313343 
485	 6.91899422197004E-02 
486	 6.95326457576858E-02 
487	 6.90196560652759E-02 
488	 6.92857802718459E-02 
489	 6.96394240240375E-02 
490	 6.93252807195687E-02 
491	 6.93399666553684E-02 
492	 6.97474242601458E-02 
493	 0.070250950628365 
494	 7.04404797473884E-02 
495	 7.02184317967327E-02 
496	 7.03071793889212E-02 
497	 7.05754127597045E-02 
498	 7.07611549428424E-02 
499	 7.07903193324402E-02 
500	 0.070779605281243 
501	 7.11600189995653E-02 
502	 7.17731539428124E-02 
503	 7.24345459252837E-02 
504	 7.26341475500672E-02 
505	 7.25498530617848E-02 
506	 7.25908173709829E-02 
507	 7.26173311753908E-02 
508	 7.26285922848874E-02 
509	 7.26911530350391E-02 
510	 7.28358234556363E-02 
511	 7.30868015165682E-02 
512	 7.34891194707911E-02 
513	 7.38687721363998E-02 
514	 7.37970419133405E-02 
515	 7.38230947433661E-02 
516	 7.41045190724981E-02 
517	 7.42468842761714E-02 
518	 0.07450873837463 
519	 7.51477323759417E-02 
520	 7.50601304120355E-02 
521	 7.45786192733037E-02 
522	 7.52145849058907E-02 
523	 7.57560519873836E-02 
524	 7.57534831762995E-02 
525	 7.61411722041445E-02 
526	 7.66503059614106E-02 
527	 7.67747935475745E-02 
528	 7.67202518184278E-02 
529	 7.66976428854647E-02 
530	 7.72392910263671E-02 
531	 7.77333056742304E-02 
532	 0.077806701834612 
533	 7.80574840766366E-02 
534	 7.83894376181346E-02 
535	 7.84548301541537E-02 
536	 7.83855746164651E-02 
537	 7.83445564516667E-02 
538	 7.88537890359746E-02 
539	 7.94522992809732E-02 
540	 7.96607960616274E-02 
541	 7.95311801249313E-02 
542	 0.079280835665687 
543	 7.94334331568374E-02 
544	 7.96378084359436E-02 
545	 7.97789272688514E-02 
546	 8.01034252109265E-02 
547	 0.080399214846193 
548	 0.08037158914541 
549	 8.03941030598394E-02 
550	 8.06024943949182E-02 
551	 0.081125775046809 
552	 8.15249747388621E-02 
553	 8.15576046508803E-02 
554	 8.17587634000672E-02 
555	 0.082051319999369 
556	 8.21484951698456E-02 
557	 8.22554778763384E-02 
558	 8.24205858628643E-02 
559	 8.25593558980608E-02 
560	 8.26852240719242E-02 
561	 8.28130881067236E-02 
562	 8.29350803782776E-02 
563	 8.30486781982068E-02 
564	 8.31481721371259E-02 
565	 8.32708569825949E-02 
566	 8.33871397680452E-02 
567	 8.32306862095933E-02 
568	 8.30193783879661E-02 
569	 8.30557405690681E-02 
570	 8.34526081651045E-02 
571	 8.40253190943035E-02 
572	 8.40892290468035E-02 
573	 8.40541060019216E-02 
574	 8.41726950597691E-02 
575	 8.43315665457307E-02 
576	 8.44650764619529E-02 
577	 8.44746602483234E-02 
578	 8.44799927868698E-02 
579	 8.44891847172624E-02 
580	 8.43524168387826E-02 
581	 8.42102144380351E-02 
582	 8.42038550918087E-02 
583	 8.44671517607873E-02 
584	 0.084853233545651 
585	 8.49745733395829E-02 
586	 8.48838187156131E-02 
587	 8.46477313313703E-02 
588	 8.45960942738842E-02 
589	 8.46868099470246E-02 
590	 8.48130281695915E-02 
591	 8.47845590648571E-02 
592	 8.45922569384568E-02 
593	 8.42990536965683E-02 
594	 8.43855594159382E-02 
595	 0.085052596171079 
596	 8.54490401869922E-02 
597	 0.085527549339861 
598	 8.54430135389959E-02 
599	 8.51810714047936E-02 
600	 8.48192801446344E-02 
601	 0.084558572664084 
602	 8.45617266770502E-02 
603	 8.49242806248466E-02 
604	 8.51448608437438E-02 
605	 0.085170750558412 
606	 0.085119054343651 
607	 8.51445796581232E-02 
608	 8.53078612404294E-02 
609	 8.55360271262439E-02 
610	 8.55066059088757E-02 
611	 0.084847685695381 
612	 8.48098004710229E-02 
613	 8.53521953731381E-02 
614	 8.52149154526191E-02 
615	 0.085059174677013 
616	 8.52491306073968E-02 
617	 8.53564681951469E-02 
618	 8.52863075471071E-02 
619	 8.49569673668674E-02 
620	 8.48359908902021E-02 
621	 8.50207878783511E-02 
622	 8.52828051784885E-02 
623	 8.52410965136826E-02 
624	 8.46385987736424E-02 
625	 8.47081258503417E-02 
626	 8.52798431860375E-02 
627	 0.085289483730261 
628	 8.52991751808079E-02 
629	 0.085450395584552 
630	 8.53141796047355E-02 
631	 8.51876534210649E-02 
632	 8.54694419824639E-02 
633	 8.57221252913218E-02 
634	 8.57703503826567E-02 
635	 8.53816992271986E-02 
636	 8.51965559437769E-02 
637	 8.55424138561795E-02 
638	 8.56761440163381E-02 
639	 8.56561329453151E-02 
640	 8.57767959033974E-02 
641	 8.58128702773611E-02 
642	 8.57111605026658E-02 
643	 8.54892498756108E-02 
644	 0.085478855847633 
645	 8.59322597285504E-02 
646	 8.62244264824834E-02 
647	 8.62220671564715E-02 
648	 8.58916664396224E-02 
649	 8.57155294791239E-02 
650	 8.58458970852215E-02 
651	 8.57973577666699E-02 
652	 8.56929833269059E-02 
653	 8.57259646254303E-02 
654	 8.59959344309242E-02 
655	 8.62773313855054E-02 
656	 0.08566745352585 
657	 8.50832209851284E-02 
658	 8.50376074781984E-02 
659	 8.47539803743323E-02 
660	 8.44014078409368E-02 
661	 8.44109073459799E-02 
662	 8.41952584738676E-02 
663	 8.37338434809656E-02 
664	 8.37031813544327E-02 
665	 8.36940265433218E-02 
666	 8.33622549098602E-02 
667	 8.29958101382876E-02 
668	 8.27588553001001E-02 
669	 8.30039525998075E-02 
670	 0.08278220445385 
671	 0.082020658462229 
672	 8.25334189801585E-02 
673	 8.31296892636971E-02 
674	 8.23424678130023E-02 
675	 8.21985512706026E-02 
676	 8.27358307355383E-02 
677	 8.25944219938041E-02 
678	 8.25210345946116E-02 
679	 0.082830768232356 
680	 8.27902739521754E-02 
681	 0.082690925612843 
682	 8.31231737170423E-02 
683	 8.35185883304022E-02 
684	 8.37845293403107E-02 
685	 8.42289100917018E-02 
686	 8.48955136908795E-02 
687	 8.57347663025757E-02 
688	 8.58552232811214E-02 
689	 8.54860036626399E-02 
690	 8.54095290770262E-02 
691	 8.62334152708878E-02 
692	 8.77750624661538E-02 
693	 0.08796515593166 
694	 8.78289424346792E-02 
695	 8.85227471356746E-02 
696	 8.90909040221242E-02 
697	 8.93461010163844E-02 
698	 8.92370644928158E-02 
699	 8.93377036040621E-02 
700	 8.98762762090706E-02 
701	 9.02222329978845E-02 
702	 9.04521568838058E-02 
703	 9.07732339215235E-02 
704	 9.10852048672435E-02 
705	 9.13236268340153E-02 
706	 9.13702830438502E-02 
707	 9.12410853124908E-02 
708	 9.10022300300894E-02 
709	 9.10424016806062E-02 
710	 9.13617985845794E-02 
711	 9.18724321775038E-02 
712	 9.21639258087388E-02 
713	 9.21743487886186E-02 
714	 9.23189918841354E-02 
715	 9.26096225169395E-02 
716	 9.30367143330708E-02 
717	 9.30450822442665E-02 
718	 9.28661601291922E-02 
719	 9.38029803495288E-02 
720	 9.38539335980266E-02 
721	 9.28055419200003E-02 
722	 9.30425892742821E-02 
723	 9.34287156978374E-02 
724	 9.25763273445082E-02 
725	 9.27090038512184E-02 
726	 9.38320141090512E-02 
727	 9.43808972376391E-02 
728	 9.45338118856861E-02 
729	 9.43761094161858E-02 
730	 9.40907578949846E-02 
731	 9.40690604083589E-02 
732	 9.47811026872364E-02 
733	 9.46900202832779E-02 
734	 9.39099681551583E-02 
735	 0.094036297258302 
736	 0.094556443383325 
737	 9.50528149668489E-02 
738	 9.50666733922318E-02 
739	 9.48881310829204E-02 
740	 9.52104907629381E-02 
741	 9.53868451507342E-02 
742	 9.52746648573677E-02 
743	 0.095146810537107 
744	 9.50513749952061E-02 
745	 9.50309605262975E-02 
746	 9.51736217127163E-02 
747	 9.54152825627233E-02 
748	 0.09562814350169 
749	 9.55201431621938E-02 
750	 9.51538569467729E-02 
751	 9.55266769494788E-02 
752	 9.59731031615951E-02 
753	 9.57433009534388E-02 
754	 9.55997577830275E-02 
755	 9.56795833047854E-02 
756	 9.59303988023374E-02 
757	 0.096081889275877 
758	 9.60105911164092E-02 
759	 9.57534363707746E-02 
760	 0.095896870658749 
761	 9.78459295036568E-02 
762	 0.098129842529175 
763	 9.70680064416957E-02 
764	 9.76121442780405E-02 
765	 0.098070331424733 
766	 9.78714847006745E-02 
767	 9.73425286070469E-02 
768	 9.69442754365228E-02 
769	 9.71970045653219E-02 
770	 9.74831021298931E-02 
771	 9.75489390819685E-02 
772	 9.70332786149857E-02 
773	 9.67710453287629E-02 
774	 9.72587897804852E-02 
775	 9.75628510382668E-02 
776	 9.76666665127412E-02 
777	 9.78073589145048E-02 
778	 9.78404429853715E-02 
779	 0.097823007365979 
780	 9.81201278227221E-02 
781	 9.84943610520812E-02 
782	 9.87192055688329E-02 
783	 9.86092533677805E-02 
784	 9.83107824157957E-02 
785	 9.81756129738382E-02 
786	 9.82111039003898E-02 
787	 9.83794458093054E-02 
788	 9.83689132004578E-02 
789	 9.85148920747706E-02 
790	 9.90937007008596E-02 
791	 9.94175014158614E-02 
792	 9.93937245182683E-02 
793	 9.90783279277516E-02 
794	 9.91219478346885E-02 
795	 9.96155076350519E-02 
796	 0.099605771799698 
797	 9.94264895314931E-02 
798	 9.94626495374846E-02 
799	 9.94404272218434E-02 
800	 9.94190347345721E-02 
801	 9.96533330685696E-02 
802	 0.100069361777128 
803	 0.100521510876829 
804	 0.100474380504076 
805	 0.100195181440087 
806	 0.10001914038917 
807	 9.97918390590724E-02 
808	 9.96041057070811E-02 
809	 9.97966994661416E-02 
810	 9.98405305474658E-02 
811	 9.96023412680142E-02 
812	 9.97810677678457E-02 
813	 0.100391779668083 
814	 0.101353170030223 
815	 0.102305346678241 
816	 0.102849491679479 
817	 0.102393885424558 
818	 0.101240773744813 
819	 0.100014531464276 
820	 0.100872361421181 
821	 0.102125206098234 
822	 0.101633941257989 
823	 0.101220743804798 
824	 0.101172464773754 
825	 0.101013596684804 
826	 0.101188596538177 
827	 0.101740084372412 
828	 0.101767446589274 
829	 0.101436228219925 
830	 0.101084015446298 
831	 0.101280534639595 
832	 0.101714466782466 
833	 0.101039640100307 
834	 0.100684810485999 
835	 0.101168929025598 
836	 0.10166175725432 
837	 0.101850700463691 
838	 0.10149426135754 
839	 0.101226852915499 
840	 0.101180515052532 
841	 0.101161403213658 
842	 0.101820824582827 
843	 0.103023480153158 
844	 0.102372799970629 
845	 0.101336066620745 
846	 0.101731398583342 
847	 0.101952359396235 
848	 0.101897395033183 
849	 0.102238108651922 
850	 0.102571683893414 
851	 0.102687300731135 
852	 0.102452676958626 
853	 0.102003557075919 
854	 0.101544699070292 
855	 0.10155984286366 
856	 0.101929241767061 
857	 0.102144703758192 
858	 0.102164870244903 
859	 0.101907770557653 
860	 0.101049974654274 
861	 0.100803748565883 
862	 0.10213279331785 
863	 0.101737967119498 
864	 0.100497498102707 
865	 0.102071967052575 
866	 0.10275166452874 
867	 0.101873120162931 
868	 0.102588317889601 
869	 0.103634634575728 
870	 0.103924860073588 
871	 0.104328445094104 
872	 0.10445214295495 
873	 0.103260818495303 
874	 0.102883428180354 
875	 0.103346190535407 
876	 0.101668687519608 
877	 0.10069248200617 
878	 0.102163240126383 
879	 0.102608937455328 
880	 0.102668721794132 
881	 0.104214021299726 
882	 0.103748063227502 
883	 0.10142919595132 
884	 0.101143531757232 
885	 0.101555971382445 
886	 0.101855074383397 
887	 0.101748112942266 
888	 0.101950885870179 
889	 0.103419230982608 
890	 0.103916111268969 
891	 0.103326223734586 
892	 0.102943523429314 
893	 0.1034020970037 
894	 0.104728231953519 
895	 0.104462308525401 
896	 0.104219380869007 
897	 0.105890024178757 
898	 0.104447897400205 
899	 0.101527931810478 
900	 0.104032308344556 
901	 0.104338165287463 
902	 0.101437383324598 
903	 0.102472110237551 
904	 0.104684465712081 
905	 0.105571644818083 
906	 0.104214474851878 
907	 0.102398932436498 
908	 0.103555518420117 
909	 0.105070652217516 
910	 0.105828926314408 
911	 0.104664095268771 
912	 0.103990813708136 
913	 0.105021724449219 
914	 0.105532816826717 
915	 0.105741396857782 
916	 0.106193645092161 
917	 0.106789975174099 
918	 0.106628531621043 
919	 0.102695020692143 
920	 0.102936788179037 
921	 0.108028550571166 
922	 0.105494280731122 
923	 0.10328169681918 
924	 0.108182959591006 
925	 0.106451676935058 
926	 0.100962669683258 
927	 0.103305831642482 
928	 0.105418412300504 
929	 0.104501015354478 
930	 0.100957184332147 
931	 9.90413204628242E-02 
932	 0.101387308690956 
933	 9.52204509897362E-02 
934	 9.18423832061156E-02 
935	 0.108797478890983 
936	 0.115071193853062 
937	 0.109853822906097 
938	 0.112233390986901 
939	 0.109787188319721 
940	 0.103166326728962 
941	 0.111820151668147 
942	 0.11609377949263 
943	 0.104164684602485 
944	 0.107510172621851 
945	 0.11672930466059 
946	 0.110808211899354 
947	 0.106645129381256 
948	 0.108127634071167 
949	 0.113545235834361 
950	 0.11652112400331 
951	 0.114684392584813 
952	 0.113109562575308 
953	 0.11141989358978 
954	 0.109071253255831 
955	 0.107392006606172 
956	 0.105804407596122 
957	 0.102677942156885 
958	 0.104764972484372 
959	 0.109600178402555 
960	 0.102209746371075 
961	 0.102067053257468 
962	 0.114437763304314 
963	 0.113645846437297 
964	 0.109136858464819 
965	 0.111336732564034 
966	 0.112435305026225 
967	 0.110768001843251 
968	 0.10552547841339 
969	 9.98136879115119E-02 
970	 9.71529592927718E-02 
971	 0.106988184801057 
972	 0.111760489746284 
973	 0.104323349145459 
974	 0.104998765421587 
975	 0.110404398832746 
976	 0.114100441683741 
977	 0.110029954786371 
978	 0.103113620607298 
979	 0.106757864804751 
980	 0.110527771197364 
981	 0.110696965949226 
982	 0.105195679440733 
983	 0.102771574334842 
984	 0.107273374674899 
985	 0.109475667993137 
986	 0.110822869538557 
987	 0.113468418274588 
988	 0.112757980101921 
989	 0.109934146565948 
990	 0.109086865039069 
991	 0.107983321060267 
992	 0.106420755965612 
993	 0.105190425445827 
994	 0.107027603533326 
995	 0.111420856491918 
996	 0.107223045145114 
997	 0.102668328880875 
998	 0.106127128072392 
999	 0.107522919559461 
1000	 0.107253342326479 
1001	 0.108992464496238 
1002	 0.107221671628105 
1003	 0.103427555118906 
1004	 0.107289993594731 
1005	 0.110199663983321 
1006	 0.108441816881801 
1007	 0.101472451720817 
1008	 0.101901545240989 
1009	 0.1159631946659 
1010	 0.111731885137129 
1011	 0.101761958142408 
1012	 0.108433657362006 
1013	 0.10757300923153 
1014	 0.100362055857588 
1015	 0.101579251760407 
1016	 0.107090580893087 
1017	 0.113747033453481 
1018	 0.114151053313337 
1019	 0.111962275996652 
1020	 0.109482644998965 
1021	 0.106493269396649 
1022	 0.105926557772204 
1023	 0.109957651797696 
1024	 0.113715048149233 
1025	 0.114216383732126 
1026	 0.108252523694353 
1027	 0.109801648376511 
1028	 0.116360850276685 
1029	 0.108432131540704 
1030	 0.105044944919612 
1031	 0.109136496914657 
1032	 0.101502583365615 
1033	 9.57243966662056E-02 
1034	 0.10068562053584 
1035	 0.111324119207326 
1036	 0.117955960543903 
1037	 0.112525766388294 
1038	 0.110325967572928 
1039	 0.114075213287623 
1040	 0.122937609848774 
1041	 0.120071091731275 
1042	 0.109671378146751 
1043	 0.116598141873972 
1044	 0.115821937057 
1045	 0.104159108531268 
1046	 0.10844317570842 
1047	 0.111463997566884 
1048	 0.105501060650508 
1049	 0.113062746887417 
1050	 0.117422565466141 
1051	 0.104777445118057 
1052	 0.110075835996623 
1053	 0.117510062526897 
1054	 9.58705688676118E-02 
1055	 9.55515339376686E-02 
1056	 0.117545046866893 
1057	 0.139285883024667 
1058	 0.125591088813537 
1059	 8.48129033654132E-02 
1060	 0.111735876296493 
1061	 0.119674221918079 
1062	 8.38991038825188E-02 
1063	 9.44630462997285E-02 
1064	 0.105687965365815 
1065	 8.77012011420491E-02 
1066	 0.102948515895182 
1067	 0.120504851604944 
1068	 0.104910399792321 
1069	 0.104976270268599 
1070	 0.112581709352685 
1071	 9.87567746575292E-02 
1072	 0.104210704982585 
1073	 0.113035741787509 
1074	 6.14906868835947E-02 
1075	 4.38667728220169E-02 
