Wavelength	A00105.asd
325	 4.63960062172029E-02 
326	 4.81678101774001E-02 
327	 5.06178127769083E-02 
328	 0.050988310301535 
329	 4.93119379781652E-02 
330	 4.59986521120956E-02 
331	 4.12032516233928E-02 
332	 4.17023217039434E-02 
333	 5.28490319913573E-02 
334	 5.25429543245544E-02 
335	 4.48672582266613E-02 
336	 4.74212560608891E-02 
337	 5.09651039595791E-02 
338	 5.29096917116948E-02 
339	 5.54424925697259E-02 
340	 5.53236620894542E-02 
341	 5.06566150797966E-02 
342	 5.05348986901465E-02 
343	 5.35098943534262E-02 
344	 5.45200731916131E-02 
345	 5.33788775056381E-02 
346	 0.051106272564529 
347	 5.22675878585839E-02 
348	 5.31245617991518E-02 
349	 5.13974050001491E-02 
350	 5.05454705165259E-02 
351	 4.98597713600735E-02 
352	 4.73763154144928E-02 
353	 4.64651706756397E-02 
354	 4.77642851077687E-02 
355	 5.05806010124554E-02 
356	 5.14957156815876E-02 
357	 0.049147912020051 
358	 4.99490272539123E-02 
359	 5.21541607099239E-02 
360	 5.20828933418589E-02 
361	 0.049834843613326 
362	 4.72179514459812E-02 
363	 5.00718387033639E-02 
364	 5.21936291534356E-02 
365	 5.07676211365561E-02 
366	 5.08255081798438E-02 
367	 5.11283753380541E-02 
368	 4.93446833493302E-02 
369	 4.93306541185698E-02 
370	 5.09076761798785E-02 
371	 5.03073461773134E-02 
372	 4.99551480394213E-02 
373	 5.10563781489129E-02 
374	 5.22866034059336E-02 
375	 5.33615128697678E-02 
376	 5.41209262691049E-02 
377	 5.26167673868298E-02 
378	 4.96855152085448E-02 
379	 4.91542830241885E-02 
380	 5.01746933924632E-02 
381	 0.051875579944589 
382	 0.051663470008917 
383	 5.05404910658433E-02 
384	 5.01948134637686E-02 
385	 0.051081198407176 
386	 5.27823113581873E-02 
387	 5.39219051010548E-02 
388	 5.38469015431968E-02 
389	 5.24758094028606E-02 
390	 5.09623254426983E-02 
391	 5.05346882315386E-02 
392	 5.23384056081287E-02 
393	 5.31328374271667E-02 
394	 5.24696015917443E-02 
395	 5.12278564793957E-02 
396	 5.06265439051212E-02 
397	 5.09971723193003E-02 
398	 5.10750750866838E-02 
399	 5.04903252511807E-02 
400	 4.90698093129775E-02 
401	 4.96311123257977E-02 
402	 5.14366644980437E-02 
403	 5.14560778012513E-02 
404	 5.14495467696061E-02 
405	 5.20654246071221E-02 
406	 0.052668990415429 
407	 5.29575269621352E-02 
408	 5.26481411572107E-02 
409	 5.23895258103407E-02 
410	 5.21933019492084E-02 
411	 5.14619635204918E-02 
412	 5.13694371596331E-02 
413	 5.22543754498594E-02 
414	 0.052542509082445 
415	 5.24002655815804E-02 
416	 5.22563683686226E-02 
417	 0.052193998647502 
418	 5.22673699507885E-02 
419	 5.25539079390296E-02 
420	 5.26012439476865E-02 
421	 5.23148597326003E-02 
422	 5.29086154476896E-02 
423	 5.37640193634969E-02 
424	 5.38221497275484E-02 
425	 5.35678341701523E-02 
426	 5.33320525014776E-02 
427	 5.38578310059731E-02 
428	 5.42778840379235E-02 
429	 5.41239550286768E-02 
430	 5.45996371842329E-02 
431	 5.51548575356309E-02 
432	 5.46622004185622E-02 
433	 5.37758949087053E-02 
434	 5.30190838625644E-02 
435	 5.34360783672751E-02 
436	 5.38979081081853E-02 
437	 0.053735174949981 
438	 0.054219834435311 
439	 5.49535724184569E-02 
440	 5.48903231004754E-02 
441	 5.49316590284774E-02 
442	 5.51960724601524E-02 
443	 5.49937108902979E-02 
444	 5.47717013303239E-02 
445	 5.49300450959108E-02 
446	 5.55930034201641E-02 
447	 5.64193866354675E-02 
448	 5.66871758036168E-02 
449	 5.65889459193232E-02 
450	 5.63040324095019E-02 
451	 5.63614977051072E-02 
452	 5.66974162400113E-02 
453	 0.057176452041015 
454	 5.71014927715686E-02 
455	 5.67254864565888E-02 
456	 5.71806519064996E-02 
457	 5.74556981808401E-02 
458	 5.72936070724214E-02 
459	 5.77789202623873E-02 
460	 5.82828053923492E-02 
461	 5.79843765400277E-02 
462	 0.057664647001574 
463	 5.75173856422999E-02 
464	 5.75169768453636E-02 
465	 5.76108347814981E-02 
466	 5.77699426286996E-02 
467	 5.80735884874982E-02 
468	 5.82441668366571E-02 
469	 5.78763910039629E-02 
470	 5.80465212033495E-02 
471	 5.87602929153244E-02 
472	 5.90279990901261E-02 
473	 5.89997192775152E-02 
474	 5.87782207728393E-02 
475	 5.83394388189277E-02 
476	 5.80831167621318E-02 
477	 5.87130485134993E-02 
478	 0.058798098108877 
479	 5.82212790088105E-02 
480	 5.83770036894664E-02 
481	 5.88121428182591E-02 
482	 5.91093924683049E-02 
483	 5.91372270601791E-02 
484	 5.90516470547315E-02 
485	 5.93394728916544E-02 
486	 5.93221553840246E-02 
487	 5.90157535812597E-02 
488	 5.99328969196215E-02 
489	 6.05686057937479E-02 
490	 5.94396540364957E-02 
491	 5.88033002213507E-02 
492	 5.90307390352638E-02 
493	 5.98700233023917E-02 
494	 6.06027930423259E-02 
495	 6.08227249802726E-02 
496	 6.04471154700299E-02 
497	 6.01453675505155E-02 
498	 6.07680001004071E-02 
499	 6.12839985265204E-02 
500	 6.14261815311918E-02 
501	 6.11914654278766E-02 
502	 6.12677905289961E-02 
503	 6.19668123337581E-02 
504	 6.21694353066516E-02 
505	 6.21306059013275E-02 
506	 6.25183344000088E-02 
507	 0.062900944985667 
508	 6.31775925962897E-02 
509	 6.34377929025448E-02 
510	 6.36618740116002E-02 
511	 6.38368495454129E-02 
512	 6.39720075333185E-02 
513	 6.41746048137156E-02 
514	 6.47110375922016E-02 
515	 6.51015890408605E-02 
516	 6.52424661278783E-02 
517	 6.56445520483016E-02 
518	 6.61022527938692E-02 
519	 6.63583545745901E-02 
520	 6.65755524196795E-02 
521	 6.68451901840569E-02 
522	 6.73404038337543E-02 
523	 6.77368100293798E-02 
524	 6.79466907194414E-02 
525	 6.84693765317706E-02 
526	 6.90563372022762E-02 
527	 6.92838131611198E-02 
528	 6.95532841578115E-02 
529	 6.99014412626895E-02 
530	 7.00664200050412E-02 
531	 0.070316595720821 
532	 7.08245790164307E-02 
533	 7.14771789161871E-02 
534	 7.19456014819587E-02 
535	 7.15847036280755E-02 
536	 7.16654819757484E-02 
537	 7.24356556195728E-02 
538	 0.072930573422911 
539	 7.32771830464804E-02 
540	 7.36232704374458E-02 
541	 7.36229426465436E-02 
542	 7.34554250171242E-02 
543	 7.37229561697647E-02 
544	 7.40990680570864E-02 
545	 7.44409574295946E-02 
546	 7.47654519873544E-02 
547	 7.49778253075527E-02 
548	 7.49609659672607E-02 
549	 0.07514410174459 
550	 7.55983739233023E-02 
551	 7.62065536276998E-02 
552	 7.65707744860871E-02 
553	 7.64658901385144E-02 
554	 7.63288606738295E-02 
555	 7.63069027785747E-02 
556	 7.65324597654718E-02 
557	 7.68113044787277E-02 
558	 7.70583440844829E-02 
559	 7.72524394965101E-02 
560	 7.73785280614876E-02 
561	 7.74264580276641E-02 
562	 7.73712370516266E-02 
563	 7.73240216760199E-02 
564	 7.76058958284157E-02 
565	 0.077710431335143 
566	 7.74728784776559E-02 
567	 7.72946490005045E-02 
568	 7.72545115093214E-02 
569	 7.73980654964136E-02 
570	 7.73919491111744E-02 
571	 7.72837090865697E-02 
572	 0.07759716144334 
573	 7.76830979349247E-02 
574	 7.72481536404109E-02 
575	 7.73815452020858E-02 
576	 7.77758833439314E-02 
577	 7.75996343105291E-02 
578	 7.73563910039084E-02 
579	 7.71955510755435E-02 
580	 7.70673100800822E-02 
581	 7.69554045437968E-02 
582	 7.68592127779174E-02 
583	 0.076987676421244 
584	 7.72456686514861E-02 
585	 7.73163609504053E-02 
586	 7.73314231841008E-02 
587	 7.73182723837674E-02 
588	 7.71733056608382E-02 
589	 7.69979875632331E-02 
590	 7.69364783391361E-02 
591	 7.67442163706694E-02 
592	 7.64897012801846E-02 
593	 7.65212496534769E-02 
594	 7.67870778831135E-02 
595	 7.71692827661105E-02 
596	 7.69706901683971E-02 
597	 0.076612807425329 
598	 7.70184223133309E-02 
599	 7.71871438815114E-02 
600	 7.69428746089863E-02 
601	 7.69725163822021E-02 
602	 7.69223995137495E-02 
603	 7.65119207779566E-02 
604	 7.65227978075788E-02 
605	 7.67870209413132E-02 
606	 7.64816453089125E-02 
607	 7.63811470960778E-02 
608	 0.076674122744155 
609	 7.65316979674936E-02 
610	 0.076253129439568 
611	 7.63010236054216E-02 
612	 7.63682182874557E-02 
613	 7.63609047065567E-02 
614	 7.62050171946159E-02 
615	 7.61255395259966E-02 
616	 7.62067895179405E-02 
617	 0.075916782151249 
618	 7.54788801557582E-02 
619	 7.53790082278244E-02 
620	 0.075504056425154 
621	 7.56976184992869E-02 
622	 7.54312749323939E-02 
623	 7.50858411841346E-02 
624	 7.50271757260794E-02 
625	 0.075160610973324 
626	 7.53621434225778E-02 
627	 7.53611615063589E-02 
628	 7.53705715871056E-02 
629	 7.54384664876964E-02 
630	 7.53609242389782E-02 
631	 7.51812839133411E-02 
632	 7.49781628684364E-02 
633	 0.075091349919459 
634	 7.54371805706491E-02 
635	 7.54604591594788E-02 
636	 7.54821480213917E-02 
637	 7.56378652990118E-02 
638	 7.54433961693599E-02 
639	 7.50649029933309E-02 
640	 7.48857318102064E-02 
641	 7.48987238331031E-02 
642	 7.50565276060578E-02 
643	 7.51109615508591E-02 
644	 7.51399612195529E-02 
645	 7.52131545382194E-02 
646	 7.52821358052489E-02 
647	 7.51501505786743E-02 
648	 7.42442000424925E-02 
649	 7.37685770301876E-02 
650	 7.40807807516893E-02 
651	 0.074043504456689 
652	 7.38703396743373E-02 
653	 7.39264936714473E-02 
654	 0.073911615320006 
655	 7.37345927252305E-02 
656	 7.33787031014317E-02 
657	 7.29402207755603E-02 
658	 7.25050455207988E-02 
659	 0.071967322067322 
660	 7.15945470938948E-02 
661	 7.18896282807718E-02 
662	 7.15385740047333E-02 
663	 7.04981621758398E-02 
664	 7.03137592487896E-02 
665	 7.04326040211427E-02 
666	 7.03269664592879E-02 
667	 6.98623162540519E-02 
668	 6.92886869777933E-02 
669	 6.93852771253603E-02 
670	 6.89307233179114E-02 
671	 6.78325554507758E-02 
672	 6.82167189306622E-02 
673	 6.90557251840759E-02 
674	 6.90011904858356E-02 
675	 6.86890178544037E-02 
676	 0.068456499262976 
677	 6.89365542261059E-02 
678	 6.93216593204153E-02 
679	 6.92281198766947E-02 
680	 6.92831052989977E-02 
681	 6.95824095664945E-02 
682	 7.01536292845297E-02 
683	 7.07581983786615E-02 
684	 7.12695910071466E-02 
685	 7.15002543074118E-02 
686	 7.20740335562319E-02 
687	 7.34643330828708E-02 
688	 0.074186921170252 
689	 7.45326489031562E-02 
690	 7.59090075097661E-02 
691	 7.73406964578907E-02 
692	 7.85779910352428E-02 
693	 0.079839503170383 
694	 8.10923455692762E-02 
695	 8.22560019932733E-02 
696	 8.37983887925981E-02 
697	 8.54539305392042E-02 
698	 8.62608238203355E-02 
699	 8.72063283506842E-02 
700	 8.86884757259826E-02 
701	 9.00622627430082E-02 
702	 9.12289201116596E-02 
703	 9.21711808848914E-02 
704	 9.28935330135821E-02 
705	 9.35442128045655E-02 
706	 9.45395182679936E-02 
707	 9.54711958429016E-02 
708	 9.60867249278767E-02 
709	 9.66219893935642E-02 
710	 9.72988875352705E-02 
711	 9.84814442607615E-02 
712	 9.94465740658227E-02 
713	 0.100042963943063 
714	 0.100788500131162 
715	 0.101439597340154 
716	 0.101817365659351 
717	 0.102680770927784 
718	 0.103845391474004 
719	 0.104031321081518 
720	 0.104145329695137 
721	 0.104480834069373 
722	 0.104654823346609 
723	 0.104780622682171 
724	 0.10498523740991 
725	 0.10534804821457 
726	 0.105897649287851 
727	 0.106778805758485 
728	 0.107394571179335 
729	 0.107483566501839 
730	 0.107601260291851 
731	 0.107838051682674 
732	 0.108228145674791 
733	 0.108061407222499 
734	 0.107593928980563 
735	 0.108255979265715 
736	 0.10900142978168 
737	 0.10909406345471 
738	 0.108744993968787 
739	 0.108466580514217 
740	 0.109144401196732 
741	 0.109818559512633 
742	 0.110132772002243 
743	 0.110034468934287 
744	 0.10986482729322 
745	 0.10992535679089 
746	 0.11023367615863 
747	 0.110545519553154 
748	 0.110204910908011 
749	 0.110260963600134 
750	 0.110926625761993 
751	 0.111149516229247 
752	 0.111005860807392 
753	 0.110691823068905 
754	 0.110805367130768 
755	 0.111282738332219 
756	 0.111571271599974 
757	 0.111697761564249 
758	 0.111702894358351 
759	 0.111976489776948 
760	 0.112516633031393 
761	 0.112582821926904 
762	 0.112284111883613 
763	 0.112095518342646 
764	 0.112737946001993 
765	 0.113421459446652 
766	 0.113765594184978 
767	 0.113560572321066 
768	 0.113270400665815 
769	 0.113435453048588 
770	 0.113420015608353 
771	 0.113233094307375 
772	 0.113504864466988 
773	 0.113663210985706 
774	 0.113374826042433 
775	 0.113278514228942 
776	 0.113401947601695 
777	 0.113609311947389 
778	 0.114014877795245 
779	 0.11448526820924 
780	 0.114363144829467 
781	 0.114360842680918 
782	 0.114974888221194 
783	 0.115034799857663 
784	 0.114755912726571 
785	 0.115004781465121 
786	 0.115258764774952 
787	 0.115329477786544 
788	 0.115089986631089 
789	 0.115055586703125 
790	 0.115657120188228 
791	 0.116010963191942 
792	 0.11601966949925 
793	 0.11586000756437 
794	 0.115818534000822 
795	 0.115981826472261 
796	 0.116106387801783 
797	 0.116116558612845 
798	 0.115968937580323 
799	 0.11589989784175 
800	 0.116014683580441 
801	 0.116473901722934 
802	 0.116853876987014 
803	 0.116907516598024 
804	 0.1163793398532 
805	 0.115984283650998 
806	 0.116470287202756 
807	 0.11701296844721 
808	 0.117314566149932 
809	 0.117064784636244 
810	 0.116729544876052 
811	 0.116645644366684 
812	 0.11736433539338 
813	 0.118239126115852 
814	 0.118363363255611 
815	 0.118687191864505 
816	 0.119195539337816 
817	 0.119168640847487 
818	 0.118832272983813 
819	 0.118418615320756 
820	 0.118455379313581 
821	 0.118794588587848 
822	 0.119194183102462 
823	 0.118880275207587 
824	 0.118254332162903 
825	 0.118897447662951 
826	 0.119819169206319 
827	 0.120528308879225 
828	 0.120745145111057 
829	 0.120396334771764 
830	 0.11950090092236 
831	 0.119188869821055 
832	 0.119536682538361 
833	 0.11998291912887 
834	 0.12008312997413 
835	 0.119721613016957 
836	 0.119636113911494 
837	 0.119694126048319 
838	 0.119679690643014 
839	 0.119910941102995 
840	 0.120275503724238 
841	 0.120221273342899 
842	 0.120562463439528 
843	 0.121386974129633 
844	 0.121165829583892 
845	 0.120350621978948 
846	 0.119638965655161 
847	 0.119938429158721 
848	 0.120860528213257 
849	 0.120651356670859 
850	 0.120586549256646 
851	 0.121035026735257 
852	 0.121092866326153 
853	 0.120780852417745 
854	 0.120237312495633 
855	 0.119890727688572 
856	 0.119929690140814 
857	 0.120547065887099 
858	 0.12125247448686 
859	 0.121678454748936 
860	 0.121089395006496 
861	 0.120470987754799 
862	 0.120742555482516 
863	 0.120603597192312 
864	 0.12041525036986 
865	 0.121774203987805 
866	 0.121412482438458 
867	 0.119300146556998 
868	 0.120853185336922 
869	 0.122787944305151 
870	 0.122417091126612 
871	 0.122409228030496 
872	 0.122776549754504 
873	 0.122786278430351 
874	 0.122426952684594 
875	 0.121924501878911 
876	 0.122192560760928 
877	 0.122693959795085 
878	 0.122993899462585 
879	 0.122927118066272 
880	 0.122965768918353 
881	 0.123947305702501 
882	 0.123366582508787 
883	 0.121402269026495 
884	 0.121072897962533 
885	 0.12147883815729 
886	 0.122029451747907 
887	 0.122156433272499 
888	 0.1226775822002 
889	 0.124705166071713 
890	 0.12505198917174 
891	 0.123743454942657 
892	 0.123253280905506 
893	 0.123625271996645 
894	 0.124646331109928 
895	 0.12398395543001 
896	 0.123586582442718 
897	 0.125744663391762 
898	 0.125868262499911 
899	 0.124442989871543 
900	 0.125198679900909 
901	 0.126036935062211 
902	 0.126176820844415 
903	 0.125231739020835 
904	 0.124392447215655 
905	 0.124575263825507 
906	 0.125038004905396 
907	 0.125740864607427 
908	 0.126855428851858 
909	 0.126937433894137 
910	 0.125724853325048 
911	 0.123720360397026 
912	 0.123976304673153 
913	 0.127504356695245 
914	 0.128666555108828 
915	 0.128041423594457 
916	 0.127193047113563 
917	 0.126696138133098 
918	 0.126400579541179 
919	 0.124891824876724 
920	 0.12601312640413 
921	 0.129656378345623 
922	 0.128083552844401 
923	 0.126074804051347 
924	 0.127884154310055 
925	 0.126791318722616 
926	 0.124795094611271 
927	 0.128831555988913 
928	 0.131855152638055 
929	 0.130871053739646 
930	 0.124835682868822 
931	 0.120599849270732 
932	 0.123423805380114 
933	 0.121952525449971 
934	 0.119984014523947 
935	 0.125202193878111 
936	 0.130961926831595 
937	 0.134189938860632 
938	 0.132068506789283 
939	 0.129688649926416 
940	 0.128903238197279 
941	 0.129302926457509 
942	 0.129441057670009 
943	 0.128414948527465 
944	 0.128017985121851 
945	 0.128395544512197 
946	 0.129351991611298 
947	 0.12971173869579 
948	 0.129440102619683 
949	 0.129376345036909 
950	 0.131021665059312 
951	 0.133681924469196 
952	 0.130107501421856 
953	 0.125707149021728 
954	 0.125681479646874 
955	 0.126321024739593 
956	 0.127588934741449 
957	 0.130589554609216 
958	 0.130691171849757 
959	 0.127476000972311 
960	 0.122572840155543 
961	 0.124140945220585 
962	 0.13361925292571 
963	 0.137175064012458 
964	 0.135616695764398 
965	 0.13123387974476 
966	 0.129075449845017 
967	 0.128527223589669 
968	 0.126226420891508 
969	 0.124102156763691 
970	 0.122960739448725 
971	 0.123841347271349 
972	 0.124418621581161 
973	 0.124256355896309 
974	 0.129419718301947 
975	 0.13527102023965 
976	 0.136016158976142 
977	 0.132603191353299 
978	 0.127225021549381 
979	 0.123893344697407 
980	 0.125516552467715 
981	 0.130397520462294 
982	 0.129207600155703 
983	 0.126842602506771 
984	 0.126800337026575 
985	 0.132589753832326 
986	 0.137966937518833 
987	 0.136085987561612 
988	 0.127703005811633 
989	 0.120605611718424 
990	 0.12975745585798 
991	 0.134120908709793 
992	 0.130656514314539 
993	 0.132338738218757 
994	 0.135418328408747 
995	 0.137014966464108 
996	 0.131689569609347 
997	 0.126461252774148 
998	 0.128478842234855 
999	 0.132558279933419 
1000	 0.135180412385253 
1001	 0.132119450367238 
1002	 0.127891927861295 
1003	 0.125038428727481 
1004	 0.127024880576739 
1005	 0.131344717006404 
1006	 0.134436384593342 
1007	 0.124135916670891 
1008	 0.119606695020644 
1009	 0.133149551566235 
1010	 0.133630056084878 
1011	 0.12715274942859 
1012	 0.127710904423813 
1013	 0.132836835744416 
1014	 0.137946724427295 
1015	 0.133719492093489 
1016	 0.126166871193272 
1017	 0.120113846507701 
1018	 0.125381390332483 
1019	 0.132328700705919 
1020	 0.135104437268784 
1021	 0.133717500573655 
1022	 0.133247439961637 
1023	 0.137900641633163 
1024	 0.138642407287657 
1025	 0.133395708344493 
1026	 0.121503578122543 
1027	 0.116746351372225 
1028	 0.121204205922466 
1029	 0.128957381104916 
1030	 0.134401885568703 
1031	 0.135412532340207 
1032	 0.13673362569549 
1033	 0.131356438581674 
1034	 0.12012591121752 
1035	 0.136926746347869 
1036	 0.153215184827931 
1037	 0.139223397065788 
1038	 0.130938817698117 
1039	 0.130990226037942 
1040	 0.131946856249951 
1041	 0.12814289885104 
1042	 0.122831140218167 
1043	 0.129809244131847 
1044	 0.134913645668261 
1045	 0.134788526335508 
1046	 0.143039003184967 
1047	 0.140048112742695 
1048	 0.118352990678853 
1049	 0.11416270531864 
1050	 0.114901250733824 
1051	 0.107639378433145 
1052	 0.125381630533171 
1053	 0.143299243095461 
1054	 0.11803116573494 
1055	 0.121263485166317 
1056	 0.149326935787129 
1057	 0.15664271488734 
1058	 0.144267688545461 
1059	 0.121209334364795 
1060	 0.132852004826854 
1061	 0.14095794049443 
1062	 0.133265633029864 
1063	 0.141206462213046 
1064	 0.14476317303434 
1065	 0.134386190080263 
1066	 0.156105552235836 
1067	 0.176349579158528 
1068	 0.158156320273177 
1069	 0.146217510575238 
1070	 0.138731733817744 
1071	 0.118755761393658 
1072	 0.112533281223283 
1073	 0.116903176043673 
1074	 0.108274251457084 
1075	 0.112829015736712 
