Wavelength	A00133.asd
325	 0.03175083590178 
326	 3.66783408576503E-02 
327	 4.35938253843927E-02 
328	 0.042111251999422 
329	 4.09482947203855E-02 
330	 4.23244165993677E-02 
331	 3.94148509754753E-02 
332	 3.72852298011063E-02 
333	 4.09091561844284E-02 
334	 4.31908636374249E-02 
335	 4.30880294709406E-02 
336	 4.06329380305729E-02 
337	 4.12933505269551E-02 
338	 4.51699086893848E-02 
339	 4.42425299204577E-02 
340	 4.23527066248648E-02 
341	 4.29017776755393E-02 
342	 0.04469439639535 
343	 4.64520492957788E-02 
344	 4.64886959493677E-02 
345	 0.044854253848877 
346	 4.22334640123038E-02 
347	 4.03581667085526E-02 
348	 4.15661007410386E-02 
349	 4.62942279006092E-02 
350	 4.60230036014766E-02 
351	 4.27270555608777E-02 
352	 4.10731363244423E-02 
353	 4.04838888503118E-02 
354	 4.11580555252297E-02 
355	 4.42070980584489E-02 
356	 0.045162523010434 
357	 4.21390905656667E-02 
358	 4.26975060927503E-02 
359	 0.045042936078002 
360	 4.51909478035383E-02 
361	 4.35266546114637E-02 
362	 0.041375258729084 
363	 4.26932614846315E-02 
364	 4.43488710474043E-02 
365	 4.46570439102412E-02 
366	 0.04449857174291 
367	 4.42840759927767E-02 
368	 4.44243102637558E-02 
369	 4.54183548116057E-02 
370	 4.65297408504308E-02 
371	 4.47744016709529E-02 
372	 4.41148763894075E-02 
373	 4.62303931057299E-02 
374	 4.64865210909575E-02 
375	 4.57170785160652E-02 
376	 4.57437473911935E-02 
377	 4.59755833590581E-02 
378	 4.59138550000479E-02 
379	 4.39618563233949E-02 
380	 4.39464269011318E-02 
381	 4.70173679841469E-02 
382	 4.71406928388102E-02 
383	 4.59149663321478E-02 
384	 4.62134604220098E-02 
385	 4.72416952230642E-02 
386	 4.78616755457736E-02 
387	 4.48506359621636E-02 
388	 0.044365462816319 
389	 4.79448561344577E-02 
390	 0.047012587794154 
391	 4.52692804505659E-02 
392	 4.77255441474664E-02 
393	 4.71945270164559E-02 
394	 4.44694478984291E-02 
395	 4.63337282319111E-02 
396	 4.71886207849562E-02 
397	 4.52755503274493E-02 
398	 4.45072912685913E-02 
399	 4.42484229007674E-02 
400	 4.35388770893882E-02 
401	 4.41890944168677E-02 
402	 4.55584941269446E-02 
403	 4.52725772781952E-02 
404	 4.55466039794937E-02 
405	 4.69743889566223E-02 
406	 4.72225108460057E-02 
407	 4.68799669196965E-02 
408	 4.69247233838564E-02 
409	 4.66401574182438E-02 
410	 4.61363852421826E-02 
411	 4.59826441115482E-02 
412	 4.63914831965172E-02 
413	 0.047255318626785 
414	 4.73063015670148E-02 
415	 4.69444678447877E-02 
416	 4.68482248499634E-02 
417	 4.67070216923948E-02 
418	 4.66094015050506E-02 
419	 4.70199044239871E-02 
420	 4.73149348356559E-02 
421	 4.72101051729585E-02 
422	 4.72651935336218E-02 
423	 4.75593925741309E-02 
424	 4.81150607882299E-02 
425	 4.84824895714887E-02 
426	 4.85995645460491E-02 
427	 4.87543444514224E-02 
428	 4.88187888177642E-02 
429	 4.87352111076676E-02 
430	 4.87478798827502E-02 
431	 4.87253012800704E-02 
432	 4.84150369333524E-02 
433	 4.77912640095784E-02 
434	 4.72420811690191E-02 
435	 4.80604466687404E-02 
436	 4.89103344471706E-02 
437	 4.89749533489528E-02 
438	 4.95521782687037E-02 
439	 5.02036200892564E-02 
440	 4.98032712915962E-02 
441	 4.93444355246142E-02 
442	 4.92665434219181E-02 
443	 5.00421396440776E-02 
444	 5.05401029176352E-02 
445	 4.99575631493379E-02 
446	 0.050092365933951 
447	 5.07826699782884E-02 
448	 5.10208928937723E-02 
449	 0.051051384129114 
450	 5.10047297298095E-02 
451	 5.12285873256673E-02 
452	 5.15447117656998E-02 
453	 5.17515132809104E-02 
454	 5.18073923912321E-02 
455	 5.18300564491597E-02 
456	 5.22031405582369E-02 
457	 5.24063618734924E-02 
458	 5.22650369731056E-02 
459	 5.21552613634736E-02 
460	 5.20358261679155E-02 
461	 5.18278737634599E-02 
462	 5.18741115645031E-02 
463	 5.21323939791287E-02 
464	 5.22309124298017E-02 
465	 5.22988768523989E-02 
466	 5.23854231131006E-02 
467	 5.23901386322576E-02 
468	 5.24081937787387E-02 
469	 5.25865011216273E-02 
470	 5.28237299089661E-02 
471	 5.29861465205028E-02 
472	 5.26951848215561E-02 
473	 0.052561233602902 
474	 0.052921467665112 
475	 5.31223286495308E-02 
476	 5.31445330195846E-02 
477	 5.31283381946045E-02 
478	 5.29668406978644E-02 
479	 5.27760858555138E-02 
480	 5.30594827017204E-02 
481	 5.35519553383752E-02 
482	 0.053988694376691 
483	 0.053983932079144 
484	 5.37808497489763E-02 
485	 5.41673372699803E-02 
486	 5.42994173435399E-02 
487	 5.40340537645933E-02 
488	 5.43635458338192E-02 
489	 5.46034548948645E-02 
490	 5.40559028298563E-02 
491	 5.36887032753241E-02 
492	 5.37320705559205E-02 
493	 5.42958211952259E-02 
494	 5.46666541809965E-02 
495	 5.45851325453481E-02 
496	 5.46823644536544E-02 
497	 5.49398586900075E-02 
498	 5.52541290893603E-02 
499	 5.55303768287309E-02 
500	 0.055719885115489 
501	 5.57305716731196E-02 
502	 5.59879171185822E-02 
503	 5.66376579564089E-02 
504	 5.66480164284226E-02 
505	 5.64887360035798E-02 
506	 5.71810177571886E-02 
507	 5.74231800378972E-02 
508	 0.057159519329776 
509	 5.77188849342306E-02 
510	 5.83484952851342E-02 
511	 5.84454576145726E-02 
512	 5.85213544558172E-02 
513	 0.058768565183553 
514	 5.94542939268434E-02 
515	 6.00862258139972E-02 
516	 6.04510174940202E-02 
517	 6.05381944819843E-02 
518	 6.07225648274968E-02 
519	 6.13722375903915E-02 
520	 6.17247576501356E-02 
521	 6.18520182636064E-02 
522	 6.23694462826141E-02 
523	 6.29809866271816E-02 
524	 6.35889504557752E-02 
525	 6.44858860227765E-02 
526	 6.52579885624388E-02 
527	 6.52913409843262E-02 
528	 0.065466583379035 
529	 0.065905842469718 
530	 6.61352240251587E-02 
531	 6.64393403303955E-02 
532	 6.69931604238602E-02 
533	 6.75757974278353E-02 
534	 6.80391610016744E-02 
535	 0.068156802282107 
536	 6.83832884204372E-02 
537	 6.88297788934894E-02 
538	 6.92649642445698E-02 
539	 6.95267428487369E-02 
540	 6.94968236052527E-02 
541	 6.97438081787833E-02 
542	 7.01796992994353E-02 
543	 7.02399915478764E-02 
544	 0.070332380033122 
545	 7.06325157080516E-02 
546	 7.11093189759567E-02 
547	 0.071561463212766 
548	 7.17378260385072E-02 
549	 7.17648810121884E-02 
550	 0.071835735570726 
551	 7.24652626148555E-02 
552	 0.07311807104935 
553	 7.34153740925242E-02 
554	 7.32811357611635E-02 
555	 7.30477391089846E-02 
556	 7.33442562104327E-02 
557	 7.36024245180016E-02 
558	 7.36784672390424E-02 
559	 7.38025505710088E-02 
560	 7.39181525017961E-02 
561	 7.39720580736011E-02 
562	 7.40572550362049E-02 
563	 7.41598353041675E-02 
564	 7.42005840248885E-02 
565	 7.42282725176423E-02 
566	 7.42370930048188E-02 
567	 7.41078189904335E-02 
568	 7.38529720801485E-02 
569	 7.35042742980555E-02 
570	 7.34782607253275E-02 
571	 7.37229984847107E-02 
572	 7.37068724187752E-02 
573	 0.073501581114898 
574	 7.32112561434848E-02 
575	 7.33912221549077E-02 
576	 7.36589949830775E-02 
577	 0.073152621150918 
578	 7.29587771201582E-02 
579	 7.32002253394666E-02 
580	 7.28077731350651E-02 
581	 7.23597627321173E-02 
582	 7.23864318203376E-02 
583	 7.25097272261459E-02 
584	 0.072655467333897 
585	 7.28184438826999E-02 
586	 7.30437240278061E-02 
587	 7.32332742133809E-02 
588	 7.27177277623629E-02 
589	 7.21232918177193E-02 
590	 0.072341009985716 
591	 7.25479587867053E-02 
592	 7.25310602829017E-02 
593	 0.072306293610867 
594	 0.072099655875376 
595	 7.20667921217422E-02 
596	 7.22456683511834E-02 
597	 7.24616885863971E-02 
598	 7.24123345644046E-02 
599	 7.23122056383421E-02 
600	 7.22059864383559E-02 
601	 7.19488233643128E-02 
602	 7.18715455265304E-02 
603	 0.072221039562311 
604	 7.22925103266414E-02 
605	 7.20891965869446E-02 
606	 7.19547276734271E-02 
607	 7.18430720081395E-02 
608	 7.17685612314052E-02 
609	 7.18518038978927E-02 
610	 0.071798538435297 
611	 7.12439973059152E-02 
612	 7.11954913543423E-02 
613	 7.16165415679997E-02 
614	 7.15665381621594E-02 
615	 7.11755670386132E-02 
616	 7.05939431001209E-02 
617	 7.04201296134399E-02 
618	 7.04327847120086E-02 
619	 7.00645520950665E-02 
620	 7.00007479673943E-02 
621	 7.02802026155299E-02 
622	 7.02108359276782E-02 
623	 6.98927983857605E-02 
624	 0.069490198218338 
625	 6.97102051809734E-02 
626	 7.02330446081064E-02 
627	 6.98244864239225E-02 
628	 6.96954394936546E-02 
629	 7.01931504984594E-02 
630	 7.03443002669412E-02 
631	 7.02623353294562E-02 
632	 7.01974614978942E-02 
633	 7.02782055941935E-02 
634	 7.04043647501824E-02 
635	 0.070127983543601 
636	 6.97779624119215E-02 
637	 6.95601172459928E-02 
638	 6.93844025074531E-02 
639	 6.92931074745889E-02 
640	 6.93860055188198E-02 
641	 6.94097836332056E-02 
642	 6.92458287315092E-02 
643	 6.88040286495295E-02 
644	 6.83620871119418E-02 
645	 6.81643339196852E-02 
646	 6.81045208669514E-02 
647	 6.80044892961822E-02 
648	 6.74149805592554E-02 
649	 6.70572581670668E-02 
650	 0.06713783908885 
651	 0.066984388365349 
652	 6.67157967747529E-02 
653	 6.65392269472169E-02 
654	 6.67015959308512E-02 
655	 6.69730253604306E-02 
656	 6.63117769411394E-02 
657	 6.56210213681069E-02 
658	 6.54179730794776E-02 
659	 6.49913346278726E-02 
660	 6.45073719640997E-02 
661	 6.43926294917791E-02 
662	 6.39003954498597E-02 
663	 6.30453198274104E-02 
664	 6.28067980863525E-02 
665	 6.28362530796123E-02 
666	 6.27840969365797E-02 
667	 6.24011595048449E-02 
668	 6.18546875496394E-02 
669	 6.17253748337813E-02 
670	 6.12833590517671E-02 
671	 6.05282260998004E-02 
672	 0.060990508889064 
673	 6.16814284477696E-02 
674	 6.13679862903332E-02 
675	 6.12246529298003E-02 
676	 6.13793813999933E-02 
677	 6.13562445803575E-02 
678	 6.15068973546625E-02 
679	 6.19833874457117E-02 
680	 6.24941692636144E-02 
681	 0.062827404706968 
682	 6.26889048398156E-02 
683	 6.31840234622979E-02 
684	 6.43532794751026E-02 
685	 6.49852595177686E-02 
686	 6.57112882982909E-02 
687	 0.067018466417037 
688	 6.78213701592953E-02 
689	 6.82632968312285E-02 
690	 6.91525710215884E-02 
691	 7.08477629808886E-02 
692	 0.07323463297687 
693	 0.07492047274824 
694	 7.64196809197863E-02 
695	 7.82690664136563E-02 
696	 7.99498429255984E-02 
697	 8.14588080669069E-02 
698	 0.083064583525602 
699	 8.48076780664679E-02 
700	 8.66408338027879E-02 
701	 8.82269061269413E-02 
702	 8.97283613394486E-02 
703	 9.14320443256226E-02 
704	 9.28130268578279E-02 
705	 9.39382791579986E-02 
706	 9.54845137686456E-02 
707	 9.67347321659331E-02 
708	 9.73167911561442E-02 
709	 9.82554907692453E-02 
710	 9.95559150257264E-02 
711	 0.100986028998268 
712	 0.102030154683987 
713	 0.10268958228699 
714	 0.10385473743957 
715	 0.105139623473243 
716	 0.106214962281251 
717	 0.107160955471284 
718	 0.108000436677408 
719	 0.108737565874481 
720	 0.109225760051827 
721	 0.109491988327778 
722	 0.109817812373171 
723	 0.110242536649572 
724	 0.11076839788557 
725	 0.11162919417389 
726	 0.112526398362053 
727	 0.112609495678542 
728	 0.112671264485049 
729	 0.113092019010014 
730	 0.113451490509024 
731	 0.113808188849998 
732	 0.114307524329168 
733	 0.114465528818323 
734	 0.114399304233724 
735	 0.114840092947483 
736	 0.11545233514313 
737	 0.115938881161582 
738	 0.115892276996138 
739	 0.115728703998165 
740	 0.116340335884135 
741	 0.116785632911502 
742	 0.116840687527896 
743	 0.116930874895929 
744	 0.116881726547361 
745	 0.116598700660293 
746	 0.116885633466657 
747	 0.117575881033603 
748	 0.117980359570676 
749	 0.11815158102369 
750	 0.118114437747245 
751	 0.118061991707138 
752	 0.118123119741131 
753	 0.118399180490822 
754	 0.118531350298152 
755	 0.118567744452284 
756	 0.118947273524851 
757	 0.118939599553708 
758	 0.118330515697687 
759	 0.11850016759858 
760	 0.119646724183597 
761	 0.120621836832749 
762	 0.120452595205166 
763	 0.119844309933941 
764	 0.120780031557345 
765	 0.121163828304183 
766	 0.120575138706542 
767	 0.120914021301675 
768	 0.121474053184553 
769	 0.121278628178707 
770	 0.121280661871495 
771	 0.121466784750143 
772	 0.120822585319987 
773	 0.120742778311462 
774	 0.121942072130028 
775	 0.121941612053859 
776	 0.12134676254114 
777	 0.121902713340558 
778	 0.122426567139638 
779	 0.122560272500735 
780	 0.122283383913467 
781	 0.122200402183708 
782	 0.122746980196467 
783	 0.123187838559835 
784	 0.123393884384064 
785	 0.12338512814493 
786	 0.123213542248373 
787	 0.123050716668026 
788	 0.123523197324718 
789	 0.124016574043504 
790	 0.123967278415456 
791	 0.124230084453486 
792	 0.124600164774628 
793	 0.124135835679028 
794	 0.124054012828844 
795	 0.124622036935692 
796	 0.124757052733271 
797	 0.124828002727281 
798	 0.125228122411979 
799	 0.125203285931412 
800	 0.124769339110347 
801	 0.124230046097948 
802	 0.124411334466894 
803	 0.125423985658512 
804	 0.125793479776014 
805	 0.125686394963615 
806	 0.125447302346937 
807	 0.12567297120717 
808	 0.1262709497159 
809	 0.126610870907807 
810	 0.12661543757622 
811	 0.126339299691514 
812	 0.126502047111699 
813	 0.126917601454582 
814	 0.127260330887004 
815	 0.128055195415806 
816	 0.128963746567687 
817	 0.128681526086763 
818	 0.128117598178227 
819	 0.127762969993423 
820	 0.127737147602045 
821	 0.127765302025924 
822	 0.127530625252165 
823	 0.127860362974411 
824	 0.128623017851684 
825	 0.128926565684229 
826	 0.129420586340243 
827	 0.130160939401418 
828	 0.129846255253944 
829	 0.128712582429172 
830	 0.127302510918226 
831	 0.127979658792297 
832	 0.130087302598556 
833	 0.130239077315608 
834	 0.130091690884198 
835	 0.130241761928179 
836	 0.130081581692282 
837	 0.129643696025274 
838	 0.129027425867394 
839	 0.128782808211278 
840	 0.128953811018737 
841	 0.129249092770185 
842	 0.129740049540109 
843	 0.130253847708401 
844	 0.129844937601626 
845	 0.129148804327801 
846	 0.128971197220996 
847	 0.129204749686444 
848	 0.12976529635665 
849	 0.130554025035069 
850	 0.13079082958763 
851	 0.130233817754939 
852	 0.129698905440788 
853	 0.129533142310595 
854	 0.129984571337536 
855	 0.130228403146316 
856	 0.130142190561077 
857	 0.129849355408279 
858	 0.129848598956392 
859	 0.130151026043025 
860	 0.129738806286518 
861	 0.12943602833458 
862	 0.130014241227242 
863	 0.130199895260638 
864	 0.1303379893432 
865	 0.131917532393053 
866	 0.132553715411398 
867	 0.131732498264172 
868	 0.1312260045537 
869	 0.131326715218251 
870	 0.132133378264022 
871	 0.13287247031484 
872	 0.133252909763111 
873	 0.132997906078579 
874	 0.133026019515035 
875	 0.133244007008706 
876	 0.131899747974962 
877	 0.130972541529367 
878	 0.131728871321605 
879	 0.132062448184255 
880	 0.132416700355887 
881	 0.13402445028861 
882	 0.133552597720386 
883	 0.13162119827584 
884	 0.133840037173064 
885	 0.135465782066617 
886	 0.134139374524645 
887	 0.133367357347257 
888	 0.133930444702716 
889	 0.136241416278336 
890	 0.136626116322041 
891	 0.134976315873513 
892	 0.133811119544702 
893	 0.133815421925412 
894	 0.135143954017062 
895	 0.135455464655151 
896	 0.135607881212686 
897	 0.136715375181029 
898	 0.136140443998655 
899	 0.134888893625418 
900	 0.136945975415787 
901	 0.137615442014469 
902	 0.136038528318646 
903	 0.135634331240751 
904	 0.136109557865063 
905	 0.13700160988327 
906	 0.136863523702859 
907	 0.136547263670627 
908	 0.138020260436938 
909	 0.138320825585363 
910	 0.137342316356255 
911	 0.138148362864495 
912	 0.139324625148718 
913	 0.139759702323052 
914	 0.137873698055601 
915	 0.136249008360028 
916	 0.138059262068315 
917	 0.13990031292528 
918	 0.139991910137193 
919	 0.135021041731689 
920	 0.134590386081396 
921	 0.140038365925356 
922	 0.13877044704948 
923	 0.136905363826701 
924	 0.139835255890644 
925	 0.137399970330681 
926	 0.132972799259564 
927	 0.137897561830319 
928	 0.140101353889238 
929	 0.136614547551239 
930	 0.135799728533244 
931	 0.136591377684121 
932	 0.137923879292423 
933	 0.137640221582242 
934	 0.135460924074698 
935	 0.132216312031365 
936	 0.139238998515288 
937	 0.150587801075687 
938	 0.14520915777518 
939	 0.138227181647582 
940	 0.1355242341636 
941	 0.140824816434756 
942	 0.143026605063437 
943	 0.135626261595792 
944	 0.136554916521957 
945	 0.142283991205303 
946	 0.143564821998712 
947	 0.142166254030483 
948	 0.139384327553608 
949	 0.137904679559957 
950	 0.139708226092951 
951	 0.144406095333414 
952	 0.145571653184743 
953	 0.142792888914179 
954	 0.13705185736437 
955	 0.137104286742173 
956	 0.140059884298206 
957	 0.137941310916922 
958	 0.138480317214151 
959	 0.140568383209387 
960	 0.13283650581943 
961	 0.132437066203657 
962	 0.144247115082973 
963	 0.1473163602325 
964	 0.145379176810993 
965	 0.14376975430122 
966	 0.144251471706719 
967	 0.144165899766052 
968	 0.137432454819871 
969	 0.13117115255044 
970	 0.128688220651855 
971	 0.133971615615654 
972	 0.137828457500951 
973	 0.13588262592717 
974	 0.135036896470879 
975	 0.137143783282922 
976	 0.142945834371377 
977	 0.144834224412225 
978	 0.14284702623048 
979	 0.140392848513173 
980	 0.139062346592542 
981	 0.139759821914392 
982	 0.143507738217338 
983	 0.144504269428373 
984	 0.140848315927665 
985	 0.14241552889107 
986	 0.14518334458219 
987	 0.14403419263583 
988	 0.141087559802028 
989	 0.138481849824436 
990	 0.139678735061537 
991	 0.140225732457562 
992	 0.139550652750375 
993	 0.140477655246242 
994	 0.142560892059771 
995	 0.144587075614359 
996	 0.141078087263547 
997	 0.137981768291146 
998	 0.140987702850151 
999	 0.140689117629303 
1000	 0.139993082027065 
1001	 0.146735907113246 
1002	 0.140260364453583 
1003	 0.125278179414917 
1004	 0.136243505702169 
1005	 0.142229104751404 
1006	 0.134411618073516 
1007	 0.136391732981905 
1008	 0.141512038913472 
1009	 0.143601585931915 
1010	 0.145427714780027 
1011	 0.145217943708154 
1012	 0.140512663881866 
1013	 0.139096201026104 
1014	 0.140955202042661 
1015	 0.141470395821272 
1016	 0.141684023282258 
1017	 0.141401181637208 
1018	 0.139421414432427 
1019	 0.13639223152165 
1020	 0.134354664063689 
1021	 0.143739626060843 
1022	 0.15113736573856 
1023	 0.144049367637399 
1024	 0.138942444673686 
1025	 0.137564296067779 
1026	 0.13811306128427 
1027	 0.139876777488264 
1028	 0.140433407533978 
1029	 0.13262932018592 
1030	 0.133905639820542 
1031	 0.144951546222245 
1032	 0.138088690938524 
1033	 0.133969441561249 
1034	 0.144559569497672 
1035	 0.154683244677868 
1036	 0.154153229852695 
1037	 0.136568509688065 
1038	 0.136025868086056 
1039	 0.143569976448717 
1040	 0.132297845317115 
1041	 0.136550576608979 
1042	 0.150138463210986 
1043	 0.130579231062667 
1044	 0.12548791942883 
1045	 0.145099601404687 
1046	 0.152215673604799 
1047	 0.149947634300688 
1048	 0.141729115490239 
1049	 0.140612295771334 
1050	 0.136565645900625 
1051	 0.121702660264119 
1052	 0.129219927980758 
1053	 0.146093148547169 
1054	 0.144168833881765 
1055	 0.143985366097293 
1056	 0.151057193194979 
1057	 0.16873151664973 
1058	 0.168453694016211 
1059	 0.150718236128918 
1060	 0.16132465295681 
1061	 0.156894986530578 
1062	 0.129107533605021 
1063	 0.147868921762945 
1064	 0.161243693374888 
1065	 0.139967882461004 
1066	 0.178536723904626 
1067	 0.212162094480426 
1068	 0.168662281601921 
1069	 0.129498451571566 
1070	 0.11396836580082 
1071	 0.124850790716526 
1072	 0.142670677637335 
1073	 0.150239351986793 
1074	 0.120845994513507 
1075	 0.102639562965772 
