Wavelength	A00108.asd
325	 4.66527016397266E-02 
326	 4.22694438187059E-02 
327	 4.17772479473599E-02 
328	 0.043243501917631 
329	 4.37491067444079E-02 
330	 4.29204928873139E-02 
331	 4.50524179464689E-02 
332	 4.89004445235722E-02 
333	 5.27083689895406E-02 
334	 5.34200758734715E-02 
335	 5.26553296674625E-02 
336	 5.54749734503467E-02 
337	 5.71003962142709E-02 
338	 0.055959734303846 
339	 5.20213187855559E-02 
340	 0.049125429541503 
341	 5.00033243940419E-02 
342	 0.049090408502076 
343	 4.84329597775937E-02 
344	 5.40787349182811E-02 
345	 5.37417791867905E-02 
346	 4.75806239397586E-02 
347	 4.95354017023889E-02 
348	 5.30543315301067E-02 
349	 5.34740575977655E-02 
350	 0.052515570333774 
351	 5.07132613449995E-02 
352	 4.84788060333915E-02 
353	 4.62871138040927E-02 
354	 4.54255089843827E-02 
355	 4.97891729488411E-02 
356	 5.31446902437171E-02 
357	 5.21464992763785E-02 
358	 5.25122716231843E-02 
359	 5.31663420164354E-02 
360	 5.15072024277981E-02 
361	 4.94783995280364E-02 
362	 4.83755102040816E-02 
363	 5.07714036967687E-02 
364	 5.20098642147854E-02 
365	 5.01390285644209E-02 
366	 5.00182383810091E-02 
367	 0.050291648029716 
368	 4.84774055004809E-02 
369	 4.88681899147778E-02 
370	 0.050902617603203 
371	 0.049106698804577 
372	 4.84244446945278E-02 
373	 0.051018173760529 
374	 5.18982528195303E-02 
375	 5.17358430664073E-02 
376	 5.21963308608209E-02 
377	 5.23019474348636E-02 
378	 5.16997040062568E-02 
379	 4.96543011041714E-02 
380	 4.90495716573038E-02 
381	 5.07423702778295E-02 
382	 4.96379997357632E-02 
383	 4.85029241546174E-02 
384	 5.15249917965069E-02 
385	 5.32845878519577E-02 
386	 5.29163758074416E-02 
387	 5.22785458128744E-02 
388	 5.15598459310078E-02 
389	 5.09909829747025E-02 
390	 5.05536345352223E-02 
391	 5.12784449437535E-02 
392	 5.42159242269784E-02 
393	 5.30753530842424E-02 
394	 4.91500921696959E-02 
395	 5.00696356365376E-02 
396	 5.09523936251946E-02 
397	 5.01430008727948E-02 
398	 0.050537075039559 
399	 5.09845704513902E-02 
400	 5.01977943010185E-02 
401	 4.98057989576854E-02 
402	 5.00241662305998E-02 
403	 5.07220414659789E-02 
404	 5.10534701133319E-02 
405	 5.07966940632293E-02 
406	 5.09756168247313E-02 
407	 5.16169715226542E-02 
408	 5.26081128938254E-02 
409	 5.27798603213524E-02 
410	 5.21667017593125E-02 
411	 5.15742859546806E-02 
412	 5.15149214244406E-02 
413	 5.20417589270941E-02 
414	 5.16653020144465E-02 
415	 5.11738951558703E-02 
416	 5.17463118347454E-02 
417	 5.21849850831578E-02 
418	 5.23144888381169E-02 
419	 5.25770903073625E-02 
420	 5.24906314018475E-02 
421	 5.20091835258902E-02 
422	 0.05273925848256 
423	 5.37332646344581E-02 
424	 5.33929948749115E-02 
425	 5.30228602909852E-02 
426	 5.30244205026773E-02 
427	 5.35888201414486E-02 
428	 5.40183412601505E-02 
429	 5.39247293385285E-02 
430	 5.42284399236224E-02 
431	 5.46036834576479E-02 
432	 5.43336939818423E-02 
433	 5.38002368989287E-02 
434	 5.33302322264201E-02 
435	 5.35727702834262E-02 
436	 5.39874733124401E-02 
437	 5.42204203109408E-02 
438	 5.46162737143939E-02 
439	 5.49845389009354E-02 
440	 5.49198452985255E-02 
441	 5.46919651631736E-02 
442	 5.45158507606913E-02 
443	 5.48499788913525E-02 
444	 5.52706034604368E-02 
445	 5.54427250106654E-02 
446	 0.055794250662181 
447	 5.61670856034047E-02 
448	 5.60790287208428E-02 
449	 5.58756459750901E-02 
450	 5.57703400039917E-02 
451	 5.61143535926292E-02 
452	 5.66238700632848E-02 
453	 5.69868130032563E-02 
454	 5.71026010132324E-02 
455	 5.70620760678018E-02 
456	 5.71894348740826E-02 
457	 5.73037107554595E-02 
458	 5.73430769253313E-02 
459	 5.73821820013785E-02 
460	 0.057355861026207 
461	 5.71911022771471E-02 
462	 5.73460436658725E-02 
463	 5.76337377721938E-02 
464	 5.70430973793635E-02 
465	 5.69684432096298E-02 
466	 5.79413084955137E-02 
467	 0.058213510996227 
468	 5.79474739199975E-02 
469	 5.76833867703826E-02 
470	 5.76308789492131E-02 
471	 5.78868642720408E-02 
472	 5.85495420970359E-02 
473	 5.87971837304402E-02 
474	 5.82103355687054E-02 
475	 5.79239257136616E-02 
476	 0.058045115368971 
477	 5.84873083960184E-02 
478	 5.85605627112125E-02 
479	 5.82723254305303E-02 
480	 5.86380878369578E-02 
481	 5.90971544369746E-02 
482	 0.05918231325293 
483	 5.91374982341787E-02 
484	 5.91540501728644E-02 
485	 5.96423542902048E-02 
486	 5.97750081483195E-02 
487	 5.94344897140187E-02 
488	 5.98216430621147E-02 
489	 6.01079331261877E-02 
490	 5.94508135198279E-02 
491	 5.91086519306069E-02 
492	 5.93264211034462E-02 
493	 6.01356544249132E-02 
494	 6.05666179496245E-02 
495	 6.02860335922974E-02 
496	 6.02720596545063E-02 
497	 6.05174179594036E-02 
498	 6.08845111298718E-02 
499	 6.11513014976389E-02 
500	 6.12106835009433E-02 
501	 0.060903423032381 
502	 6.08803970387912E-02 
503	 6.14431602694083E-02 
504	 0.061560008568297 
505	 6.15754607836594E-02 
506	 6.23105787027844E-02 
507	 6.26495989927749E-02 
508	 6.25178849794169E-02 
509	 6.29993490738592E-02 
510	 6.33796856665868E-02 
511	 6.31539937021127E-02 
512	 6.35658238226677E-02 
513	 0.064372862914023 
514	 6.45039708521907E-02 
515	 6.47637342827655E-02 
516	 0.065339585957118 
517	 6.56723204592986E-02 
518	 0.065892351653379 
519	 6.61809629527743E-02 
520	 6.64652220105518E-02 
521	 6.67884877352511E-02 
522	 6.73251092162392E-02 
523	 6.77438436153762E-02 
524	 0.067938811084416 
525	 6.83116769965713E-02 
526	 0.068749552274584 
527	 6.90271415159239E-02 
528	 6.94154771718153E-02 
529	 6.98884771042267E-02 
530	 7.01158988126677E-02 
531	 7.04018237242933E-02 
532	 7.09305587737917E-02 
533	 7.14370156561864E-02 
534	 7.17680880191238E-02 
535	 7.16823079190693E-02 
536	 7.18326832191247E-02 
537	 7.23335271560486E-02 
538	 7.25877434634555E-02 
539	 7.28240356883355E-02 
540	 7.32643422922239E-02 
541	 7.34303856498506E-02 
542	 7.33645371388186E-02 
543	 7.33932398826016E-02 
544	 7.35845629045111E-02 
545	 7.39797737714342E-02 
546	 7.45573341123997E-02 
547	 7.50360417014619E-02 
548	 0.075067015364075 
549	 7.53290883406891E-02 
550	 7.58281719405143E-02 
551	 7.59815685004552E-02 
552	 7.60287511261845E-02 
553	 7.61168643176472E-02 
554	 7.61222111157436E-02 
555	 7.61555790868513E-02 
556	 7.64424886585255E-02 
557	 0.076745643375888 
558	 7.69728262799191E-02 
559	 7.71164743287261E-02 
560	 7.72278436145438E-02 
561	 7.73495513311024E-02 
562	 7.73665225785679E-02 
563	 7.73025799593405E-02 
564	 7.72413620258771E-02 
565	 7.73205894054838E-02 
566	 7.75233413991282E-02 
567	 7.73548284984934E-02 
568	 7.70492808503332E-02 
569	 7.69604479304104E-02 
570	 7.70554985898864E-02 
571	 7.72836495158185E-02 
572	 7.75156748527628E-02 
573	 7.75749679598917E-02 
574	 7.74036057267493E-02 
575	 0.07753962871492 
576	 7.77405115752241E-02 
577	 7.74223658913276E-02 
578	 0.077140316173216 
579	 7.70161569409203E-02 
580	 7.67201768701272E-02 
581	 7.65283042956332E-02 
582	 7.66800293050709E-02 
583	 7.69468504263017E-02 
584	 0.077219726701812 
585	 7.73821296149815E-02 
586	 7.74190215182671E-02 
587	 7.73170988859176E-02 
588	 7.71014453682225E-02 
589	 7.68287913923196E-02 
590	 7.65768351288161E-02 
591	 7.65225467774754E-02 
592	 7.66305811158839E-02 
593	 7.66372005664712E-02 
594	 7.66491420395889E-02 
595	 0.07673151410099 
596	 7.69317700132492E-02 
597	 7.70816903479521E-02 
598	 7.68750082444992E-02 
599	 7.67315761571339E-02 
600	 7.67571092410378E-02 
601	 7.68034787631833E-02 
602	 7.67077131069856E-02 
603	 7.63799869207969E-02 
604	 7.65480839559591E-02 
605	 7.69520296243599E-02 
606	 7.65870961420475E-02 
607	 7.62473404351461E-02 
608	 7.62470875734106E-02 
609	 7.64412517016327E-02 
610	 0.076595544272803 
611	 7.64368710791243E-02 
612	 7.61970009848082E-02 
613	 7.59413227499937E-02 
614	 7.56274080223145E-02 
615	 0.075523737177837 
616	 7.57206549269678E-02 
617	 7.54999473045557E-02 
618	 7.50991954942246E-02 
619	 7.50758948628254E-02 
620	 7.53750306233027E-02 
621	 7.58095076864325E-02 
622	 0.075700179511509 
623	 0.075229961426368 
624	 7.46346423291189E-02 
625	 7.43809353676881E-02 
626	 7.45753936840915E-02 
627	 7.52995278817032E-02 
628	 7.56036733088652E-02 
629	 7.52223045478504E-02 
630	 7.53360256886005E-02 
631	 7.55062655279987E-02 
632	 7.50752700689113E-02 
633	 7.50603219149478E-02 
634	 7.54626097931753E-02 
635	 7.54715890218149E-02 
636	 0.075408024982588 
637	 7.54391139141143E-02 
638	 7.53960013372349E-02 
639	 0.075164749121327 
640	 7.45294162144691E-02 
641	 7.44688511839424E-02 
642	 7.50559931021507E-02 
643	 7.51706077656953E-02 
644	 0.074966186137042 
645	 7.46300298537993E-02 
646	 7.43904352128773E-02 
647	 7.42391630762128E-02 
648	 7.39814202967846E-02 
649	 7.38283730641194E-02 
650	 7.37930038508037E-02 
651	 7.34202032155222E-02 
652	 7.30960993546104E-02 
653	 7.33092839506015E-02 
654	 7.36198014208784E-02 
655	 7.37252077892466E-02 
656	 0.072985737824766 
657	 7.22572659890153E-02 
658	 7.20490429369435E-02 
659	 7.17531604651966E-02 
660	 7.14035501416297E-02 
661	 7.12004114317984E-02 
662	 7.06370890973178E-02 
663	 6.98167370329351E-02 
664	 6.98121752318821E-02 
665	 6.98750106279504E-02 
666	 6.93823850737538E-02 
667	 6.89772943139313E-02 
668	 6.87486100962608E-02 
669	 6.86969625732993E-02 
670	 6.82645542164366E-02 
671	 6.75441984100565E-02 
672	 6.83318828562245E-02 
673	 6.93511146790347E-02 
674	 6.90227594990398E-02 
675	 6.84878980276029E-02 
676	 0.068203998025569 
677	 6.87608796125455E-02 
678	 6.91777216217304E-02 
679	 6.89817232303978E-02 
680	 6.89316236124684E-02 
681	 6.91769391945557E-02 
682	 6.98007191143668E-02 
683	 7.04729768633629E-02 
684	 7.10162441685734E-02 
685	 7.11571121690322E-02 
686	 7.16963766640054E-02 
687	 7.32425225725022E-02 
688	 7.38688836345149E-02 
689	 0.07399713480054 
690	 7.54911314524269E-02 
691	 7.69674053966899E-02 
692	 7.80934594363287E-02 
693	 7.93080036974678E-02 
694	 8.06786677634046E-02 
695	 8.21852350861742E-02 
696	 8.37076647847475E-02 
697	 8.51370850009166E-02 
698	 8.63496227490506E-02 
699	 8.73362743101319E-02 
700	 8.81413039004602E-02 
701	 8.91812503262233E-02 
702	 0.09044694983688 
703	 9.18497498161129E-02 
704	 9.30874754031522E-02 
705	 9.40184862574063E-02 
706	 9.44050489755207E-02 
707	 9.49361704633117E-02 
708	 9.59963472242885E-02 
709	 9.66487476321929E-02 
710	 9.72107529801284E-02 
711	 0.098541774536311 
712	 9.96344592804581E-02 
713	 0.100260886651969 
714	 0.100977304833596 
715	 0.101618739005106 
716	 0.102055655189029 
717	 0.102514403377434 
718	 0.103167367711079 
719	 0.104329341081263 
720	 0.104883599265522 
721	 0.104681964356331 
722	 0.105100302526315 
723	 0.105478614887616 
724	 0.104976412124996 
725	 0.105427797659504 
726	 0.106716586750611 
727	 0.107262762966176 
728	 0.107339588415767 
729	 0.107154714220253 
730	 0.107334789084375 
731	 0.107718281789102 
732	 0.107970465430176 
733	 0.108034439370161 
734	 0.108064564505115 
735	 0.108685446655468 
736	 0.109113884696415 
737	 0.108876949401225 
738	 0.108847138489974 
739	 0.109106317501489 
740	 0.109595564758106 
741	 0.109672030768843 
742	 0.109321790869721 
743	 0.109443175701632 
744	 0.109730098683443 
745	 0.109900296851328 
746	 0.110056158800117 
747	 0.11023952314792 
748	 0.110530641949767 
749	 0.110845319934445 
750	 0.111071627105257 
751	 0.110799327753724 
752	 0.110622539734022 
753	 0.11116024212358 
754	 0.111509738193106 
755	 0.111583541193311 
756	 0.111750879605232 
757	 0.111662330920294 
758	 0.111218254156658 
759	 0.111000500303911 
760	 0.111423220611474 
761	 0.112962577096183 
762	 0.113600412693501 
763	 0.113166278928259 
764	 0.112529863774487 
765	 0.112709564549263 
766	 0.113705356030207 
767	 0.113819935295264 
768	 0.11343293172845 
769	 0.113058467626446 
770	 0.113013465886845 
771	 0.113263113865592 
772	 0.113269488613922 
773	 0.113266171610292 
774	 0.113414606527676 
775	 0.113695912230472 
776	 0.113974599918503 
777	 0.114025633059805 
778	 0.113987550689119 
779	 0.113948873152106 
780	 0.114054567578687 
781	 0.114260668270718 
782	 0.114514103259021 
783	 0.114695808463881 
784	 0.114827871280649 
785	 0.115006637300756 
786	 0.11521968464313 
787	 0.115388982299867 
788	 0.115108865096613 
789	 0.115027835609325 
790	 0.115703229860416 
791	 0.116084439872063 
792	 0.116098130011863 
793	 0.116062393972695 
794	 0.116124880585013 
795	 0.116280047856928 
796	 0.116066579062975 
797	 0.115909052288335 
798	 0.11620768326819 
799	 0.115980293964482 
800	 0.115407564639336 
801	 0.115394141973413 
802	 0.116046404778782 
803	 0.117098868870827 
804	 0.116790900587844 
805	 0.116170585680927 
806	 0.116480623803232 
807	 0.116668435763627 
808	 0.116702714376772 
809	 0.117093056793475 
810	 0.117484502710559 
811	 0.117760060315852 
812	 0.118256163093441 
813	 0.118641837238044 
814	 0.118464125881144 
815	 0.118583703896377 
816	 0.119017599691012 
817	 0.119148526882344 
818	 0.118805065506123 
819	 0.118154391358994 
820	 0.118442910880869 
821	 0.119160449556546 
822	 0.119587940521229 
823	 0.119573192822461 
824	 0.119318906931577 
825	 0.119597055800027 
826	 0.119634403384614 
827	 0.119238164169104 
828	 0.1193704976558 
829	 0.119561015243467 
830	 0.119163028853874 
831	 0.119388011870461 
832	 0.120027173137286 
833	 0.119681913067111 
834	 0.119552287075851 
835	 0.120020776609223 
836	 0.120160753511868 
837	 0.120026251260867 
838	 0.119772786669724 
839	 0.119446170808534 
840	 0.119316376433572 
841	 0.120037502893778 
842	 0.120979374834682 
843	 0.121606631642564 
844	 0.120726053168806 
845	 0.11969281992729 
846	 0.120084366917124 
847	 0.120443357221678 
848	 0.120421688103766 
849	 0.11983920541114 
850	 0.119793244827601 
851	 0.120554595850192 
852	 0.120684991166987 
853	 0.120499391496032 
854	 0.120483850088042 
855	 0.120887865744631 
856	 0.121428896279321 
857	 0.121350222665309 
858	 0.120818005238023 
859	 0.120048872629444 
860	 0.119673071414066 
861	 0.120093640350322 
862	 0.12146512395253 
863	 0.121024867839432 
864	 0.119721468676332 
865	 0.12109798460282 
866	 0.122207523975322 
867	 0.122146086139784 
868	 0.121729815496849 
869	 0.121484531808671 
870	 0.121804797088145 
871	 0.122388218517575 
872	 0.122944308601162 
873	 0.123052746652091 
874	 0.122983888987488 
875	 0.122697519701595 
876	 0.121552266170791 
877	 0.121090970462746 
878	 0.122194880024261 
879	 0.122482923077027 
880	 0.12243367615303 
881	 0.123397394773911 
882	 0.123338571829406 
883	 0.122320941487002 
884	 0.122545841538803 
885	 0.122825682842626 
886	 0.122633740762261 
887	 0.123191535211293 
888	 0.123996786066601 
889	 0.124236158355334 
890	 0.124067423824435 
891	 0.123709530228264 
892	 0.123758039571675 
893	 0.123722959508957 
894	 0.123515431521193 
895	 0.123974849174303 
896	 0.124864618279301 
897	 0.125698602742579 
898	 0.124726830652666 
899	 0.123368676246221 
900	 0.12638040273552 
901	 0.126223794270752 
902	 0.122311610252974 
903	 0.123751838566133 
904	 0.125842207006824 
905	 0.124940228591705 
906	 0.124456913849519 
907	 0.125283190466273 
908	 0.128243298698661 
909	 0.128054247642739 
910	 0.124693699519519 
911	 0.124431982414295 
912	 0.125899788168089 
913	 0.128096175669722 
914	 0.130458203749809 
915	 0.130771285486515 
916	 0.126849111987378 
917	 0.126404692257481 
918	 0.128621848961069 
919	 0.126281357340017 
920	 0.126349461493795 
921	 0.129459973522844 
922	 0.125662854961806 
923	 0.123215732366466 
924	 0.129069213882288 
925	 0.129100184392806 
926	 0.125018665158371 
927	 0.126099164806396 
928	 0.12620217273739 
929	 0.123792340432045 
930	 0.121647249316984 
931	 0.121228105278142 
932	 0.123340532145224 
933	 0.122125018716161 
934	 0.121823257725838 
935	 0.12934087777067 
936	 0.132920433902969 
937	 0.131715293480736 
938	 0.132009148764203 
939	 0.128549295355004 
940	 0.122363506408593 
941	 0.124441424555792 
942	 0.126988747287672 
943	 0.124608124418993 
944	 0.12382568761773 
945	 0.126090166411731 
946	 0.132237488655974 
947	 0.134103497366162 
948	 0.131509578730009 
949	 0.132081227703372 
950	 0.131057094919598 
951	 0.127526357352424 
952	 0.12750403357542 
953	 0.128105291110669 
954	 0.126844481901746 
955	 0.13098276598045 
956	 0.136312929925487 
957	 0.133496803976185 
958	 0.130971364933924 
959	 0.129967112483946 
960	 0.125904286009484 
961	 0.126438741937964 
962	 0.13308161194028 
963	 0.132992180986679 
964	 0.131976369736878 
965	 0.135816691266363 
966	 0.132830508579885 
967	 0.126342755938231 
968	 0.126316913524726 
969	 0.126117738058906 
970	 0.125098272964363 
971	 0.127919398192994 
972	 0.128907660276136 
973	 0.126302517940815 
974	 0.129868871358334 
975	 0.13542595218555 
976	 0.137033331506553 
977	 0.13187516321404 
978	 0.12391848267096 
979	 0.122450877218665 
980	 0.12824318566885 
981	 0.137159496519462 
982	 0.133920503561552 
983	 0.129813116907656 
984	 0.130687966553678 
985	 0.130504887242802 
986	 0.129775901547609 
987	 0.129699775354244 
988	 0.132628720569146 
989	 0.13621212204069 
990	 0.135095510436981 
991	 0.132989364050974 
992	 0.130976217765485 
993	 0.128328606374131 
994	 0.128418639679006 
995	 0.131809621469355 
996	 0.131194525902212 
997	 0.130716422519405 
998	 0.134259097702715 
999	 0.131699497192731 
1000	 0.128256522906719 
1001	 0.135695844736609 
1002	 0.134839579134157 
1003	 0.125707361296193 
1004	 0.125089818723358 
1005	 0.128920073259789 
1006	 0.13351593688401 
1007	 0.128339753662122 
1008	 0.123480313461034 
1009	 0.126735296937561 
1010	 0.129855150709925 
1011	 0.13024188618944 
1012	 0.126115583695338 
1013	 0.127283139331235 
1014	 0.132142355084418 
1015	 0.131452392295551 
1016	 0.130212970364283 
1017	 0.131000818548519 
1018	 0.138140715509136 
1019	 0.141826582440158 
1020	 0.137697457648401 
1021	 0.135533934400694 
1022	 0.133170543326501 
1023	 0.12876879356561 
1024	 0.136545133655494 
1025	 0.143412358903723 
1026	 0.124737448726509 
1027	 0.120825001618133 
1028	 0.131611238262451 
1029	 0.123618996154108 
1030	 0.120533633447789 
1031	 0.126959591489448 
1032	 0.125563275290355 
1033	 0.124974096000781 
1034	 0.130147601576523 
1035	 0.135172633830614 
1036	 0.134450093513473 
1037	 0.124638448168016 
1038	 0.129134259295125 
1039	 0.142111807805935 
1040	 0.145779303766281 
1041	 0.144881073316941 
1042	 0.142552307282828 
1043	 0.14495758723509 
1044	 0.147033526144502 
1045	 0.145116199662818 
1046	 0.133305988267942 
1047	 0.120881392471705 
1048	 0.114630260492341 
1049	 0.119913773909119 
1050	 0.127031360731442 
1051	 0.127457972913574 
1052	 0.130563511614889 
1053	 0.132967935421137 
1054	 0.127997991533008 
1055	 0.130814307386874 
1056	 0.141120741189399 
1057	 0.151195306700492 
1058	 0.146125306206485 
1059	 0.128497186021895 
1060	 0.133841618407174 
1061	 0.136924040217099 
1062	 0.129313985039908 
1063	 0.131594936346936 
1064	 0.127506611867837 
1065	 0.112837477788306 
1066	 0.14730815056591 
1067	 0.17652935609805 
1068	 0.142674726783989 
1069	 0.126393425116694 
1070	 0.123393021607466 
1071	 0.100132712853376 
1072	 0.108754676281973 
1073	 0.131919156177649 
1074	 9.75038874098902E-02 
1075	 9.20656401293785E-02 
