Wavelength	A00162.asd
325	 3.69834427472698E-02 
326	 4.01698712057288E-02 
327	 4.30814530804599E-02 
328	 4.15402790088997E-02 
329	 4.28611013075803E-02 
330	 4.77705164930804E-02 
331	 4.53400872942882E-02 
332	 4.22384180743329E-02 
333	 4.53867126079486E-02 
334	 5.00363661385953E-02 
335	 0.052652885233953 
336	 4.68319994165493E-02 
337	 4.37522048051618E-02 
338	 4.59668781036722E-02 
339	 4.75494774684294E-02 
340	 4.63736258094547E-02 
341	 4.17662238442306E-02 
342	 4.32637782035514E-02 
343	 4.76553803878174E-02 
344	 4.65326949410811E-02 
345	 0.044595678759948 
346	 4.35144166773706E-02 
347	 4.43802690565142E-02 
348	 4.65453027763343E-02 
349	 4.91162719511228E-02 
350	 4.95405492840967E-02 
351	 4.73468426090367E-02 
352	 4.19516109683439E-02 
353	 4.10646717135775E-02 
354	 0.045027820467242 
355	 4.76122815068812E-02 
356	 4.74024638864696E-02 
357	 4.45272569830764E-02 
358	 4.67575946605352E-02 
359	 5.05848870461045E-02 
360	 4.95022978276599E-02 
361	 4.71234130614262E-02 
362	 4.51595318696199E-02 
363	 4.61637157556974E-02 
364	 4.65327337233351E-02 
365	 4.47778528072827E-02 
366	 4.47762000516133E-02 
367	 4.53257120074826E-02 
368	 4.43358759681554E-02 
369	 4.29502909630913E-02 
370	 4.20073733025273E-02 
371	 4.32015427148045E-02 
372	 4.50101520028585E-02 
373	 4.62976529368585E-02 
374	 0.045748964634045 
375	 4.50392267840084E-02 
376	 4.65677715825108E-02 
377	 4.78238581008248E-02 
378	 4.78876031903222E-02 
379	 4.56837512650832E-02 
380	 4.47086815738362E-02 
381	 4.63100004010511E-02 
382	 4.65773949427508E-02 
383	 4.54791427432039E-02 
384	 4.35540254973359E-02 
385	 4.56933415565138E-02 
386	 5.01180876749193E-02 
387	 4.80986412315664E-02 
388	 4.57084892036121E-02 
389	 4.55442309498681E-02 
390	 0.045378712415854 
391	 4.57424452011066E-02 
392	 0.047375919088742 
393	 4.70093326127049E-02 
394	 4.51616175480731E-02 
395	 4.53766831856635E-02 
396	 4.56805031613918E-02 
397	 4.53153017232614E-02 
398	 4.50240299477872E-02 
399	 4.44372351961764E-02 
400	 4.31807553492711E-02 
401	 4.36504115566408E-02 
402	 4.51934517781744E-02 
403	 4.52117697277861E-02 
404	 4.51713718120401E-02 
405	 4.55790960529419E-02 
406	 4.55510667118467E-02 
407	 4.58018161575516E-02 
408	 4.72437442474437E-02 
409	 4.72236401893914E-02 
410	 4.60154145293392E-02 
411	 4.60508768817634E-02 
412	 4.65934066209899E-02 
413	 4.71526014494638E-02 
414	 4.69267354648434E-02 
415	 4.64089078825781E-02 
416	 4.63253633608931E-02 
417	 4.66958788527526E-02 
418	 4.72442562585097E-02 
419	 4.70911742554398E-02 
420	 0.046867223862724 
421	 4.69468453877783E-02 
422	 4.73873858757973E-02 
423	 4.77802474757157E-02 
424	 4.75303937198743E-02 
425	 4.76782089263903E-02 
426	 4.82682246213348E-02 
427	 4.84591630253619E-02 
428	 4.84559013279672E-02 
429	 4.84219464283884E-02 
430	 4.85335705131045E-02 
431	 4.87733619385596E-02 
432	 4.90999563736573E-02 
433	 4.86813285098973E-02 
434	 4.77555846994157E-02 
435	 4.78970068728296E-02 
436	 4.82855312735854E-02 
437	 4.83983816947289E-02 
438	 0.048899264117325 
439	 4.93997451826443E-02 
440	 4.90204496011603E-02 
441	 4.88936503478415E-02 
442	 4.92412707112619E-02 
443	 4.94278425918586E-02 
444	 4.94838171525303E-02 
445	 4.94860172793964E-02 
446	 0.049862554081526 
447	 5.03789045954613E-02 
448	 5.03200439091415E-02 
449	 5.05373343633873E-02 
450	 0.051130090054065 
451	 5.11099946870498E-02 
452	 5.09304986120834E-02 
453	 5.10904051616509E-02 
454	 5.14212001238834E-02 
455	 5.17351526817611E-02 
456	 5.16350132364488E-02 
457	 5.13213362966155E-02 
458	 5.10368383571259E-02 
459	 5.16438513479523E-02 
460	 5.21942115338201E-02 
461	 0.051532666443885 
462	 5.15484112817781E-02 
463	 5.22108556833332E-02 
464	 5.20495259414567E-02 
465	 5.17790373388377E-02 
466	 5.17626107377663E-02 
467	 5.18819488630453E-02 
468	 5.19827736857355E-02 
469	 5.18532609960113E-02 
470	 5.19325529878224E-02 
471	 5.23069435059281E-02 
472	 5.29249760722774E-02 
473	 5.31572270415396E-02 
474	 5.26692908094157E-02 
475	 5.21842719611076E-02 
476	 0.052067299748472 
477	 5.27786517244891E-02 
478	 5.29897728579827E-02 
479	 5.25860596049583E-02 
480	 5.29091534455139E-02 
481	 5.34238584671624E-02 
482	 5.36400182201033E-02 
483	 5.33277069513828E-02 
484	 5.28863283935218E-02 
485	 5.34097391398602E-02 
486	 5.36638351006562E-02 
487	 5.33620281870348E-02 
488	 5.35828164236926E-02 
489	 5.38264110944484E-02 
490	 5.35572235856168E-02 
491	 5.34637825398398E-02 
492	 5.36942711050434E-02 
493	 5.43124999921178E-02 
494	 5.47444603332761E-02 
495	 5.47468893963597E-02 
496	 5.46322119109636E-02 
497	 5.46198034285259E-02 
498	 5.49438790596134E-02 
499	 5.50723500952126E-02 
500	 5.49807765996752E-02 
501	 5.50441025186521E-02 
502	 0.055262262521695 
503	 5.56322526845077E-02 
504	 5.61494369207244E-02 
505	 5.65790359675014E-02 
506	 5.65573259869208E-02 
507	 5.64865778779167E-02 
508	 5.65575255518556E-02 
509	 5.69891026034771E-02 
510	 5.74164908696519E-02 
511	 5.75568119024556E-02 
512	 5.77576899833896E-02 
513	 0.057931206897862 
514	 5.76657707532254E-02 
515	 5.77540571117699E-02 
516	 5.84010116267488E-02 
517	 5.89701327978734E-02 
518	 5.93100762266912E-02 
519	 5.93361711919006E-02 
520	 0.059510690128305 
521	 5.98939007457925E-02 
522	 6.03521728544664E-02 
523	 6.08417335294021E-02 
524	 6.13189610300944E-02 
525	 6.17274246925065E-02 
526	 6.19873109904212E-02 
527	 6.19950998558316E-02 
528	 6.21145264633461E-02 
529	 6.24177352254461E-02 
530	 6.27725955873468E-02 
531	 6.31246892283277E-02 
532	 6.34354080252815E-02 
533	 6.37548109195871E-02 
534	 6.39650752118696E-02 
535	 6.37925715585051E-02 
536	 6.38836430241289E-02 
537	 6.43452703386371E-02 
538	 6.45954205937143E-02 
539	 6.47386729876834E-02 
540	 6.49060409496171E-02 
541	 0.06514884368778 
542	 6.54038809898586E-02 
543	 6.54676607430049E-02 
544	 6.55287763053503E-02 
545	 6.56842159101291E-02 
546	 6.59820257766491E-02 
547	 6.62833423520347E-02 
548	 6.64039049828478E-02 
549	 6.66519998388927E-02 
550	 0.067036174312445 
551	 6.73395205803555E-02 
552	 6.75302010268358E-02 
553	 6.75920914649913E-02 
554	 6.75793904614914E-02 
555	 0.067620974878642 
556	 6.79556404845499E-02 
557	 6.79933143171594E-02 
558	 6.77228641490629E-02 
559	 6.80353632408531E-02 
560	 6.84675001336617E-02 
561	 6.85552548289215E-02 
562	 0.068404916887103 
563	 6.81839544622129E-02 
564	 6.82344333105024E-02 
565	 6.85115723060748E-02 
566	 0.06888999956339 
567	 6.87626119017119E-02 
568	 6.83360597223431E-02 
569	 6.79512394928287E-02 
570	 0.067986464539961 
571	 6.84245852398357E-02 
572	 6.89013133015734E-02 
573	 6.89154303570611E-02 
574	 6.82923346683485E-02 
575	 6.84145153708771E-02 
576	 6.88741191803434E-02 
577	 6.85652343820803E-02 
578	 6.81983130707923E-02 
579	 6.80418676962748E-02 
580	 6.82716006957213E-02 
581	 6.84603660601281E-02 
582	 0.068248717439395 
583	 6.80988134615877E-02 
584	 6.81419206996408E-02 
585	 0.068535857354984 
586	 6.87096273943844E-02 
587	 6.84677124844733E-02 
588	 6.82889492909021E-02 
589	 6.82105506198566E-02 
590	 6.82208566822627E-02 
591	 6.81300452348218E-02 
592	 6.79718803253685E-02 
593	 6.79775356354642E-02 
594	 6.81686182272189E-02 
595	 6.85139659051089E-02 
596	 6.86623801818089E-02 
597	 6.86553090603324E-02 
598	 6.86737692155816E-02 
599	 6.84833090651163E-02 
600	 6.81420726380389E-02 
601	 6.81727384355469E-02 
602	 6.82909660809361E-02 
603	 6.82496663750895E-02 
604	 6.85424569432709E-02 
605	 0.068849464430195 
606	 6.80582202658523E-02 
607	 6.77368013668326E-02 
608	 0.068351160126729 
609	 6.85290218393106E-02 
610	 6.82611074765411E-02 
611	 6.77097753160412E-02 
612	 6.77392239125466E-02 
613	 6.82484255151043E-02 
614	 6.81113890329279E-02 
615	 6.78345014919725E-02 
616	 6.77290086558945E-02 
617	 6.77252435241001E-02 
618	 6.76589150016056E-02 
619	 6.72270015289918E-02 
620	 6.71441943067529E-02 
621	 6.74595625842101E-02 
622	 6.74042055501767E-02 
623	 6.71412853552947E-02 
624	 6.68610350858108E-02 
625	 6.67602942716613E-02 
626	 6.67988518136326E-02 
627	 6.67122693382299E-02 
628	 6.68353355773675E-02 
629	 6.72243575121337E-02 
630	 0.067409742754881 
631	 6.74497857082207E-02 
632	 6.74747434361826E-02 
633	 6.77021474493902E-02 
634	 6.80264106498242E-02 
635	 6.79361486379951E-02 
636	 6.77384204387905E-02 
637	 6.76036527003843E-02 
638	 6.73045837419379E-02 
639	 6.70035848883833E-02 
640	 6.70184138804238E-02 
641	 6.72041253628156E-02 
642	 6.73818303490708E-02 
643	 6.69702098303941E-02 
644	 6.67719989719897E-02 
645	 6.74250794007792E-02 
646	 6.74264720690195E-02 
647	 6.69026979855088E-02 
648	 6.69880733970771E-02 
649	 6.69092758148525E-02 
650	 6.64692176934517E-02 
651	 6.62397079950402E-02 
652	 6.62024504038096E-02 
653	 6.62733961558201E-02 
654	 6.63785086746903E-02 
655	 6.64243363463656E-02 
656	 6.62526197685111E-02 
657	 0.065824059676384 
658	 0.065202591359436 
659	 6.46962322073102E-02 
660	 6.44341364517115E-02 
661	 6.46272488412626E-02 
662	 6.40462268757263E-02 
663	 6.27935808610751E-02 
664	 0.062920925741085 
665	 6.33363589227784E-02 
666	 6.30761851567418E-02 
667	 0.06254760712356 
668	 6.20453184319106E-02 
669	 0.062173182359701 
670	 6.20459257183427E-02 
671	 6.15069659680193E-02 
672	 0.061659382584629 
673	 6.20043601589976E-02 
674	 6.18904821062539E-02 
675	 6.20242404250574E-02 
676	 6.23784997552287E-02 
677	 6.23527121610094E-02 
678	 6.25404086763302E-02 
679	 6.31515922006353E-02 
680	 6.32651425907348E-02 
681	 6.31160060064065E-02 
682	 6.32237735525784E-02 
683	 6.38510579562884E-02 
684	 6.48340189667008E-02 
685	 6.52492507150955E-02 
686	 0.065360269915327 
687	 6.54618889794743E-02 
688	 6.62947864054465E-02 
689	 6.75525134108959E-02 
690	 6.83818830540046E-02 
691	 6.94151045218301E-02 
692	 7.06828840860302E-02 
693	 7.12608914893074E-02 
694	 7.18984985900024E-02 
695	 7.33540567234851E-02 
696	 7.47286961868835E-02 
697	 7.57871219478807E-02 
698	 7.64274202753648E-02 
699	 7.71432424497236E-02 
700	 7.81252974284178E-02 
701	 7.88767977724666E-02 
702	 7.95851140365707E-02 
703	 8.05789091145434E-02 
704	 8.14673111905805E-02 
705	 0.082174844848279 
706	 8.27553339999217E-02 
707	 8.33494072984736E-02 
708	 0.084062255806691 
709	 8.49529606308182E-02 
710	 8.58000666478695E-02 
711	 8.61892414764103E-02 
712	 8.66327237259766E-02 
713	 8.72709209290469E-02 
714	 8.79564638532518E-02 
715	 8.85836725042318E-02 
716	 8.90977835434067E-02 
717	 8.96980869639803E-02 
718	 9.04259063181504E-02 
719	 9.11858858578089E-02 
720	 9.16825425408282E-02 
721	 9.18181686780397E-02 
722	 9.16981921449882E-02 
723	 9.15044572022666E-02 
724	 9.14345989718345E-02 
725	 9.20018031707678E-02 
726	 9.30561538500522E-02 
727	 9.39589659630215E-02 
728	 9.43267376761935E-02 
729	 9.40755522298144E-02 
730	 9.42706717575679E-02 
731	 9.46500327484276E-02 
732	 9.46831871654209E-02 
733	 9.45404262333804E-02 
734	 9.44402449124397E-02 
735	 9.49485577414472E-02 
736	 9.56483125220527E-02 
737	 9.61650448058637E-02 
738	 9.59958600409886E-02 
739	 0.09562346631524 
740	 9.60852019593034E-02 
741	 9.64002674122545E-02 
742	 9.63572464247944E-02 
743	 9.64284813696721E-02 
744	 9.64789832759612E-02 
745	 9.64112698664335E-02 
746	 9.65794890439044E-02 
747	 9.69641390770209E-02 
748	 9.74219540538472E-02 
749	 9.76434534341666E-02 
750	 9.75388330284532E-02 
751	 9.73916177351763E-02 
752	 9.73645515884203E-02 
753	 0.097590506920067 
754	 0.097748938579581 
755	 9.78308954922624E-02 
756	 9.80306375159359E-02 
757	 9.82258593131384E-02 
758	 9.83523761247206E-02 
759	 9.81747559437969E-02 
760	 9.80497248717806E-02 
761	 9.91413134682111E-02 
762	 9.91795916792526E-02 
763	 9.84247265646692E-02 
764	 9.88384152692633E-02 
765	 9.94626051589721E-02 
766	 9.98533943607279E-02 
767	 9.98355745216224E-02 
768	 9.96874328787858E-02 
769	 9.97261989132216E-02 
770	 9.97032943251643E-02 
771	 0.099567828029638 
772	 9.92671425704887E-02 
773	 9.93283434960228E-02 
774	 9.99866085495221E-02 
775	 9.99555358931682E-02 
776	 9.97218852170109E-02 
777	 0.100527770638531 
778	 0.100994776561797 
779	 0.10082208482002 
780	 0.100597402397443 
781	 0.100591268817321 
782	 0.100960502875263 
783	 0.101065872758416 
784	 0.100961709368735 
785	 0.100983162749084 
786	 0.101174572542884 
787	 0.101493462068119 
788	 0.101586366293151 
789	 0.101670943298643 
790	 0.101955923446102 
791	 0.102250795115299 
792	 0.102492442795188 
793	 0.102662343340953 
794	 0.102508171343781 
795	 0.102135998410819 
796	 0.10259542546792 
797	 0.102951012678196 
798	 0.10228773855839 
799	 0.102219453197594 
800	 0.10268614854713 
801	 0.102603955279469 
802	 0.10274429935377 
803	 0.103264411489969 
804	 0.103384730826619 
805	 0.103421305037337 
806	 0.10374898932173 
807	 0.103619517753413 
808	 0.10323813247954 
809	 0.1035906314385 
810	 0.104146096474547 
811	 0.104595043510291 
812	 0.104492338610057 
813	 0.104385888840181 
814	 0.105026761675049 
815	 0.105438964597409 
816	 0.105464091461268 
817	 0.105534520753006 
818	 0.105275749665761 
819	 0.104761485945937 
820	 0.10521859008667 
821	 0.105695336225771 
822	 0.104999473742684 
823	 0.10464656561437 
824	 0.104957651792781 
825	 0.105826570054278 
826	 0.106310111524536 
827	 0.10610855410912 
828	 0.106268251677105 
829	 0.106333200524008 
830	 0.105682439037148 
831	 0.105838738167866 
832	 0.106658334321337 
833	 0.106777754566362 
834	 0.10664234091747 
835	 0.106502032425146 
836	 0.106817636517354 
837	 0.10689904456059 
838	 0.105989870240619 
839	 0.106036551458335 
840	 0.106827038633883 
841	 0.106430327340891 
842	 0.106534670219485 
843	 0.107514139403267 
844	 0.107211125528118 
845	 0.106538179185413 
846	 0.106707224975103 
847	 0.107411584092249 
848	 0.108066565770027 
849	 0.107108014697472 
850	 0.106565506920807 
851	 0.10711273728703 
852	 0.107339557114786 
853	 0.106933698816145 
854	 0.105827742169129 
855	 0.106415975294249 
856	 0.108144917075269 
857	 0.108588215480128 
858	 0.108114215354256 
859	 0.107081660151489 
860	 0.106886128542234 
861	 0.106983330648537 
862	 0.106844038046131 
863	 0.107669003892702 
864	 0.108876103986546 
865	 0.108608980223537 
866	 0.108384758108851 
867	 0.108725174734064 
868	 0.109641764619449 
869	 0.109587316164972 
870	 0.107693462801349 
871	 0.108255573540285 
872	 0.110021713190274 
873	 0.109236395018588 
874	 0.10889790533216 
875	 0.109306660893057 
876	 0.107877938906104 
877	 0.106826602670311 
878	 0.107609424119111 
879	 0.108286795818566 
880	 0.10876501862059 
881	 0.10936685620106 
882	 0.1093546469652 
883	 0.108558916018352 
884	 0.106824999738005 
885	 0.106671759633507 
886	 0.109057689784952 
887	 0.109938618932882 
888	 0.109572179556561 
889	 0.108975869486722 
890	 0.10946631512844 
891	 0.110810950897806 
892	 0.111280305146318 
893	 0.110484657292044 
894	 0.10871432921647 
895	 0.109273970987173 
896	 0.111019832230698 
897	 0.112155343645552 
898	 0.112522367618552 
899	 0.11217755980575 
900	 0.111552460361004 
901	 0.110832970969148 
902	 0.110467362545972 
903	 0.111957141904665 
904	 0.112721403438275 
905	 0.111030443194094 
906	 0.110490308497911 
907	 0.111171693552268 
908	 0.112241358053045 
909	 0.112276936160362 
910	 0.111202563376019 
911	 0.110345988735425 
912	 0.111755012871587 
913	 0.115688866904237 
914	 0.115973678862824 
915	 0.114084904324277 
916	 0.112733284092024 
917	 0.112081358545745 
918	 0.111613823504788 
919	 0.108933252524478 
920	 0.11019057474528 
921	 0.115447235098679 
922	 0.113121798262054 
923	 0.111174816869617 
924	 0.1165153500187 
925	 0.117353713426019 
926	 0.114191022213081 
927	 0.112556917153413 
928	 0.112170272965315 
929	 0.112765983035196 
930	 0.111557303824319 
931	 0.112030872108903 
932	 0.115664768088916 
933	 0.109098891543737 
934	 0.101287173368197 
935	 0.107794916854252 
936	 0.114741676527269 
937	 0.118822167804398 
938	 0.121941884679277 
939	 0.119611936747933 
940	 0.11336875939944 
941	 0.115982493649021 
942	 0.11673385828274 
943	 0.109334175447927 
944	 0.113155816789793 
945	 0.122063454710308 
946	 0.122801962692848 
947	 0.120368823227805 
948	 0.117233833501775 
949	 0.117286797944952 
950	 0.118448268200439 
951	 0.119472443141224 
952	 0.119670789451907 
953	 0.11644426741021 
954	 0.109029818072548 
955	 0.114590595338399 
956	 0.124292307704743 
957	 0.117421144957515 
958	 0.114783098308412 
959	 0.116951319406471 
960	 0.105723141660248 
961	 0.103582295881712 
962	 0.117649455448943 
963	 0.124671635820098 
964	 0.124049576191001 
965	 0.117810179801413 
966	 0.11582762236446 
967	 0.116320078391961 
968	 0.111837118218708 
969	 0.108343887549998 
970	 0.107675746307421 
971	 0.110201770965133 
972	 0.112728062459617 
973	 0.113053203881053 
974	 0.108864273003602 
975	 0.108231824397293 
976	 0.118881929178988 
977	 0.117985180788607 
978	 0.109755385766628 
979	 0.113112836324987 
980	 0.114661451976541 
981	 0.112520619690707 
982	 0.114226844974892 
983	 0.115052501822043 
984	 0.113566944317957 
985	 0.118081351045654 
986	 0.12321674330489 
987	 0.122598590782275 
988	 0.117726444995895 
989	 0.112702532283235 
990	 0.11499890196314 
991	 0.116195129477913 
992	 0.114389431969111 
993	 0.111710509253888 
994	 0.11241635289199 
995	 0.117235373682804 
996	 0.116855061977211 
997	 0.115337259942812 
998	 0.11720238011268 
999	 0.118973967002734 
1000	 0.119626696801593 
1001	 0.118530111060977 
1002	 0.11278614316607 
1003	 0.106785941460717 
1004	 0.117885232698346 
1005	 0.122575598899744 
1006	 0.113553378908683 
1007	 0.106691798874753 
1008	 0.106017095481643 
1009	 0.113228222876687 
1010	 0.121814064222678 
1011	 0.123706003575818 
1012	 0.1101255623936 
1013	 0.103656021241116 
1014	 0.106400958214393 
1015	 0.109944088456727 
1016	 0.109497464995928 
1017	 0.106100584914723 
1018	 0.112715679854553 
1019	 0.118516603937363 
1020	 0.117634294836495 
1021	 0.112936626642034 
1022	 0.112928055813717 
1023	 0.123584343847552 
1024	 0.123406941216401 
1025	 0.11559125346376 
1026	 0.111461891059715 
1027	 0.11369700566127 
1028	 0.119584071420733 
1029	 0.118155381128271 
1030	 0.115484683882789 
1031	 0.113171599538942 
1032	 0.107650516117232 
1033	 0.107830683852152 
1034	 0.117828630729128 
1035	 0.125973155944585 
1036	 0.127956419205779 
1037	 0.121664035806149 
1038	 0.119794588723872 
1039	 0.119618049588507 
1040	 0.112006619253279 
1041	 0.115272293413609 
1042	 0.126102738577923 
1043	 0.123502630765168 
1044	 0.117884795571073 
1045	 0.115344852524477 
1046	 0.125744404608919 
1047	 0.124451128157633 
1048	 0.103572694974166 
1049	 0.117807711291032 
1050	 0.13213714000848 
1051	 0.11489753435564 
1052	 0.121135087604023 
1053	 0.133343558419241 
1054	 0.11265583346589 
1055	 0.09330400621816 
1056	 9.59233399294876E-02 
1057	 0.150346864366944 
1058	 0.155091956486115 
1059	 0.102416270401567 
1060	 0.10898051709571 
1061	 0.11092071372699 
1062	 9.10564154413848E-02 
1063	 0.1209535859033 
1064	 0.141120437397304 
1065	 0.11545467363065 
1066	 0.124341620079739 
1067	 0.145202301777472 
1068	 0.146981394352963 
1069	 0.14330213523817 
1070	 0.134729407969849 
1071	 0.120053851267692 
1072	 9.39377598064913E-02 
1073	 0.070380048443162 
1074	 0.083445810584605 
1075	 0.10649156788752 
