Wavelength	A00138.asd
325	 3.28454727384487E-02 
326	 3.57307332668263E-02 
327	 4.02194613755474E-02 
328	 0.041236886075015 
329	 4.50095815334537E-02 
330	 0.050834629536746 
331	 4.24807732987853E-02 
332	 3.61819176826751E-02 
333	 4.74926555079512E-02 
334	 5.19436475097378E-02 
335	 4.87697431846271E-02 
336	 4.55301343912587E-02 
337	 4.49178333268186E-02 
338	 4.71767946762555E-02 
339	 0.048340953019248 
340	 0.046698776747943 
341	 4.17478143444685E-02 
342	 4.09738799714942E-02 
343	 0.044190704006756 
344	 4.97344022155054E-02 
345	 4.76250214290624E-02 
346	 3.93235402702181E-02 
347	 4.17446232900865E-02 
348	 4.50266396582355E-02 
349	 4.29528237602458E-02 
350	 4.39229099759402E-02 
351	 4.59888734136897E-02 
352	 4.45873807562076E-02 
353	 4.30619969761503E-02 
354	 4.24804025033288E-02 
355	 4.32800587304575E-02 
356	 4.45330259573742E-02 
357	 4.54853438624998E-02 
358	 4.51233765049499E-02 
359	 4.45357295041552E-02 
360	 4.55588413646848E-02 
361	 4.43040987663787E-02 
362	 4.18375084631009E-02 
363	 4.49084881402399E-02 
364	 4.70541563141038E-02 
365	 4.53328362374996E-02 
366	 0.044658760335909 
367	 4.46008566752413E-02 
368	 4.38675115349872E-02 
369	 4.50333020226722E-02 
370	 4.73757056796582E-02 
371	 4.65604624709935E-02 
372	 4.58763781604261E-02 
373	 4.68894188053528E-02 
374	 4.72446428285332E-02 
375	 0.046871927023779 
376	 0.046044149262442 
377	 4.63406738262583E-02 
378	 4.72594896744617E-02 
379	 4.56330173208985E-02 
380	 4.52181122659521E-02 
381	 4.72719392797672E-02 
382	 4.66871484694629E-02 
383	 4.54609208838984E-02 
384	 4.68135136844476E-02 
385	 4.80711488120671E-02 
386	 4.81689212060604E-02 
387	 4.57426893969606E-02 
388	 4.54876486027946E-02 
389	 4.84091066314409E-02 
390	 4.68411869579286E-02 
391	 4.44821881944204E-02 
392	 4.62591872587218E-02 
393	 4.74961420301811E-02 
394	 4.74613463626996E-02 
395	 4.71413792528074E-02 
396	 4.63717523406951E-02 
397	 4.53237578841922E-02 
398	 4.49567252928178E-02 
399	 4.45402932921169E-02 
400	 4.33109241313775E-02 
401	 0.043422865751718 
402	 4.46310943610016E-02 
403	 4.55715831319267E-02 
404	 4.59372068008556E-02 
405	 4.57494754896379E-02 
406	 4.62292879704821E-02 
407	 4.68390093834225E-02 
408	 4.67892823736343E-02 
409	 4.64787893855694E-02 
410	 4.61276432702268E-02 
411	 4.60454628160934E-02 
412	 4.60610185504988E-02 
413	 4.61366655087551E-02 
414	 4.66253609507491E-02 
415	 4.70482799269761E-02 
416	 4.67781470273973E-02 
417	 4.63274590636343E-02 
418	 4.61893582193222E-02 
419	 0.04756164872323 
420	 4.84553338674865E-02 
421	 4.79033356932787E-02 
422	 4.74219969073787E-02 
423	 4.72136714755879E-02 
424	 4.72775308176107E-02 
425	 4.76030018034764E-02 
426	 4.81722213050607E-02 
427	 4.90648866446461E-02 
428	 4.95358273791283E-02 
429	 4.91755066844256E-02 
430	 4.89687876165672E-02 
431	 4.88368717088622E-02 
432	 4.84277816646767E-02 
433	 4.76873080788535E-02 
434	 0.047029818485629 
435	 0.04788016788662 
436	 4.87595979686113E-02 
437	 0.048760692975527 
438	 4.92991942539593E-02 
439	 4.98900966649196E-02 
440	 0.049247619047619 
441	 4.90288508252777E-02 
442	 4.95371897463779E-02 
443	 4.97937962194276E-02 
444	 4.97178198389382E-02 
445	 4.93589253801399E-02 
446	 0.049792279417965 
447	 5.06263910647456E-02 
448	 5.05987742705567E-02 
449	 5.04724821837144E-02 
450	 5.05643825957557E-02 
451	 5.11793971616495E-02 
452	 5.16588463401781E-02 
453	 5.13808335611378E-02 
454	 5.13619241711101E-02 
455	 5.16706598159501E-02 
456	 5.19330870982279E-02 
457	 0.052007581626699 
458	 5.18913342860363E-02 
459	 5.20667522107246E-02 
460	 5.22407322452093E-02 
461	 5.20319515317844E-02 
462	 5.19679989051487E-02 
463	 5.20494589914308E-02 
464	 5.18559496276197E-02 
465	 5.18123309122458E-02 
466	 5.20757381092775E-02 
467	 5.20975557747878E-02 
468	 5.19799639706828E-02 
469	 5.19529076187175E-02 
470	 5.24871776085364E-02 
471	 5.33265384240808E-02 
472	 5.31774427019488E-02 
473	 5.28193928320079E-02 
474	 5.27677291847054E-02 
475	 5.28469561699926E-02 
476	 5.29952908941953E-02 
477	 5.31685722556983E-02 
478	 5.28444883653076E-02 
479	 5.21884613729632E-02 
480	 5.24694121373181E-02 
481	 5.31218508865871E-02 
482	 5.36178928176749E-02 
483	 5.36450602880417E-02 
484	 5.34489464105246E-02 
485	 5.38065104833468E-02 
486	 0.053962728913834 
487	 5.37380829955526E-02 
488	 5.37611029414071E-02 
489	 5.36540280125148E-02 
490	 0.053049890048181 
491	 5.29148724743293E-02 
492	 5.33288127777926E-02 
493	 0.054018366728972 
494	 5.45100413552909E-02 
495	 5.46124566522672E-02 
496	 5.47549715173038E-02 
497	 5.49694450508581E-02 
498	 5.52409937204939E-02 
499	 5.53319016606491E-02 
500	 5.52640405290731E-02 
501	 5.52965485028338E-02 
502	 5.54946279880166E-02 
503	 5.58553583938482E-02 
504	 5.60067321989841E-02 
505	 5.61084162475925E-02 
506	 0.056511211749199 
507	 5.68583209896614E-02 
508	 5.71029385408427E-02 
509	 5.74950704217342E-02 
510	 5.78553533435362E-02 
511	 5.80472161091771E-02 
512	 5.82165142093087E-02 
513	 5.85115644598104E-02 
514	 5.92385654798097E-02 
515	 5.98778629682469E-02 
516	 6.02208038434721E-02 
517	 6.03297606920616E-02 
518	 6.05514003223024E-02 
519	 6.12185666990276E-02 
520	 6.16135321202947E-02 
521	 6.18197357927528E-02 
522	 6.25036070991435E-02 
523	 6.31080744956728E-02 
524	 6.34309423751466E-02 
525	 6.39351557201393E-02 
526	 6.44492922813031E-02 
527	 6.46593392520259E-02 
528	 6.50386774401687E-02 
529	 6.56010837418568E-02 
530	 6.59436969310831E-02 
531	 6.63539272749412E-02 
532	 6.69907486608514E-02 
533	 6.74823836182825E-02 
534	 6.77263711317519E-02 
535	 0.067592926295279 
536	 6.78196524821321E-02 
537	 6.85159404944686E-02 
538	 6.89112084090171E-02 
539	 6.92332368241572E-02 
540	 6.97087431157667E-02 
541	 6.98039474696146E-02 
542	 6.96284522566661E-02 
543	 6.96938213834334E-02 
544	 6.99715122144406E-02 
545	 7.04303276039438E-02 
546	 7.08655039827692E-02 
547	 7.12036801310438E-02 
548	 7.13853890106369E-02 
549	 7.14813800787062E-02 
550	 7.16145084101207E-02 
551	 7.21211297371695E-02 
552	 7.25577872741024E-02 
553	 7.26585932317575E-02 
554	 7.27726151354832E-02 
555	 7.28822765601194E-02 
556	 7.28489888742726E-02 
557	 7.29248651021022E-02 
558	 7.31483661315505E-02 
559	 7.32630769588432E-02 
560	 7.34088991513877E-02 
561	 7.37049771817966E-02 
562	 7.38728617558075E-02 
563	 7.38848357054952E-02 
564	 7.37977253743638E-02 
565	 7.37761101998835E-02 
566	 7.38339181609069E-02 
567	 7.35561408209969E-02 
568	 7.31827538764419E-02 
569	 7.30614488185066E-02 
570	 7.30919889397504E-02 
571	 7.32371156090047E-02 
572	 7.34821781911453E-02 
573	 7.35359474490477E-02 
574	 7.32874697254682E-02 
575	 7.34793273012208E-02 
576	 7.37325009807348E-02 
577	 7.31566201521334E-02 
578	 7.27109441752178E-02 
579	 7.26537543456251E-02 
580	 7.26524172902891E-02 
581	 7.26292963982416E-02 
582	 7.25232509858099E-02 
583	 7.23556323060841E-02 
584	 7.21945569659021E-02 
585	 0.072181965570047 
586	 7.22741879953919E-02 
587	 7.24202879419497E-02 
588	 7.24265437295788E-02 
589	 7.23829159782538E-02 
590	 7.24310984506205E-02 
591	 7.22389920588629E-02 
592	 7.19077098911016E-02 
593	 7.19771235685106E-02 
594	 7.21460093883136E-02 
595	 7.22083905103534E-02 
596	 0.072009125793685 
597	 7.17855072395523E-02 
598	 7.20150703546684E-02 
599	 7.19274441538339E-02 
600	 7.14476014576166E-02 
601	 7.13454518405756E-02 
602	 0.071386054532879 
603	 7.13445181529813E-02 
604	 0.071423010097701 
605	 7.15597290102796E-02 
606	 7.15244377621199E-02 
607	 7.15131561579052E-02 
608	 7.15793115636219E-02 
609	 7.15915009102871E-02 
610	 7.14415494751631E-02 
611	 7.10183423023246E-02 
612	 7.08220579436937E-02 
613	 7.08571437542388E-02 
614	 7.06619524713452E-02 
615	 7.05039567745453E-02 
616	 0.070523097690602 
617	 7.05044510008143E-02 
618	 7.03389134322423E-02 
619	 0.069875458308666 
620	 6.96363064171951E-02 
621	 6.96518269914016E-02 
622	 6.92458219620259E-02 
623	 6.89316341494887E-02 
624	 6.91816194991721E-02 
625	 6.97422874562472E-02 
626	 0.070175278947914 
627	 6.94387143509814E-02 
628	 6.91189155920769E-02 
629	 6.96889913607999E-02 
630	 6.97567603155412E-02 
631	 6.94943455177903E-02 
632	 6.92736992820181E-02 
633	 6.95909173243845E-02 
634	 7.01887177589189E-02 
635	 6.98323390955503E-02 
636	 6.92885022327193E-02 
637	 6.90471988838858E-02 
638	 6.90949437348792E-02 
639	 6.92225800468244E-02 
640	 6.90592931596384E-02 
641	 6.88509187018748E-02 
642	 6.86463138777984E-02 
643	 6.83006556155205E-02 
644	 6.80378197323113E-02 
645	 6.80237038074144E-02 
646	 6.77132127903489E-02 
647	 6.71950873013834E-02 
648	 6.69729957396264E-02 
649	 6.68040713656683E-02 
650	 6.65910309841823E-02 
651	 6.62646266783433E-02 
652	 6.60367457749842E-02 
653	 6.61569715831541E-02 
654	 0.066380501024329 
655	 6.65247467064962E-02 
656	 6.62339611835397E-02 
657	 6.57612335645357E-02 
658	 6.52853645409384E-02 
659	 6.46045174771153E-02 
660	 6.40322496647441E-02 
661	 6.41394228655261E-02 
662	 6.38024042262259E-02 
663	 6.29052373831724E-02 
664	 6.24250559131833E-02 
665	 6.22428332083744E-02 
666	 6.22028914649452E-02 
667	 6.20081580796906E-02 
668	 6.16322874390428E-02 
669	 6.11827070208332E-02 
670	 6.05865836069694E-02 
671	 6.00315437771542E-02 
672	 6.05934481608203E-02 
673	 6.12984088530163E-02 
674	 6.09760332546871E-02 
675	 6.09227340000559E-02 
676	 6.12425059579082E-02 
677	 0.061344322979997 
678	 6.13529916713041E-02 
679	 6.13769786877855E-02 
680	 6.17657863285178E-02 
681	 6.21997592078024E-02 
682	 6.20710632765654E-02 
683	 6.28163903127822E-02 
684	 6.43799752088091E-02 
685	 6.48873172309534E-02 
686	 6.52532272528698E-02 
687	 6.62502212781651E-02 
688	 6.69348199301421E-02 
689	 6.76005728164411E-02 
690	 6.93694911817084E-02 
691	 0.071128264074022 
692	 7.25966422065643E-02 
693	 7.41359402559407E-02 
694	 7.57981116793905E-02 
695	 7.75408123742696E-02 
696	 7.92663462518798E-02 
697	 8.09666799154844E-02 
698	 8.27380504562367E-02 
699	 8.45267211564779E-02 
700	 8.62650932864136E-02 
701	 8.78944644170091E-02 
702	 8.95120686209958E-02 
703	 9.12747112778933E-02 
704	 9.24200050489664E-02 
705	 9.31459649649691E-02 
706	 9.47070737191022E-02 
707	 9.63539861859373E-02 
708	 9.75659719018288E-02 
709	 9.83080173287389E-02 
710	 9.90238001835942E-02 
711	 0.100562778194652 
712	 0.101833612280471 
713	 0.102642483548065 
714	 0.103814101222934 
715	 0.10495815243152 
716	 0.105749973146932 
717	 0.106586074263712 
718	 0.107480912229167 
719	 0.108150104254861 
720	 0.108418861969441 
721	 0.108463743502997 
722	 0.10927533965617 
723	 0.110173782547308 
724	 0.110300495356565 
725	 0.111195506312487 
726	 0.11257521315976 
727	 0.112660676531246 
728	 0.112616263764994 
729	 0.113013479118434 
730	 0.11349725281713 
731	 0.113877106721718 
732	 0.113956913472984 
733	 0.113950949584919 
734	 0.114028091679461 
735	 0.114535589105468 
736	 0.115069237168464 
737	 0.115337192258223 
738	 0.115461249223913 
739	 0.115595211653706 
740	 0.115990032512323 
741	 0.116378867759562 
742	 0.116606859237302 
743	 0.116424885278667 
744	 0.116246904119821 
745	 0.116423765333399 
746	 0.116728117425238 
747	 0.117047954498128 
748	 0.117240200985151 
749	 0.11732790436824 
750	 0.117379139524544 
751	 0.117700889144542 
752	 0.11811462096182 
753	 0.118402097745981 
754	 0.11845494290376 
755	 0.118411980635536 
756	 0.118764809207293 
757	 0.118966116526171 
758	 0.118793424828191 
759	 0.118474810930159 
760	 0.118597875034914 
761	 0.120545108358396 
762	 0.120674414978523 
763	 0.119516347043401 
764	 0.120565757499592 
765	 0.121458998065328 
766	 0.121414091185733 
767	 0.121187039756519 
768	 0.120917795766073 
769	 0.120664917425888 
770	 0.120792835084758 
771	 0.12119673967301 
772	 0.121110969776629 
773	 0.121101362321413 
774	 0.121486582291776 
775	 0.121555339585157 
776	 0.121383094455258 
777	 0.121259452509585 
778	 0.121543096111196 
779	 0.122118056101636 
780	 0.121924968360662 
781	 0.121872336056438 
782	 0.122613644219276 
783	 0.122865665131742 
784	 0.12272245492687 
785	 0.122825099389538 
786	 0.123059936835576 
787	 0.123319419233109 
788	 0.123139641719541 
789	 0.123082677478215 
790	 0.123636924447859 
791	 0.12386320598298 
792	 0.123793207086668 
793	 0.123953811375791 
794	 0.124064195724345 
795	 0.124086119014462 
796	 0.12432213115552 
797	 0.124409517737222 
798	 0.124027741011987 
799	 0.124227950910127 
800	 0.124842028126538 
801	 0.124808873685424 
802	 0.124969056201516 
803	 0.12544331790229 
804	 0.125068799658858 
805	 0.124606625571625 
806	 0.124932427334115 
807	 0.12522460387776 
808	 0.125321820497177 
809	 0.125213586462656 
810	 0.125356312083617 
811	 0.125888427183572 
812	 0.126144440889379 
813	 0.126485890066044 
814	 0.127434945046212 
815	 0.128305681744734 
816	 0.12868716677874 
817	 0.128073938586059 
818	 0.127224435379783 
819	 0.126666096258559 
820	 0.126853195366764 
821	 0.12743969035714 
822	 0.127960811371836 
823	 0.127681421420311 
824	 0.127001239006145 
825	 0.127501437997594 
826	 0.128243038741265 
827	 0.128793692341259 
828	 0.129115689790412 
829	 0.128743674316817 
830	 0.127250263585698 
831	 0.127662974070044 
832	 0.129485822454672 
833	 0.129302236213761 
834	 0.128961305327493 
835	 0.129169786087268 
836	 0.129291340363926 
837	 0.129458659839447 
838	 0.129840482032876 
839	 0.129449164562209 
840	 0.128732505635903 
841	 0.129541102653451 
842	 0.130478609758078 
843	 0.130847744310981 
844	 0.130418977762277 
845	 0.129894185466998 
846	 0.130069703959355 
847	 0.130376063009732 
848	 0.130618328696127 
849	 0.130703003345944 
850	 0.130108833815517 
851	 0.128996246595941 
852	 0.129589631756591 
853	 0.130422828836407 
854	 0.129799256371131 
855	 0.129573937103405 
856	 0.12985752763588 
857	 0.129996419107939 
858	 0.130211133244356 
859	 0.130446432433973 
860	 0.130051857618597 
861	 0.130180215891351 
862	 0.131700614241968 
863	 0.130563662228756 
864	 0.128192951130649 
865	 0.129681756180502 
866	 0.131637613768249 
867	 0.132631865621449 
868	 0.131872646348696 
869	 0.13104606932803 
870	 0.131500554571301 
871	 0.131965954492075 
872	 0.13233109680953 
873	 0.132813640677651 
874	 0.132715909975983 
875	 0.131996792773929 
876	 0.131311958601105 
877	 0.131218290828035 
878	 0.131962672884306 
879	 0.132091823046836 
880	 0.132220302682773 
881	 0.133706948067725 
882	 0.133841947387482 
883	 0.132461165049824 
884	 0.131610594749482 
885	 0.131503092132793 
886	 0.132250196319549 
887	 0.13347450657139 
888	 0.134398414181518 
889	 0.134141366537388 
890	 0.134342825426577 
891	 0.135002878626425 
892	 0.134853743426207 
893	 0.134304641202717 
894	 0.133798212005397 
895	 0.134521613683089 
896	 0.136764380301503 
897	 0.140309988493602 
898	 0.139560441626744 
899	 0.135967745151494 
900	 0.136377749513691 
901	 0.136479163203742 
902	 0.135482353441047 
903	 0.136158184265702 
904	 0.136457910164633 
905	 0.135003640469711 
906	 0.13479370980416 
907	 0.135814617730061 
908	 0.137247794638475 
909	 0.138038584364966 
910	 0.138100543631472 
911	 0.13877672171142 
912	 0.139096460210008 
913	 0.138612862059502 
914	 0.138054677769788 
915	 0.138220626922649 
916	 0.139866711265127 
917	 0.14119705913754 
918	 0.141023884072955 
919	 0.13688004036409 
920	 0.135920419366711 
921	 0.139292684809271 
922	 0.138152606832999 
923	 0.136617765419681 
924	 0.138501665941448 
925	 0.139272090961109 
926	 0.13851043809132 
927	 0.136832838227105 
928	 0.138230977212225 
929	 0.14225868572582 
930	 0.137870597767211 
931	 0.134506611209705 
932	 0.139311831547022 
933	 0.139758554314058 
934	 0.138234289987954 
935	 0.140998955818581 
936	 0.146102585513757 
937	 0.150087921738309 
938	 0.146273430477867 
939	 0.140274923102657 
940	 0.135120238430725 
941	 0.134455468411396 
942	 0.136263756980845 
943	 0.138701661036649 
944	 0.140346310631034 
945	 0.141062261935249 
946	 0.141208085880743 
947	 0.141798056201908 
948	 0.144034071695148 
949	 0.1519784320692 
950	 0.151469018088445 
951	 0.140132410791447 
952	 0.141090952402136 
953	 0.144392717254199 
954	 0.140241075295827 
955	 0.139885207505387 
956	 0.142701342795288 
957	 0.1445969013759 
958	 0.143729378845289 
959	 0.140397203164638 
960	 0.13673215593979 
961	 0.137067439820333 
962	 0.142448474471506 
963	 0.147500564528542 
964	 0.147641479112349 
965	 0.13991542922742 
966	 0.137042054976611 
967	 0.138599658155826 
968	 0.139196706989015 
969	 0.137878087929536 
970	 0.13567296028488 
971	 0.138067108338654 
972	 0.141219408403131 
973	 0.142522827850091 
974	 0.139940275020006 
975	 0.137958741190726 
976	 0.141422017081544 
977	 0.144490250265685 
978	 0.145502415199632 
979	 0.143499173267245 
980	 0.14028303084948 
981	 0.137808098066545 
982	 0.140454876565576 
983	 0.141973924544939 
984	 0.139813227345365 
985	 0.14131049894237 
986	 0.144620402987472 
987	 0.146905829825103 
988	 0.146195558939687 
989	 0.144243017329105 
990	 0.14564238910297 
991	 0.141496544151312 
992	 0.133914674272704 
993	 0.139354689634261 
994	 0.146571735970693 
995	 0.148616868892817 
996	 0.141931709224708 
997	 0.135399057472036 
998	 0.137694412479819 
999	 0.139445683015809 
1000	 0.141328577309115 
1001	 0.14738577529352 
1002	 0.142785723986084 
1003	 0.130554805845929 
1004	 0.133330175834132 
1005	 0.140046500748321 
1006	 0.145050819660357 
1007	 0.144575497997871 
1008	 0.141462749341365 
1009	 0.138447020619824 
1010	 0.13494898132023 
1011	 0.133247521704866 
1012	 0.13624461752476 
1013	 0.138118836854217 
1014	 0.138653479264986 
1015	 0.141072335275355 
1016	 0.141937411105982 
1017	 0.141321079500064 
1018	 0.144665239444904 
1019	 0.144452888841725 
1020	 0.138357448466633 
1021	 0.139379179933305 
1022	 0.143175593381457 
1023	 0.144429150506366 
1024	 0.146486091149143 
1025	 0.14770747501605 
1026	 0.144822122266334 
1027	 0.141669993624842 
1028	 0.141271691931464 
1029	 0.15074399147308 
1030	 0.148612596797853 
1031	 0.132672306046462 
1032	 0.129160214883351 
1033	 0.135455872341511 
1034	 0.146937655425631 
1035	 0.149528479266385 
1036	 0.149825044940715 
1037	 0.155395086233045 
1038	 0.153648364264396 
1039	 0.147116776095576 
1040	 0.144000642952946 
1041	 0.14624691175997 
1042	 0.151322804309791 
1043	 0.150987411602453 
1044	 0.149321679786392 
1045	 0.148273129079911 
1046	 0.150293482270512 
1047	 0.147989775417661 
1048	 0.139751034393523 
1049	 0.146650584974867 
1050	 0.155399993918907 
1051	 0.15314176833061 
1052	 0.150344926140601 
1053	 0.148257913397493 
1054	 0.146633805489171 
1055	 0.152662149760264 
1056	 0.165729065759646 
1057	 0.183110191798417 
1058	 0.172177332946767 
1059	 0.138322667085022 
1060	 0.155229121776745 
1061	 0.164487178421589 
1062	 0.147013623331082 
1063	 0.150998730716956 
1064	 0.144870266668322 
1065	 0.115712816536075 
1066	 0.147804121900114 
1067	 0.181652735271866 
1068	 0.15125089722241 
1069	 0.133645683861507 
1070	 0.128851124513503 
1071	 0.112091080065145 
1072	 0.126245990751719 
1073	 0.15601982020281 
1074	 0.140678811377447 
1075	 0.144378137929798 
