Wavelength	A00104.asd
325	 3.54255602178608E-02 
326	 3.69696047410924E-02 
327	 5.07344367122738E-02 
328	 5.28876439005196E-02 
329	 5.39558461937832E-02 
330	 5.62114531197114E-02 
331	 5.07969854638785E-02 
332	 4.58518613479228E-02 
333	 4.93388132656864E-02 
334	 5.09781659066697E-02 
335	 5.04814843195436E-02 
336	 5.14028382511392E-02 
337	 5.22510189501877E-02 
338	 5.30018607733775E-02 
339	 0.056325206549458 
340	 0.056154850567474 
341	 4.88227330365295E-02 
342	 5.04442996636472E-02 
343	 5.72247808186463E-02 
344	 5.83621786938147E-02 
345	 5.40085047907369E-02 
346	 4.74702845817487E-02 
347	 5.13889771859228E-02 
348	 5.59377300277578E-02 
349	 5.47658743846314E-02 
350	 0.054543623715327 
351	 5.39265145020629E-02 
352	 4.92008548773723E-02 
353	 4.83328256498572E-02 
354	 5.16235526405417E-02 
355	 5.26916797733399E-02 
356	 5.16826823460618E-02 
357	 4.93638341069787E-02 
358	 5.05097950079976E-02 
359	 5.32666095480646E-02 
360	 5.41176162147964E-02 
361	 5.17481166484656E-02 
362	 4.82285327401103E-02 
363	 0.051597211338517 
364	 5.36433383922768E-02 
365	 5.07456016079383E-02 
366	 4.98686515095791E-02 
367	 5.01287667223971E-02 
368	 0.049375043365546 
369	 0.049370115540151 
370	 5.00219653910579E-02 
371	 4.95655318930276E-02 
372	 5.01535694660337E-02 
373	 5.24467162724957E-02 
374	 5.24206984602091E-02 
375	 5.16841782582339E-02 
376	 5.29693632048785E-02 
377	 0.052139707680015 
378	 4.97763268011993E-02 
379	 5.09238183768795E-02 
380	 5.18455944252175E-02 
381	 5.09753438738348E-02 
382	 5.12427136428328E-02 
383	 5.18910031210345E-02 
384	 5.15970293853804E-02 
385	 0.052695514365058 
386	 5.45304513807444E-02 
387	 0.053893728128526 
388	 5.17790821200136E-02 
389	 4.94380204416132E-02 
390	 5.12007892749963E-02 
391	 5.33650467442355E-02 
392	 5.13590804782334E-02 
393	 5.04251470888032E-02 
394	 5.10693200829944E-02 
395	 5.13849259982313E-02 
396	 5.18318868900694E-02 
397	 5.22918824723573E-02 
398	 5.14714477316421E-02 
399	 5.01929278167321E-02 
400	 4.93483484441797E-02 
401	 4.97127954352572E-02 
402	 5.08293915097446E-02 
403	 5.14200866584379E-02 
404	 5.14134414172621E-02 
405	 5.09839027908478E-02 
406	 5.15515998029503E-02 
407	 5.23465103597105E-02 
408	 5.22789963435465E-02 
409	 5.18602320480303E-02 
410	 5.13324583162994E-02 
411	 5.08220157773645E-02 
412	 5.13653582788479E-02 
413	 5.29516057234138E-02 
414	 5.22704667754788E-02 
415	 5.09636730915388E-02 
416	 5.15179530431472E-02 
417	 5.16650557724499E-02 
418	 5.13931538475727E-02 
419	 5.24151752889055E-02 
420	 5.29583710269429E-02 
421	 5.22913968625355E-02 
422	 5.25332742108827E-02 
423	 5.32330209930982E-02 
424	 5.34011526984974E-02 
425	 5.33777368352827E-02 
426	 0.05332617474742 
427	 5.35381078915013E-02 
428	 5.38713539882817E-02 
429	 5.41943459372587E-02 
430	 5.43632154394181E-02 
431	 5.42527150718848E-02 
432	 5.36966580448336E-02 
433	 5.33803747877427E-02 
434	 5.34301646026548E-02 
435	 5.34933063890863E-02 
436	 0.053587223999551 
437	 5.37693405439901E-02 
438	 5.45217482241026E-02 
439	 5.52743408925849E-02 
440	 5.48636370961244E-02 
441	 5.46092664749116E-02 
442	 5.48251226049265E-02 
443	 5.49909465147374E-02 
444	 5.50505694816705E-02 
445	 5.50030204445161E-02 
446	 5.52369471324926E-02 
447	 5.56508358858491E-02 
448	 5.58912155303007E-02 
449	 5.60354814270465E-02 
450	 0.056123907165435 
451	 5.62389421571992E-02 
452	 5.65210707213423E-02 
453	 5.70670940242526E-02 
454	 5.71683167486466E-02 
455	 5.69709793283218E-02 
456	 5.73318769815621E-02 
457	 5.74137301385058E-02 
458	 5.70541949641552E-02 
459	 5.74144033109186E-02 
460	 5.78149882055411E-02 
461	 5.73708171535976E-02 
462	 5.71547205110694E-02 
463	 5.73081700174418E-02 
464	 0.057465908388309 
465	 5.76099310987913E-02 
466	 5.77420834669452E-02 
467	 5.81011952130003E-02 
468	 5.83516343771398E-02 
469	 5.79817238057606E-02 
470	 0.057846928758823 
471	 5.80691769174818E-02 
472	 5.81937043272225E-02 
473	 5.83376535093934E-02 
474	 0.058510241585911 
475	 5.81830479123089E-02 
476	 5.77216961981739E-02 
477	 0.057859036834108 
478	 0.058152484209728 
479	 0.058435702330407 
480	 5.85780753438186E-02 
481	 0.058798016100883 
482	 5.92295919104356E-02 
483	 5.91992940032773E-02 
484	 5.89530816246122E-02 
485	 5.93798406350551E-02 
486	 5.96096775130223E-02 
487	 5.94697977431416E-02 
488	 5.98947165047459E-02 
489	 6.00736314007531E-02 
490	 5.92192623744192E-02 
491	 5.88132135075707E-02 
492	 5.90954721857768E-02 
493	 0.059911042422914 
494	 6.05714329576418E-02 
495	 0.060709859816315 
496	 6.03720871427881E-02 
497	 6.00474789623299E-02 
498	 0.060342008090895 
499	 6.06913632362881E-02 
500	 6.09336741725379E-02 
501	 6.10304560858476E-02 
502	 6.11718288424288E-02 
503	 6.14687102074923E-02 
504	 6.18017285973888E-02 
505	 6.21363062442744E-02 
506	 6.24638730312925E-02 
507	 6.25072154320447E-02 
508	 6.24099870642978E-02 
509	 6.30500809321012E-02 
510	 6.37741427963021E-02 
511	 6.40446569619632E-02 
512	 6.41540152565338E-02 
513	 0.064229044766992 
514	 6.44463150487178E-02 
515	 6.46753242201628E-02 
516	 6.48661818663108E-02 
517	 6.49647523268278E-02 
518	 6.52158732503388E-02 
519	 0.065852136410088 
520	 6.62334535579909E-02 
521	 6.64414148343226E-02 
522	 6.71336485308789E-02 
523	 6.75581086130165E-02 
524	 6.75378182201933E-02 
525	 6.83343018764133E-02 
526	 0.069348884213693 
527	 6.95591641159973E-02 
528	 6.96590354091832E-02 
529	 6.98214936383651E-02 
530	 6.99511527520887E-02 
531	 7.02947595869418E-02 
532	 7.09668730339538E-02 
533	 7.14265526705556E-02 
534	 7.16589831782315E-02 
535	 7.18012462971484E-02 
536	 7.20151079119347E-02 
537	 7.23249061388139E-02 
538	 7.24935495051668E-02 
539	 7.26998442034315E-02 
540	 7.31051433504273E-02 
541	 7.33184631472657E-02 
542	 7.33399285874001E-02 
543	 7.33379210851051E-02 
544	 7.35799505132948E-02 
545	 7.41104591039719E-02 
546	 7.43727836867932E-02 
547	 7.45266563508613E-02 
548	 7.48491657994115E-02 
549	 7.51113175357935E-02 
550	 7.53004289821406E-02 
551	 7.55667303154315E-02 
552	 0.075838679248369 
553	 7.60332777654903E-02 
554	 7.58032163613968E-02 
555	 7.55939143411912E-02 
556	 7.63149530843083E-02 
557	 0.077020302466004 
558	 7.73472245441296E-02 
559	 7.72113178312247E-02 
560	 7.71298137790908E-02 
561	 7.75334591381086E-02 
562	 0.077487006057119 
563	 7.71439090012642E-02 
564	 0.077367943977211 
565	 7.75467960952676E-02 
566	 0.077461584066953 
567	 7.73943043060345E-02 
568	 7.72697275888353E-02 
569	 7.69663847167323E-02 
570	 7.69970874524441E-02 
571	 7.73271957350011E-02 
572	 7.74096694331581E-02 
573	 7.73038943656749E-02 
574	 7.70999444956874E-02 
575	 7.72937318349242E-02 
576	 7.75952307216617E-02 
577	 7.73490343613003E-02 
578	 7.70904479569262E-02 
579	 7.69259715729911E-02 
580	 7.64982112819422E-02 
581	 0.076235243495801 
582	 7.64924231060247E-02 
583	 7.67535730900736E-02 
584	 7.68865237666542E-02 
585	 0.076824421486903 
586	 0.076809669696155 
587	 7.68809749294962E-02 
588	 7.65762192220835E-02 
589	 7.62179070223266E-02 
590	 7.62803303753923E-02 
591	 7.66267392526831E-02 
592	 7.69612725910156E-02 
593	 0.076475986757984 
594	 7.61022857343007E-02 
595	 7.63576767003978E-02 
596	 7.66194862400472E-02 
597	 0.076802848817591 
598	 7.69460718058075E-02 
599	 7.66494581558554E-02 
600	 7.60343300794926E-02 
601	 7.61630920003226E-02 
602	 0.076434199929789 
603	 7.63028661637133E-02 
604	 7.63239413739771E-02 
605	 7.64560311085601E-02 
606	 7.63465932890362E-02 
607	 0.076275397112208 
608	 7.63540710050377E-02 
609	 0.076615553402396 
610	 7.65809140376195E-02 
611	 7.56760264282262E-02 
612	 7.55588144989475E-02 
613	 7.61682329689602E-02 
614	 7.57966953684339E-02 
615	 7.55169428683574E-02 
616	 7.58878257439464E-02 
617	 7.58795743087324E-02 
618	 7.55632161730018E-02 
619	 7.52963422461997E-02 
620	 7.51010754413264E-02 
621	 7.49913895092561E-02 
622	 7.49075557753922E-02 
623	 7.48430154016035E-02 
624	 7.47941971134314E-02 
625	 7.47569995129834E-02 
626	 7.47605000094239E-02 
627	 7.48913382044008E-02 
628	 7.50019159045624E-02 
629	 7.50215326819554E-02 
630	 7.49297633440668E-02 
631	 7.49036298638405E-02 
632	 7.51551886954751E-02 
633	 7.53362046017765E-02 
634	 0.075397727109449 
635	 7.55530883363411E-02 
636	 7.53851109639379E-02 
637	 7.47785508126703E-02 
638	 7.48954065216127E-02 
639	 7.53615516491648E-02 
640	 7.52444587351508E-02 
641	 7.50222588667484E-02 
642	 7.48099838610363E-02 
643	 0.074422435768358 
644	 7.43452708510722E-02 
645	 7.49276741690908E-02 
646	 7.49031085504822E-02 
647	 7.43086414115613E-02 
648	 7.38862855546512E-02 
649	 7.35719783209864E-02 
650	 7.34137590055454E-02 
651	 7.35666124141634E-02 
652	 7.37177416263229E-02 
653	 7.34948296325736E-02 
654	 7.34506640011424E-02 
655	 7.35120598287471E-02 
656	 7.29500371589589E-02 
657	 0.072370472334381 
658	 7.21320304286151E-02 
659	 7.18015387008544E-02 
660	 7.14820314339776E-02 
661	 7.14698095021792E-02 
662	 7.08049826007808E-02 
663	 0.06965382321308 
664	 6.99590736044374E-02 
665	 7.03490764342248E-02 
666	 6.96778797972823E-02 
667	 6.90384823964061E-02 
668	 6.86533024112844E-02 
669	 0.068603683549431 
670	 6.84496511994334E-02 
671	 6.81617529593859E-02 
672	 0.068685593968667 
673	 6.91039782795081E-02 
674	 6.83388285097392E-02 
675	 6.79942571053646E-02 
676	 6.82692559987445E-02 
677	 6.85348608180811E-02 
678	 6.89746201001681E-02 
679	 6.95710345153856E-02 
680	 6.96320159521602E-02 
681	 6.94464064526778E-02 
682	 6.95807645173555E-02 
683	 7.00938618846008E-02 
684	 7.08292813391074E-02 
685	 7.09728321317543E-02 
686	 7.15282389765097E-02 
687	 7.32754924867634E-02 
688	 7.40483753075055E-02 
689	 7.42123808849467E-02 
690	 7.56803224189459E-02 
691	 7.68867032658406E-02 
692	 7.76034906969208E-02 
693	 7.90451036916498E-02 
694	 8.07436615889912E-02 
695	 8.20796358191676E-02 
696	 8.33104226671425E-02 
697	 8.44709953435376E-02 
698	 8.55286077206018E-02 
699	 0.086734271627463 
700	 0.088139326403412 
701	 8.92727700661984E-02 
702	 9.03406619928641E-02 
703	 9.17022639141276E-02 
704	 9.28319823413588E-02 
705	 9.37425701185671E-02 
706	 9.49391387117109E-02 
707	 9.59314274527419E-02 
708	 9.64264515359348E-02 
709	 9.67534809315949E-02 
710	 9.73114196651633E-02 
711	 9.87800821533596E-02 
712	 9.96668026591978E-02 
713	 9.97908855442985E-02 
714	 0.100685510186553 
715	 0.101684559637932 
716	 0.102162413326314 
717	 0.102401389746016 
718	 0.102768769914291 
719	 0.104289892338972 
720	 0.104813219737989 
721	 0.104041069871392 
722	 0.104313540875435 
723	 0.105044174248551 
724	 0.105443863463566 
725	 0.105822250402146 
726	 0.106242610811582 
727	 0.106877402311407 
728	 0.107280367921239 
729	 0.107241851673929 
730	 0.10700502920368 
731	 0.10696210673407 
732	 0.107575469065199 
733	 0.107850747851955 
734	 0.107766201473418 
735	 0.108057298015058 
736	 0.108538478644178 
737	 0.10902478600741 
738	 0.10911387253684 
739	 0.109068718842327 
740	 0.1095153854842 
741	 0.109631965884117 
742	 0.109367295410755 
743	 0.109640187157533 
744	 0.109922444789746 
745	 0.109783895248 
746	 0.109886019100517 
747	 0.110208589539272 
748	 0.110448359983632 
749	 0.110608866272775 
750	 0.110654522014284 
751	 0.110403669039379 
752	 0.110492906454658 
753	 0.1115279391054 
754	 0.111841154497903 
755	 0.111442807489255 
756	 0.111385812014384 
757	 0.111494251402023 
758	 0.111682798003883 
759	 0.111398177771518 
760	 0.111244806299067 
761	 0.113182291586413 
762	 0.11384480557888 
763	 0.113114143964573 
764	 0.112952429952297 
765	 0.113342669295305 
766	 0.114011430978773 
767	 0.113744620488122 
768	 0.113270915004621 
769	 0.113520794728365 
770	 0.113751601046396 
771	 0.113742133697226 
772	 0.113307704498954 
773	 0.113111155577514 
774	 0.113537607656759 
775	 0.113786870513243 
776	 0.113785997208627 
777	 0.113603797431461 
778	 0.113770098820275 
779	 0.114267681879919 
780	 0.114242389901392 
781	 0.114170474149868 
782	 0.114440101282375 
783	 0.114811927629422 
784	 0.115103080887064 
785	 0.114995207434554 
786	 0.115020447789995 
787	 0.115308009282633 
788	 0.115515482361202 
789	 0.115670354836425 
790	 0.115797188494194 
791	 0.11568590041417 
792	 0.115520418234555 
793	 0.115819986150729 
794	 0.116206859580507 
795	 0.116442876617598 
796	 0.116071388561259 
797	 0.115730352815456 
798	 0.116047875641377 
799	 0.116235847228135 
800	 0.116221374259099 
801	 0.116245704450711 
802	 0.116231456434758 
803	 0.116195445618891 
804	 0.116301766253133 
805	 0.1165895323966 
806	 0.117044124514065 
807	 0.116674360767699 
808	 0.115928329802431 
809	 0.116755815010335 
810	 0.117238106492236 
811	 0.116741390027165 
812	 0.116924961068189 
813	 0.117583517474471 
814	 0.118241205642621 
815	 0.118338884298151 
816	 0.118085953377789 
817	 0.118740534047346 
818	 0.119212107876926 
819	 0.119064777494743 
820	 0.118707474549912 
821	 0.118406937876899 
822	 0.118440904227016 
823	 0.118813462137577 
824	 0.119297782225492 
825	 0.119291438411719 
826	 0.119431872713487 
827	 0.119900096353419 
828	 0.120071805321073 
829	 0.119791737262492 
830	 0.119005778148011 
831	 0.119257968484894 
832	 0.120315135496719 
833	 0.12062949160279 
834	 0.120008969844277 
835	 0.118784194442829 
836	 0.11949956227288 
837	 0.120576572638277 
838	 0.120053681868961 
839	 0.1197817373055 
840	 0.119975849998611 
841	 0.120109337206767 
842	 0.120226678496169 
843	 0.120395068185253 
844	 0.12108413007962 
845	 0.121468845893317 
846	 0.120660813788311 
847	 0.120388082462454 
848	 0.120737003319057 
849	 0.120837515010791 
850	 0.120859590970947 
851	 0.120845338789721 
852	 0.120767477383773 
853	 0.120905768316985 
854	 0.121501295137143 
855	 0.121668717721817 
856	 0.121356143662075 
857	 0.120894114067022 
858	 0.12048113739922 
859	 0.120237335214256 
860	 0.120155001586627 
861	 0.12033667766168 
862	 0.120833557722418 
863	 0.120941802941201 
864	 0.121022998250991 
865	 0.122421673700552 
866	 0.122387262537414 
867	 0.120719240097452 
868	 0.121140873689895 
869	 0.122285654577579 
870	 0.12287898901621 
871	 0.123062814171829 
872	 0.123014886250269 
873	 0.123105613884112 
874	 0.122974153175917 
875	 0.122472051967004 
876	 0.121388574636654 
877	 0.120496129551456 
878	 0.120427381774967 
879	 0.121427781375043 
880	 0.122925392854848 
881	 0.124009398649335 
882	 0.12346159317107 
883	 0.121817506341938 
884	 0.122201806858153 
885	 0.122779725863026 
886	 0.122640100025764 
887	 0.123065202967831 
888	 0.123849763134374 
889	 0.124554731420658 
890	 0.12513064410847 
891	 0.125240072071613 
892	 0.123881246549895 
893	 0.122703844779934 
894	 0.12268732600134 
895	 0.12407629345612 
896	 0.125465293876604 
897	 0.125203880858012 
898	 0.124805334731588 
899	 0.124891520107369 
900	 0.126313206255784 
901	 0.125995761518394 
902	 0.123936187975584 
903	 0.125011187640994 
904	 0.126186221954737 
905	 0.125202365002749 
906	 0.125025264828516 
907	 0.125511256175938 
908	 0.125655103879841 
909	 0.125219840089532 
910	 0.124897492147648 
911	 0.127718914660485 
912	 0.129716576365197 
913	 0.128921214104256 
914	 0.12907356998024 
915	 0.129149677385336 
916	 0.127546725444455 
917	 0.127720189660695 
918	 0.128632849293514 
919	 0.124971616898127 
920	 0.125074643008772 
921	 0.129603843636484 
922	 0.125548221404084 
923	 0.122547802966933 
924	 0.128873159242028 
925	 0.129005729707514 
926	 0.125422562731386 
927	 0.129629666783031 
928	 0.131206510295619 
929	 0.127364975074308 
930	 0.123813641473913 
931	 0.121188714278646 
932	 0.120664672529466 
933	 0.123624449028828 
934	 0.128737318664756 
935	 0.133292334067456 
936	 0.132968080819867 
937	 0.129213591525055 
938	 0.12849772824442 
939	 0.127548709079482 
940	 0.126794903631614 
941	 0.133137605178705 
942	 0.134172938931532 
943	 0.123386790798332 
944	 0.127518321756534 
945	 0.138700590389048 
946	 0.139365181245797 
947	 0.132057463208861 
948	 0.122790677783158 
949	 0.128700604981997 
950	 0.133933038765071 
951	 0.132343611399841 
952	 0.131740423816009 
953	 0.130662052711943 
954	 0.128061831153389 
955	 0.132883391926452 
956	 0.138349910575383 
957	 0.129997944048406 
958	 0.124729730420897 
959	 0.125300301512538 
960	 0.124307532116222 
961	 0.127502365995207 
962	 0.135357740023388 
963	 0.136603405611218 
964	 0.134480702113201 
965	 0.132952783492859 
966	 0.131084141750201 
967	 0.129778948835887 
968	 0.130946736230886 
969	 0.12917426507072 
970	 0.125299607314165 
971	 0.128830403636589 
972	 0.130443675419721 
973	 0.126604857377353 
974	 0.129581578422326 
975	 0.135016709635224 
976	 0.136560927849144 
977	 0.131971443911194 
978	 0.12559308723812 
979	 0.127774533739534 
980	 0.130601235636558 
981	 0.131770327967991 
982	 0.132211737338682 
983	 0.131975544138421 
984	 0.131395686258405 
985	 0.13175410659378 
986	 0.133637963809058 
987	 0.13700822996848 
988	 0.134609262835362 
989	 0.129780083509447 
990	 0.131895436859127 
991	 0.132465114987102 
992	 0.129855713089099 
993	 0.12666316978932 
994	 0.127511236127215 
995	 0.133086918009632 
996	 0.133195374228499 
997	 0.129962237621481 
998	 0.126971198532195 
999	 0.130314189859335 
1000	 0.1359363055636 
1001	 0.135196006199738 
1002	 0.127986157694597 
1003	 0.119824906929463 
1004	 0.129043691716253 
1005	 0.136538319683667 
1006	 0.134212742919314 
1007	 0.124072431446095 
1008	 0.121054414913425 
1009	 0.13411900429571 
1010	 0.138211089413911 
1011	 0.133422983472211 
1012	 0.125071913312648 
1013	 0.124574286000516 
1014	 0.130499046088965 
1015	 0.132966281869924 
1016	 0.128125973377766 
1017	 0.119112954160668 
1018	 0.123987450334365 
1019	 0.134936896840743 
1020	 0.144978366055758 
1021	 0.140647920019965 
1022	 0.13229887837855 
1023	 0.131203091473909 
1024	 0.13108944506442 
1025	 0.13088712982786 
1026	 0.130233228136475 
1027	 0.130497523922118 
1028	 0.133245285385086 
1029	 0.142477397179464 
1030	 0.148888999899677 
1031	 0.148063095792106 
1032	 0.137682781755363 
1033	 0.131981715245337 
1034	 0.138879809626016 
1035	 0.14413728402318 
1036	 0.14557834817931 
1037	 0.142789934455049 
1038	 0.14004907619155 
1039	 0.137801425388704 
1040	 0.135044097612905 
1041	 0.140468180249156 
1042	 0.147967929874582 
1043	 0.133995219253003 
1044	 0.128253065099145 
1045	 0.13761023021784 
1046	 0.139730471283462 
1047	 0.130262877684093 
1048	 0.113915807100218 
1049	 0.142001471714428 
1050	 0.16674557608834 
1051	 0.146887811661152 
1052	 0.145177766311956 
1053	 0.154483427170833 
1054	 0.148713948688268 
1055	 0.143419972405354 
1056	 0.146405030175926 
1057	 0.169240822288368 
1058	 0.163842213846626 
1059	 0.129286109713589 
1060	 0.133458979883888 
1061	 0.138925290652304 
1062	 0.132890669922588 
1063	 0.141427029499853 
1064	 0.150778524156599 
1065	 0.152045652935676 
1066	 0.16502111635529 
1067	 0.174766382239515 
1068	 0.165504946233219 
1069	 0.162535092751067 
1070	 0.166273265300059 
1071	 0.168361206327709 
1072	 0.165871549979613 
1073	 0.152098291506664 
1074	 0.109692608659561 
1075	 0.109935861893572 
