Wavelength	A00112.asd
325	 3.85134668587306E-02 
326	 3.87524596980419E-02 
327	 4.02534066708555E-02 
328	 4.77424750732991E-02 
329	 5.06901037489026E-02 
330	 0.046997021936862 
331	 4.71847767145022E-02 
332	 4.97641002396068E-02 
333	 5.22377659089855E-02 
334	 4.89631992103672E-02 
335	 4.39723830027698E-02 
336	 4.85187911244606E-02 
337	 5.22524811033759E-02 
338	 5.20058582692808E-02 
339	 0.049991085542175 
340	 4.67875087277357E-02 
341	 4.32911714696148E-02 
342	 4.48319407651652E-02 
343	 0.048943132258028 
344	 5.00788007748364E-02 
345	 4.88368671702417E-02 
346	 4.63879948694153E-02 
347	 4.64865879012976E-02 
348	 4.79173033561327E-02 
349	 4.96897062605117E-02 
350	 5.21308379378386E-02 
351	 5.32146246363533E-02 
352	 4.97865375786551E-02 
353	 0.047541951982862 
354	 4.78660866498148E-02 
355	 4.99282265833227E-02 
356	 5.07595757703899E-02 
357	 4.89594599489756E-02 
358	 4.82169502069644E-02 
359	 4.93867603048034E-02 
360	 5.31066270686477E-02 
361	 5.18063358490629E-02 
362	 4.69370345294516E-02 
363	 4.96839621969445E-02 
364	 5.27308579216066E-02 
365	 5.23481807936049E-02 
366	 0.051799327604619 
367	 5.05190785958612E-02 
368	 4.72979287920702E-02 
369	 0.047402433031569 
370	 5.00528095696183E-02 
371	 4.81998314199547E-02 
372	 0.046898699389642 
373	 4.84988959602009E-02 
374	 4.87323776412922E-02 
375	 4.91518939960971E-02 
376	 5.23773569940919E-02 
377	 0.053243788326166 
378	 5.14793181049278E-02 
379	 5.02483969654777E-02 
380	 5.01660274997662E-02 
381	 5.13377319847029E-02 
382	 5.18059770252045E-02 
383	 5.12720184290719E-02 
384	 4.96778232282653E-02 
385	 5.06868825858413E-02 
386	 5.30889951978381E-02 
387	 5.03580500409304E-02 
388	 4.88933469253754E-02 
389	 5.07713971145467E-02 
390	 4.98468717681917E-02 
391	 4.90663216320147E-02 
392	 5.22869083347324E-02 
393	 5.27168167185804E-02 
394	 5.05137442098821E-02 
395	 5.04134476870623E-02 
396	 5.04319634127422E-02 
397	 4.99051372491955E-02 
398	 4.97900969150215E-02 
399	 4.96411375947176E-02 
400	 4.89788211766959E-02 
401	 4.92954079561257E-02 
402	 5.02777979851922E-02 
403	 5.05834682143479E-02 
404	 5.06904089942793E-02 
405	 5.07924143973929E-02 
406	 5.08302635069682E-02 
407	 5.10091849639428E-02 
408	 0.051560657040902 
409	 5.17886369562425E-02 
410	 5.16406863458525E-02 
411	 5.14302951220149E-02 
412	 5.13238038964481E-02 
413	 5.13529768309586E-02 
414	 5.10757447822776E-02 
415	 5.08146113652512E-02 
416	 0.051025345515114 
417	 5.11327921105341E-02 
418	 5.12343589757356E-02 
419	 0.052164624930974 
420	 5.26964715601925E-02 
421	 5.22962356290693E-02 
422	 5.22623131987102E-02 
423	 5.25917349661299E-02 
424	 5.30589191598793E-02 
425	 5.32633382374133E-02 
426	 5.32106478360098E-02 
427	 5.34029114221559E-02 
428	 5.34798359514125E-02 
429	 5.32698997001018E-02 
430	 5.33781051980342E-02 
431	 0.053612779178203 
432	 5.35351037669528E-02 
433	 5.32643409123274E-02 
434	 5.29848226226038E-02 
435	 5.31970558793609E-02 
436	 0.053428122291554 
437	 5.34031464281339E-02 
438	 5.37209966680549E-02 
439	 5.41088810178523E-02 
440	 5.39004914994763E-02 
441	 5.39074038077301E-02 
442	 5.42636432799563E-02 
443	 5.44191245589113E-02 
444	 0.054545334666315 
445	 5.47924609024624E-02 
446	 5.50946209872219E-02 
447	 5.53389359493295E-02 
448	 5.52640313170315E-02 
449	 5.54068002514962E-02 
450	 5.59094505721223E-02 
451	 5.65103204175687E-02 
452	 5.68812447832839E-02 
453	 0.056730005808271 
454	 5.63335861322426E-02 
455	 5.60416415130893E-02 
456	 5.66265347855965E-02 
457	 5.70396306983013E-02 
458	 5.69330770120294E-02 
459	 5.71206477823477E-02 
460	 5.73563676874201E-02 
461	 5.72783923599945E-02 
462	 5.70318875436989E-02 
463	 5.67302903700275E-02 
464	 5.65189977173609E-02 
465	 0.05673106003123 
466	 5.74076454377933E-02 
467	 5.75154483038396E-02 
468	 5.73096198796597E-02 
469	 5.73421182682238E-02 
470	 5.75112572291708E-02 
471	 5.77408283718175E-02 
472	 5.78154185819728E-02 
473	 5.78779777189548E-02 
474	 5.79832394772582E-02 
475	 5.77487499315018E-02 
476	 5.75221529432918E-02 
477	 5.80261592641613E-02 
478	 5.78895794175364E-02 
479	 5.72013900880922E-02 
480	 5.80929560579302E-02 
481	 5.90578003186461E-02 
482	 0.058875033519275 
483	 5.85142287230818E-02 
484	 0.05839494900668 
485	 5.91905644255701E-02 
486	 5.94886181928566E-02 
487	 5.89707262085719E-02 
488	 5.90894401583072E-02 
489	 5.92439388240689E-02 
490	 5.87815210668596E-02 
491	 5.86541992551893E-02 
492	 5.89982531435589E-02 
493	 5.97431824708304E-02 
494	 6.01315006829182E-02 
495	 0.059900020456617 
496	 5.98163531711212E-02 
497	 5.99326838822297E-02 
498	 0.060209546970664 
499	 6.06601005069002E-02 
500	 6.10607738420911E-02 
501	 6.06592165296218E-02 
502	 6.05009414992993E-02 
503	 6.11277249921464E-02 
504	 6.14197844912141E-02 
505	 6.14906533376814E-02 
506	 6.17888390833643E-02 
507	 6.18760496752896E-02 
508	 6.18432612610256E-02 
509	 6.25581326239973E-02 
510	 6.31550352500568E-02 
511	 6.29979980322185E-02 
512	 6.32363249156914E-02 
513	 6.38015437533499E-02 
514	 6.40864962274827E-02 
515	 6.42909891718023E-02 
516	 6.45172440925901E-02 
517	 6.49860907574096E-02 
518	 6.55261195113635E-02 
519	 6.59188961005341E-02 
520	 6.58295913670869E-02 
521	 6.56177955779331E-02 
522	 6.63888407367729E-02 
523	 6.72492540583155E-02 
524	 6.77915525378316E-02 
525	 6.82900015871147E-02 
526	 6.86182732294829E-02 
527	 6.85635237514361E-02 
528	 6.87204643132183E-02 
529	 6.91561982176338E-02 
530	 6.94758683817386E-02 
531	 6.98769700402692E-02 
532	 7.04682238049921E-02 
533	 7.10215427055031E-02 
534	 7.13727387540214E-02 
535	 7.12512110661336E-02 
536	 7.13556334396951E-02 
537	 0.071832050926429 
538	 7.21281445939789E-02 
539	 0.072462360306868 
540	 7.30364404303301E-02 
541	 7.32646103872984E-02 
542	 7.31842662216827E-02 
543	 7.31678682241886E-02 
544	 7.33656651417062E-02 
545	 7.38099370654143E-02 
546	 7.41841576059554E-02 
547	 7.43723122010162E-02 
548	 7.42724594906194E-02 
549	 7.43834240107966E-02 
550	 7.48234112819004E-02 
551	 7.55536889469194E-02 
552	 7.60436004916388E-02 
553	 7.59692604396276E-02 
554	 7.56873536340197E-02 
555	 7.55680418577778E-02 
556	 7.61815156153206E-02 
557	 7.68043805783778E-02 
558	 7.71205449338579E-02 
559	 7.69401504624342E-02 
560	 7.67799418873105E-02 
561	 0.077092573162164 
562	 7.72285201631374E-02 
563	 7.71864655104463E-02 
564	 7.73038425233923E-02 
565	 7.73177136065823E-02 
566	 7.71750760046051E-02 
567	 0.077241675312096 
568	 7.72768579415632E-02 
569	 7.69399336885656E-02 
570	 7.67071407271928E-02 
571	 7.67310354845332E-02 
572	 7.71075969818217E-02 
573	 0.077285291745621 
574	 7.70063647259054E-02 
575	 7.72792522945269E-02 
576	 7.75882324890469E-02 
577	 7.67185912006522E-02 
578	 7.61203422637284E-02 
579	 7.61871602178933E-02 
580	 0.076419975247413 
581	 7.65465139961363E-02 
582	 7.63776759953707E-02 
583	 7.65692287926898E-02 
584	 7.69612139139924E-02 
585	 7.68538112643038E-02 
586	 7.65988665568525E-02 
587	 7.63739325863559E-02 
588	 7.64150097463602E-02 
589	 0.07644025780257 
590	 7.60612590628285E-02 
591	 7.58283254090553E-02 
592	 7.58336936702154E-02 
593	 7.58908328802567E-02 
594	 7.59612971464231E-02 
595	 7.60384483694853E-02 
596	 7.63431678455289E-02 
597	 7.66539299960606E-02 
598	 7.65559662343922E-02 
599	 7.62473654369022E-02 
600	 7.59114574865435E-02 
601	 7.60331645659714E-02 
602	 0.076207985000453 
603	 7.60798573980653E-02 
604	 7.60767560966512E-02 
605	 7.61524729394944E-02 
606	 7.59772438025435E-02 
607	 0.075909647038513 
608	 7.60613630090083E-02 
609	 7.62408096226912E-02 
610	 7.60943289673607E-02 
611	 7.52275109976469E-02 
612	 7.50477316311923E-02 
613	 7.55548803322974E-02 
614	 7.55096154177815E-02 
615	 7.52754268503247E-02 
616	 7.50608998039519E-02 
617	 7.47445977336216E-02 
618	 7.44898879044318E-02 
619	 7.45778830783336E-02 
620	 7.47556468685612E-02 
621	 7.48616386663404E-02 
622	 7.45941503956657E-02 
623	 7.42855502979645E-02 
624	 7.42634043253777E-02 
625	 7.46452252181595E-02 
626	 7.51486033756467E-02 
627	 7.50064428431532E-02 
628	 7.48628123221476E-02 
629	 7.49550511415737E-02 
630	 0.075076506182741 
631	 0.075093554768172 
632	 7.48695466664237E-02 
633	 7.50527446126878E-02 
634	 7.54993242621903E-02 
635	 7.52638465510322E-02 
636	 0.074742247931894 
637	 7.42518028907185E-02 
638	 7.42980160696924E-02 
639	 7.45447519255674E-02 
640	 7.42498840135486E-02 
641	 7.41903790720678E-02 
642	 7.44757814752552E-02 
643	 0.074509555669525 
644	 7.44933948860054E-02 
645	 7.45868509479686E-02 
646	 7.42249499623169E-02 
647	 0.073625289796959 
648	 7.36402942928492E-02 
649	 7.35551526665887E-02 
650	 7.31655734237088E-02 
651	 7.29710304235164E-02 
652	 7.29221753445984E-02 
653	 7.29083687577689E-02 
654	 7.28865514309055E-02 
655	 0.072731402252831 
656	 7.21145968672563E-02 
657	 7.14821605553767E-02 
658	 7.11533253420918E-02 
659	 7.10817579016286E-02 
660	 7.11366789864546E-02 
661	 7.11890899481385E-02 
662	 7.05389729645399E-02 
663	 6.93783777465317E-02 
664	 6.94392541428339E-02 
665	 6.96626853720256E-02 
666	 6.91415499521876E-02 
667	 6.85128239660488E-02 
668	 6.80497025854195E-02 
669	 6.82399310122788E-02 
670	 6.78986594173297E-02 
671	 6.69173866880051E-02 
672	 6.74170350503552E-02 
673	 0.068147792461934 
674	 6.75406667895765E-02 
675	 6.73840151387537E-02 
676	 6.78489133484984E-02 
677	 6.82269731984603E-02 
678	 0.068383426596865 
679	 0.06830969755796 
680	 6.87007509376314E-02 
681	 6.91951708310457E-02 
682	 6.90790390188555E-02 
683	 6.92074309417792E-02 
684	 6.97988692750088E-02 
685	 7.07076084526354E-02 
686	 7.16992073215361E-02 
687	 7.25155519333998E-02 
688	 7.30417997614468E-02 
689	 7.35649318355977E-02 
690	 7.48174701604294E-02 
691	 7.63184084174504E-02 
692	 7.78341737395077E-02 
693	 7.89284953494702E-02 
694	 7.99479312623196E-02 
695	 8.12412765118184E-02 
696	 8.30088270715979E-02 
697	 8.48379485898062E-02 
698	 8.55396306002466E-02 
699	 8.63097028251199E-02 
700	 8.76615599011187E-02 
701	 8.89306785896326E-02 
702	 9.01451333753828E-02 
703	 9.14481506522888E-02 
704	 9.24224564582863E-02 
705	 9.31311594065536E-02 
706	 9.40994061550293E-02 
707	 9.50865859781216E-02 
708	 9.59129710410392E-02 
709	 9.64122791226953E-02 
710	 9.69247898031066E-02 
711	 9.81340908821086E-02 
712	 0.099147068627413 
713	 0.099783177374397 
714	 0.100668824408476 
715	 0.101396063176979 
716	 0.10162707955291 
717	 0.102186320389556 
718	 0.103087074910258 
719	 0.10367421650666 
720	 0.103801641119538 
721	 0.103653105580736 
722	 0.104230970871957 
723	 0.104866434233293 
724	 0.104722247528992 
725	 0.104953869587801 
726	 0.105635276537548 
727	 0.106186055460516 
728	 0.106621059583575 
729	 0.106918272325438 
730	 0.107019332126768 
731	 0.107126140533303 
732	 0.107515914243434 
733	 0.107568296765437 
734	 0.107359646547419 
735	 0.107581823522634 
736	 0.108072694613208 
737	 0.108659928944832 
738	 0.108937918051479 
739	 0.108987954807718 
740	 0.109070210545064 
741	 0.109288016416903 
742	 0.10960922430744 
743	 0.109720054608932 
744	 0.109708651161077 
745	 0.109675937754742 
746	 0.109747430987292 
747	 0.109993943238717 
748	 0.110587735868398 
749	 0.110823438783707 
750	 0.110547465807812 
751	 0.110527812936852 
752	 0.110679049700616 
753	 0.110848725334531 
754	 0.111076803938319 
755	 0.111294605022835 
756	 0.111339647831824 
757	 0.111232026229559 
758	 0.111006949251854 
759	 0.110876670240749 
760	 0.11132922499957 
761	 0.113100205076196 
762	 0.113328772968059 
763	 0.112339740370835 
764	 0.112544005285094 
765	 0.11306049703358 
766	 0.113454212972529 
767	 0.113423142397019 
768	 0.113211611740311 
769	 0.113096600786775 
770	 0.113155355520745 
771	 0.113259954773588 
772	 0.112786984460682 
773	 0.112542932551842 
774	 0.113009367450898 
775	 0.113324182558291 
776	 0.113472286055491 
777	 0.113667040483502 
778	 0.113871169170764 
779	 0.114062643781816 
780	 0.114147049986018 
781	 0.114336457676143 
782	 0.114744512716932 
783	 0.114685895435324 
784	 0.114403181470586 
785	 0.114652190038679 
786	 0.114865458544651 
787	 0.11488785521229 
788	 0.11487736498309 
789	 0.114984205840894 
790	 0.115315275808742 
791	 0.115451949467792 
792	 0.115483661107977 
793	 0.115871423259481 
794	 0.115988681969565 
795	 0.115740188514522 
796	 0.115921115883953 
797	 0.115939818393848 
798	 0.11524044814343 
799	 0.115332967241969 
800	 0.116011570047623 
801	 0.115900926382446 
802	 0.115735418585461 
803	 0.1158157989335 
804	 0.116240771380992 
805	 0.1166487077664 
806	 0.11665291434315 
807	 0.116492702664134 
808	 0.116439455218573 
809	 0.117195916081447 
810	 0.117449663306828 
811	 0.116844318338782 
812	 0.117159542479455 
813	 0.117899607713777 
814	 0.118206020394163 
815	 0.118321996318533 
816	 0.11832058508753 
817	 0.118395040257664 
818	 0.118098509573794 
819	 0.117496591493821 
820	 0.117942299047207 
821	 0.118704989397381 
822	 0.11882018956958 
823	 0.118997190738011 
824	 0.119301298166945 
825	 0.119549065347324 
826	 0.119585208416986 
827	 0.119424011696712 
828	 0.119677704537515 
829	 0.119726283785824 
830	 0.118817466313188 
831	 0.119147470578209 
832	 0.120318786271721 
833	 0.119717764165628 
834	 0.119398328390907 
835	 0.120039973799816 
836	 0.120251621887692 
837	 0.119944285397198 
838	 0.119187766095093 
839	 0.119007393657275 
840	 0.119425616913027 
841	 0.119746646381532 
842	 0.120380003323625 
843	 0.121145794496848 
844	 0.120170037621625 
845	 0.119024880984373 
846	 0.119574181135671 
847	 0.119939396155073 
848	 0.119899609852934 
849	 0.119960008231245 
850	 0.120199699045601 
851	 0.120575142579868 
852	 0.120523101690022 
853	 0.120419988130554 
854	 0.120686406915921 
855	 0.120504887623768 
856	 0.120288675130895 
857	 0.121681938009518 
858	 0.121699794186084 
859	 0.119930302996641 
860	 0.119878644916184 
861	 0.120381693681901 
862	 0.120169544118313 
863	 0.11977563123159 
864	 0.119731270464932 
865	 0.121152736923641 
866	 0.122025418422821 
867	 0.121881189707424 
868	 0.122378041819313 
869	 0.122412153743286 
870	 0.121258847469076 
871	 0.121285083168157 
872	 0.122149840574324 
873	 0.122440489619268 
874	 0.123073147227177 
875	 0.123708513311433 
876	 0.121951497409634 
877	 0.120633514523701 
878	 0.12162143233363 
879	 0.12254060118703 
880	 0.122843089436976 
881	 0.122238655421221 
882	 0.121184960656169 
883	 0.120303729243298 
884	 0.121082134388938 
885	 0.122003663273929 
886	 0.122270490546319 
887	 0.123025711219057 
888	 0.123577335551662 
889	 0.122932257260105 
890	 0.123590052211205 
891	 0.124999639363373 
892	 0.123454011955958 
893	 0.121951160341113 
894	 0.121915371837099 
895	 0.122296954820632 
896	 0.123435113143797 
897	 0.125545391844662 
898	 0.124926985834211 
899	 0.122917395767514 
900	 0.124963422947113 
901	 0.126093787158516 
902	 0.125364427843513 
903	 0.126388850804125 
904	 0.126903598931528 
905	 0.125295203510835 
906	 0.124092547650759 
907	 0.123914979865644 
908	 0.125161443463209 
909	 0.125797486257731 
910	 0.125463796652652 
911	 0.125391267378324 
912	 0.126129072375212 
913	 0.127585361838883 
914	 0.126999630040072 
915	 0.125551929823494 
916	 0.125111008991029 
917	 0.12781795769461 
918	 0.131200125353407 
919	 0.127455085789659 
920	 0.12509785593319 
921	 0.126177080812622 
922	 0.123894400199913 
923	 0.122568405327234 
924	 0.12599141525346 
925	 0.128251722407557 
926	 0.1282428527355 
927	 0.125781168843039 
928	 0.124774742923542 
929	 0.125538922331635 
930	 0.120654303542446 
931	 0.118651342611348 
932	 0.125641662203975 
933	 0.127756271931039 
934	 0.125629742120017 
935	 0.123992965966555 
936	 0.126033631187338 
937	 0.131265159417223 
938	 0.136997368341695 
939	 0.136435510513663 
940	 0.129784239539359 
941	 0.128343055078214 
942	 0.128668215908706 
943	 0.127528435695725 
944	 0.121160548070697 
945	 0.118044702532974 
946	 0.131563665260713 
947	 0.139789617608951 
948	 0.137539374044442 
949	 0.129192871519155 
950	 0.122167202518282 
951	 0.120762444262493 
952	 0.126173300481159 
953	 0.130670469741372 
954	 0.127925552831032 
955	 0.128132060066956 
956	 0.130883598812845 
957	 0.132679072760161 
958	 0.129509023885126 
959	 0.123120565302187 
960	 0.12177483891571 
961	 0.125388631867069 
962	 0.132184364150568 
963	 0.134801993078763 
964	 0.133238743156526 
965	 0.128478434266631 
966	 0.124638857589372 
967	 0.123176416427706 
968	 0.125107127959505 
969	 0.125790772644493 
970	 0.124195225295432 
971	 0.121739215795576 
972	 0.122356622820749 
973	 0.127138798254012 
974	 0.128399753768975 
975	 0.128667321607592 
976	 0.131330776017214 
977	 0.131944813080067 
978	 0.129782440332684 
979	 0.124647244727173 
980	 0.125235701411551 
981	 0.131642257861626 
982	 0.134509145394353 
983	 0.133929223764835 
984	 0.130826874935973 
985	 0.130892859856585 
986	 0.131536454231479 
987	 0.129528294910664 
988	 0.126934787694199 
989	 0.125222090472306 
990	 0.1265174963258 
991	 0.127183146329605 
992	 0.126870303752987 
993	 0.12887361225805 
994	 0.129168092541959 
995	 0.126637193917655 
996	 0.1269730587662 
997	 0.129486014501103 
998	 0.132588534292212 
999	 0.132187966261029 
1000	 0.129943833378748 
1001	 0.130103810474077 
1002	 0.126171348214185 
1003	 0.119838278543146 
1004	 0.121787329067051 
1005	 0.125754387531471 
1006	 0.127782611376897 
1007	 0.121677733286026 
1008	 0.119165798507842 
1009	 0.127836580648254 
1010	 0.129551324963224 
1011	 0.126708228092657 
1012	 0.125860965075956 
1013	 0.124099103419709 
1014	 0.122825441452814 
1015	 0.12661298365711 
1016	 0.126009854804874 
1017	 0.121870404889398 
1018	 0.131355596912864 
1019	 0.136923624874737 
1020	 0.130664722858842 
1021	 0.128348594503969 
1022	 0.129076688691696 
1023	 0.130557253818334 
1024	 0.134804670740168 
1025	 0.135571564060314 
1026	 0.122629984575954 
1027	 0.126273003027962 
1028	 0.142048447273126 
1029	 0.132813339942475 
1030	 0.120273744347567 
1031	 0.113282975387839 
1032	 0.114631194883713 
1033	 0.117678008030575 
1034	 0.118713404896083 
1035	 0.12626566061539 
1036	 0.130349842599817 
1037	 0.121841334680773 
1038	 0.123831291657472 
1039	 0.132253202712886 
1040	 0.132626963443909 
1041	 0.130776635646095 
1042	 0.12827193307067 
1043	 0.125361998252928 
1044	 0.12153205380564 
1045	 0.120990335071408 
1046	 0.141798228377306 
1047	 0.147945122495767 
1048	 0.124170024103748 
1049	 0.125842233677765 
1050	 0.130567416100128 
1051	 0.115606279251709 
1052	 0.11671942979201 
1053	 0.125243652380832 
1054	 0.119961057204896 
1055	 0.13715381829987 
1056	 0.167149573551723 
1057	 0.172912467497732 
1058	 0.151133436697718 
1059	 0.112671827580051 
1060	 0.117889300775589 
1061	 0.121820925488284 
1062	 0.110728428658218 
1063	 0.130417556339114 
1064	 0.140442177715419 
1065	 0.120713946559235 
1066	 0.156558508292361 
1067	 0.18414852422112 
1068	 0.135717716911491 
1069	 0.134774253897914 
1070	 0.158746394662919 
1071	 0.128600484883833 
1072	 0.110736987675848 
1073	 0.108733006390781 
1074	 9.17199966796062E-02 
1075	 9.53040866047044E-02 
