Wavelength	A00195.asd
325	 3.73575415025756E-02 
326	 4.55504351049704E-02 
327	 6.30807775354741E-02 
328	 0.056260779050499 
329	 5.06946247159812E-02 
330	 5.45422758686336E-02 
331	 0.057755263421727 
332	 5.85641891096064E-02 
333	 5.62155272649627E-02 
334	 5.78805271531787E-02 
335	 6.09133700203834E-02 
336	 5.60760457853941E-02 
337	 5.30832765449281E-02 
338	 5.51232372899469E-02 
339	 6.25695147282792E-02 
340	 6.46597723258902E-02 
341	 5.45349378198599E-02 
342	 5.51555274144739E-02 
343	 0.062018377227175 
344	 6.04394988316139E-02 
345	 5.74542029353265E-02 
346	 5.55210193220239E-02 
347	 5.67550707606911E-02 
348	 5.85020503812694E-02 
349	 5.90200130880993E-02 
350	 5.99939368359711E-02 
351	 6.07240366688528E-02 
352	 5.99193819174937E-02 
353	 5.78883366179303E-02 
354	 5.59078486096298E-02 
355	 5.79373535747111E-02 
356	 5.98418529176763E-02 
357	 5.93235045012877E-02 
358	 5.95330771496196E-02 
359	 6.03035221346982E-02 
360	 6.08791219817394E-02 
361	 5.97374147712488E-02 
362	 0.057930515523745 
363	 6.03307879835896E-02 
364	 6.14605444459558E-02 
365	 5.90826797829542E-02 
366	 5.88905797684817E-02 
367	 5.98777492001891E-02 
368	 5.99348059991657E-02 
369	 5.93358166319411E-02 
370	 5.83423714331532E-02 
371	 5.74732860335224E-02 
372	 5.78955323001665E-02 
373	 0.059879178956862 
374	 6.04014410102258E-02 
375	 6.04010876403876E-02 
376	 6.16070843680584E-02 
377	 6.11764620250814E-02 
378	 5.93193856041025E-02 
379	 5.85589332507658E-02 
380	 5.96087211893456E-02 
381	 0.062067736978613 
382	 6.07729782123373E-02 
383	 5.84951355315365E-02 
384	 5.94933701311169E-02 
385	 6.09916859776757E-02 
386	 6.17746017745105E-02 
387	 6.03491720637638E-02 
388	 5.95522567957369E-02 
389	 6.02994431990461E-02 
390	 5.93854885066587E-02 
391	 5.91486251404307E-02 
392	 6.24421222658365E-02 
393	 6.23761123516667E-02 
394	 5.94207810490587E-02 
395	 5.91222961961812E-02 
396	 5.98264521539506E-02 
397	 6.05177184097418E-02 
398	 5.97730224718853E-02 
399	 5.86098916895125E-02 
400	 5.81339729884018E-02 
401	 5.84481544901345E-02 
402	 5.93997578141383E-02 
403	 6.08716254260123E-02 
404	 6.12663442593588E-02 
405	 0.060261791880551 
406	 6.04825271922286E-02 
407	 6.10792972821656E-02 
408	 6.07251442492133E-02 
409	 6.09377454836521E-02 
410	 0.061495014081793 
411	 6.07096539681527E-02 
412	 6.04899652002442E-02 
413	 0.061458896037946 
414	 6.14608618595857E-02 
415	 6.09811984091708E-02 
416	 6.09096211834358E-02 
417	 6.09319818120614E-02 
418	 6.10669331101012E-02 
419	 6.15789102721542E-02 
420	 6.19318242669534E-02 
421	 6.18874533378182E-02 
422	 6.20346406981799E-02 
423	 6.22550705361708E-02 
424	 6.22738821174344E-02 
425	 6.25086720724814E-02 
426	 6.29620288817672E-02 
427	 6.32428944802959E-02 
428	 6.35195716324626E-02 
429	 6.38299554371629E-02 
430	 6.35979599429022E-02 
431	 6.31987340255989E-02 
432	 0.06338257742109 
433	 6.31763695551825E-02 
434	 6.26518611189192E-02 
435	 6.29180221378875E-02 
436	 6.34927151924939E-02 
437	 6.40308601356855E-02 
438	 6.46062992697819E-02 
439	 6.50293364276805E-02 
440	 6.49860929820321E-02 
441	 6.46744637164647E-02 
442	 6.43268430073071E-02 
443	 6.44954598392761E-02 
444	 0.06492708978613 
445	 6.53761640828393E-02 
446	 0.065711711737215 
447	 6.58740665280471E-02 
448	 6.57921742639888E-02 
449	 6.57573709980579E-02 
450	 6.59273441834757E-02 
451	 0.066468654772321 
452	 6.69707382152842E-02 
453	 0.067030969643854 
454	 6.69272382438024E-02 
455	 6.68697957777281E-02 
456	 6.72937224331823E-02 
457	 6.74831638482984E-02 
458	 6.72982094019646E-02 
459	 6.78487832829604E-02 
460	 6.83882400554687E-02 
461	 6.79579893693909E-02 
462	 0.067512482259182 
463	 6.73202668982258E-02 
464	 6.74394790872862E-02 
465	 6.76821090292869E-02 
466	 6.79391931205418E-02 
467	 6.82690589567938E-02 
468	 6.85768208577654E-02 
469	 6.87325451409302E-02 
470	 6.86582269470971E-02 
471	 6.85355720050695E-02 
472	 6.90895812611188E-02 
473	 6.94280193647404E-02 
474	 6.90546330244431E-02 
475	 6.88376336100341E-02 
476	 6.89557642059399E-02 
477	 0.06956045353742 
478	 6.92377859580227E-02 
479	 6.81765912607644E-02 
480	 6.90002345286977E-02 
481	 7.00464108918653E-02 
482	 6.99629668388947E-02 
483	 6.98900737172162E-02 
484	 7.00291835932458E-02 
485	 7.04872677670853E-02 
486	 7.03970269522568E-02 
487	 6.97157956693688E-02 
488	 7.00997339853017E-02 
489	 7.05784564441343E-02 
490	 7.01183686071696E-02 
491	 6.98177163567487E-02 
492	 0.070008202289934 
493	 7.10699615309383E-02 
494	 7.17344349863235E-02 
495	 7.15043716088471E-02 
496	 7.12566385804203E-02 
497	 7.11441932563262E-02 
498	 0.071241072717279 
499	 7.15991730853921E-02 
500	 7.20533972428977E-02 
501	 7.20287751081995E-02 
502	 7.20402652166063E-02 
503	 7.23922668610733E-02 
504	 7.28427472144315E-02 
505	 7.32738559946113E-02 
506	 7.35668459337522E-02 
507	 7.36218322154552E-02 
508	 7.35629856481861E-02 
509	 7.39781469108166E-02 
510	 7.44447272518813E-02 
511	 7.46208523421824E-02 
512	 7.47533854693188E-02 
513	 7.49297994218105E-02 
514	 7.52561675284761E-02 
515	 7.56202808161357E-02 
516	 7.59274382265012E-02 
517	 0.075917270847732 
518	 7.59789646225741E-02 
519	 7.65205071547723E-02 
520	 7.69374562340221E-02 
521	 7.71508173081192E-02 
522	 7.72507471220262E-02 
523	 0.077693620504432 
524	 7.85542528731465E-02 
525	 7.87749031090458E-02 
526	 7.86653555877422E-02 
527	 7.88186489806722E-02 
528	 7.91460081232063E-02 
529	 7.95583846758371E-02 
530	 7.97688175545428E-02 
531	 8.00866926899101E-02 
532	 8.06743454750824E-02 
533	 8.10378946291315E-02 
534	 8.11407716655703E-02 
535	 8.10123704001956E-02 
536	 0.081305206767926 
537	 8.20489908715552E-02 
538	 8.22710848714044E-02 
539	 8.23153008277946E-02 
540	 8.25537354982189E-02 
541	 8.27999647687233E-02 
542	 8.29661654105388E-02 
543	 8.28571472501385E-02 
544	 8.29853903871225E-02 
545	 8.34825929739921E-02 
546	 8.36655586938461E-02 
547	 8.37477315792664E-02 
548	 8.40887127534536E-02 
549	 8.42369599920102E-02 
550	 8.42766461902155E-02 
551	 8.49130444158022E-02 
552	 8.53840988518385E-02 
553	 8.52428766077676E-02 
554	 8.50806615202813E-02 
555	 8.50692888508058E-02 
556	 8.53455952847795E-02 
557	 8.57817971344461E-02 
558	 8.62316758394149E-02 
559	 8.63301060137849E-02 
560	 0.086258210744097 
561	 0.086222565819802 
562	 8.64723641414884E-02 
563	 8.68327353551948E-02 
564	 8.67018071100993E-02 
565	 8.66389766793707E-02 
566	 8.68201810322839E-02 
567	 8.68291264051213E-02 
568	 8.67393253493267E-02 
569	 8.66908289559429E-02 
570	 8.67395201651834E-02 
571	 8.68839169074755E-02 
572	 0.087071891451979 
573	 8.71525502527082E-02 
574	 0.087062520300724 
575	 8.71440014729012E-02 
576	 8.72356030885337E-02 
577	 8.69291803379683E-02 
578	 8.69381680483856E-02 
579	 0.087327325633108 
580	 8.73507833887767E-02 
581	 8.71494507241993E-02 
582	 8.69091043954799E-02 
583	 8.70765149906931E-02 
584	 8.74587497813824E-02 
585	 0.087312005631472 
586	 8.73014531854075E-02 
587	 8.75694671610448E-02 
588	 0.08728159132973 
589	 8.68510142540139E-02 
590	 8.69140628203047E-02 
591	 0.086931697969736 
592	 0.086821280901994 
593	 8.67132314859983E-02 
594	 0.08676333931457 
595	 8.70470777527224E-02 
596	 8.73776000562183E-02 
597	 8.75791428889738E-02 
598	 8.74131002974025E-02 
599	 8.71006907823365E-02 
600	 8.68180428830633E-02 
601	 8.69287178726497E-02 
602	 8.71516698418423E-02 
603	 8.72210064737499E-02 
604	 8.72561393578967E-02 
605	 8.72187518368815E-02 
606	 8.69185213484845E-02 
607	 8.68478760123271E-02 
608	 0.08714929230301 
609	 8.73603356937333E-02 
610	 8.72655725738217E-02 
611	 8.66700036922285E-02 
612	 8.65130031472304E-02 
613	 8.68028565654536E-02 
614	 8.66756386037811E-02 
615	 8.66382155680008E-02 
616	 8.69180849662562E-02 
617	 8.67792596515669E-02 
618	 8.64118136926485E-02 
619	 8.62967796238735E-02 
620	 8.63890787175491E-02 
621	 8.65706047084297E-02 
622	 8.63551564568704E-02 
623	 8.60609109350828E-02 
624	 8.60000287443991E-02 
625	 8.62033858922994E-02 
626	 8.64310334266301E-02 
627	 8.59895902464138E-02 
628	 8.58805556776718E-02 
629	 8.63883698881392E-02 
630	 8.65774368857659E-02 
631	 8.65939282316827E-02 
632	 8.67219300547625E-02 
633	 8.66867188639965E-02 
634	 8.65124975274234E-02 
635	 0.086446695409237 
636	 8.64828051589755E-02 
637	 8.66006141399872E-02 
638	 8.66532919228847E-02 
639	 8.66319730720682E-02 
640	 8.65639356508138E-02 
641	 8.64479994946405E-02 
642	 8.63483197029747E-02 
643	 0.086496164306052 
644	 0.086692328786639 
645	 8.67424499130898E-02 
646	 8.65773079773521E-02 
647	 8.62566002040272E-02 
648	 8.59412324397255E-02 
649	 8.57938834559901E-02 
650	 8.58372909722323E-02 
651	 8.57073418078922E-02 
652	 8.55150765665506E-02 
653	 8.54283961765532E-02 
654	 8.55203997659348E-02 
655	 8.56557780666572E-02 
656	 8.53220547432221E-02 
657	 8.48325303070777E-02 
658	 0.084398765349224 
659	 8.38236988550688E-02 
660	 8.33314109340509E-02 
661	 0.083344746161375 
662	 8.29605628106256E-02 
663	 8.21954056958859E-02 
664	 8.22837830504164E-02 
665	 8.26095236783255E-02 
666	 8.25714483749237E-02 
667	 8.16695196257203E-02 
668	 8.05350248296375E-02 
669	 8.09855631913686E-02 
670	 8.10331885129737E-02 
671	 8.02331995384047E-02 
672	 8.04907975136028E-02 
673	 8.10017974626586E-02 
674	 8.07071191473526E-02 
675	 8.05643157225428E-02 
676	 8.07328821468721E-02 
677	 8.10805631026592E-02 
678	 8.11906613540069E-02 
679	 8.09070267610995E-02 
680	 8.08966160548546E-02 
681	 8.11964973355503E-02 
682	 8.17133547650267E-02 
683	 8.25031592659404E-02 
684	 8.34006700258386E-02 
685	 8.38264487647395E-02 
686	 8.42225248629456E-02 
687	 8.49623156364272E-02 
688	 8.56907235780233E-02 
689	 8.63251840781721E-02 
690	 8.69252669840206E-02 
691	 8.79416630985902E-02 
692	 8.93287500765319E-02 
693	 9.00157100873151E-02 
694	 0.090488344396756 
695	 0.09129863822816 
696	 9.25926276986211E-02 
697	 0.093940550051152 
698	 9.41036500639359E-02 
699	 9.43489868488757E-02 
700	 9.52182192108533E-02 
701	 9.58952647515773E-02 
702	 9.65881570027507E-02 
703	 9.77004717652142E-02 
704	 9.82751103321563E-02 
705	 9.83612229168239E-02 
706	 9.89799917575589E-02 
707	 9.95033742753836E-02 
708	 0.099570684505929 
709	 9.97181018798995E-02 
710	 0.100146093380086 
711	 0.101107476992722 
712	 0.101768804443426 
713	 0.101931131750528 
714	 0.102073152102842 
715	 0.102273671614662 
716	 0.102606235332707 
717	 0.102955699892202 
718	 0.103368665155389 
719	 0.104036416953964 
720	 0.104425511008465 
721	 0.104438471463145 
722	 0.104665000619576 
723	 0.104762446712075 
724	 0.104297045662782 
725	 0.104607971903635 
726	 0.105585828251551 
727	 0.105978017274303 
728	 0.106042070612808 
729	 0.105922188452412 
730	 0.105846122530394 
731	 0.105862508966014 
732	 0.10598112310226 
733	 0.106003473945346 
734	 0.105965073893323 
735	 0.106087218207278 
736	 0.106573295750071 
737	 0.107416070395995 
738	 0.107388251309461 
739	 0.10687473289869 
740	 0.106896992284296 
741	 0.107225725128078 
742	 0.107658328340517 
743	 0.107604853857944 
744	 0.107320978469899 
745	 0.107078980455124 
746	 0.107233569303521 
747	 0.107671655838141 
748	 0.108006726800944 
749	 0.10811478104516 
750	 0.107957579852427 
751	 0.107729010596503 
752	 0.10761335711803 
753	 0.107771558530978 
754	 0.107863759284374 
755	 0.107914249349261 
756	 0.108240888657118 
757	 0.10845467342036 
758	 0.108422231123926 
759	 0.108570113241635 
760	 0.108986364219421 
761	 0.109315365586141 
762	 0.109708423675502 
763	 0.110153321100571 
764	 0.110685459221288 
765	 0.110672752870377 
766	 0.110109819562909 
767	 0.109936692170753 
768	 0.109982284114173 
769	 0.109984252170426 
770	 0.110074898854112 
771	 0.11012043931872 
772	 0.109471993444521 
773	 0.109230060091172 
774	 0.110021383651927 
775	 0.110467855583055 
776	 0.110430333463972 
777	 0.110012009390244 
778	 0.110087014032685 
779	 0.110662759091695 
780	 0.110437046442036 
781	 0.110226030756178 
782	 0.110649193417501 
783	 0.110796501589674 
784	 0.110777042155519 
785	 0.111150627112878 
786	 0.111419137444211 
787	 0.111458363816596 
788	 0.111484542305217 
789	 0.111632177380455 
790	 0.111981483599056 
791	 0.112042100398506 
792	 0.111842912085713 
793	 0.111637529988518 
794	 0.111750572324579 
795	 0.112194197628164 
796	 0.112311268720151 
797	 0.112217759779024 
798	 0.112100348263956 
799	 0.112396144170426 
800	 0.112866103558976 
801	 0.11258482125704 
802	 0.112460590964215 
803	 0.112739940440271 
804	 0.112668385438103 
805	 0.112530317286783 
806	 0.112671888098833 
807	 0.112620292290116 
808	 0.112463838426554 
809	 0.11272671701882 
810	 0.113027200251094 
811	 0.113192101385883 
812	 0.113259990158015 
813	 0.113326607635464 
814	 0.113515055591086 
815	 0.113787377419077 
816	 0.114102418071152 
817	 0.114455589006278 
818	 0.114313518617895 
819	 0.11372179680944 
820	 0.114213044786724 
821	 0.115015173584149 
822	 0.11509072091405 
823	 0.1149799778116 
824	 0.114910381267529 
825	 0.115191886879353 
826	 0.115442895347044 
827	 0.115461504726348 
828	 0.115121403445572 
829	 0.1146005810081 
830	 0.114159434081791 
831	 0.114335445624028 
832	 0.114937424220235 
833	 0.115154086351159 
834	 0.114896995467181 
835	 0.114340855761805 
836	 0.114868410519001 
837	 0.115354488932915 
838	 0.114474757827605 
839	 0.114414050668285 
840	 0.115028636128054 
841	 0.114465656219018 
842	 0.114275252706219 
843	 0.114917808582985 
844	 0.115037461004036 
845	 0.114884463183724 
846	 0.114878257090936 
847	 0.11533898899346 
848	 0.115865795626889 
849	 0.115048177830013 
850	 0.114524667958777 
851	 0.114875808784076 
852	 0.115187599964868 
853	 0.115019619799149 
854	 0.114093637746107 
855	 0.114337632558026 
856	 0.115574089298362 
857	 0.116516018383066 
858	 0.116713991694406 
859	 0.116012951377895 
860	 0.11466550105518 
861	 0.114137680004341 
862	 0.115617473170901 
863	 0.115991591845413 
864	 0.115555930448284 
865	 0.116520878734485 
866	 0.117013010811801 
867	 0.116626459080637 
868	 0.116668274382342 
869	 0.116387476520813 
870	 0.115327033912669 
871	 0.115542631835664 
872	 0.116549558889693 
873	 0.116811333629032 
874	 0.116847554587578 
875	 0.11671068156217 
876	 0.116093333892084 
877	 0.115762327085319 
878	 0.116097501527919 
879	 0.115294171388497 
880	 0.11455173729276 
881	 0.116196908706718 
882	 0.116590146090338 
883	 0.115484906569626 
884	 0.115681378280863 
885	 0.116252196644889 
886	 0.116659939474347 
887	 0.116842093655406 
888	 0.117274570887579 
889	 0.118555238486732 
890	 0.117857868110667 
891	 0.115892793525135 
892	 0.11709096935976 
893	 0.118305426800084 
894	 0.118054303044859 
895	 0.116913051690785 
896	 0.116406570135798 
897	 0.118118461108193 
898	 0.118686280911904 
899	 0.118261268948314 
900	 0.119215872501261 
901	 0.119615770015337 
902	 0.119006705409837 
903	 0.118181994071211 
904	 0.117721950154455 
905	 0.118026195426401 
906	 0.118572110844842 
907	 0.11906249529378 
908	 0.119169753004344 
909	 0.118502444519757 
910	 0.117430709904923 
911	 0.117668935492636 
912	 0.118326320633091 
913	 0.119068183808583 
914	 0.121747639157947 
915	 0.123350548237053 
916	 0.120312777204764 
917	 0.119528410926099 
918	 0.120208903870614 
919	 0.115393086842796 
920	 0.114657843176174 
921	 0.119516421162042 
922	 0.119387405798515 
923	 0.117383155844073 
924	 0.116699944262453 
925	 0.115402145377556 
926	 0.115047254216372 
927	 0.119794251150158 
928	 0.120164884809919 
929	 0.114907390843073 
930	 0.116895888327006 
931	 0.122442965441398 
932	 0.126650887006216 
933	 0.11644813066568 
934	 0.10698930685834 
935	 0.122072153937814 
936	 0.130400616978955 
937	 0.127191021487653 
938	 0.12080836094733 
939	 0.117447245173667 
940	 0.119301160624518 
941	 0.125037925048088 
942	 0.124833194513312 
943	 0.114034160661251 
944	 0.117276027563574 
945	 0.126428157796988 
946	 0.123742987863655 
947	 0.12281408647314 
948	 0.124934033722117 
949	 0.123051735326654 
950	 0.122466254559343 
951	 0.124942749740624 
952	 0.127604603896436 
953	 0.126676767101981 
954	 0.120086438722294 
955	 0.120304006949156 
956	 0.124616658855219 
957	 0.124506410021613 
958	 0.122097583245699 
959	 0.119280960895015 
960	 0.120315808400267 
961	 0.122718624347426 
962	 0.124863732071599 
963	 0.12602562529838 
964	 0.126016391009698 
965	 0.124857247219489 
966	 0.124123161760003 
967	 0.123410319247315 
968	 0.121417029633327 
969	 0.117753049230251 
970	 0.113771031208766 
971	 0.114721914580399 
972	 0.115852054662191 
973	 0.115198661113123 
974	 0.118305967064625 
975	 0.122771971479471 
976	 0.125140020073405 
977	 0.122832259252833 
978	 0.118079874569294 
979	 0.116617301260187 
980	 0.118244509758178 
981	 0.121354497426625 
982	 0.120230094349595 
983	 0.118725649861885 
984	 0.119392160747416 
985	 0.12354336138966 
986	 0.127766976275476 
987	 0.128326474722708 
988	 0.125636321103064 
989	 0.121611825570938 
990	 0.119757718636032 
991	 0.118486661994625 
992	 0.118129653825566 
993	 0.121071838405268 
994	 0.124810308908389 
995	 0.126769561938658 
996	 0.120677622262607 
997	 0.115556462184175 
998	 0.119921739142425 
999	 0.119951228557383 
1000	 0.11897357617018 
1001	 0.126797134824223 
1002	 0.124039469621958 
1003	 0.113196691862775 
1004	 0.119973357705728 
1005	 0.125321021133527 
1006	 0.12233311018699 
1007	 0.117633559734401 
1008	 0.116329712657278 
1009	 0.120989185690972 
1010	 0.120096326179457 
1011	 0.116932169700727 
1012	 0.117927474426856 
1013	 0.114546711485024 
1014	 0.109938318534563 
1015	 0.115980607802426 
1016	 0.116846462440284 
1017	 0.112389909529172 
1018	 0.124757707714038 
1019	 0.130881626848439 
1020	 0.12066998998278 
1021	 0.116250090026112 
1022	 0.118631647293977 
1023	 0.125175847739465 
1024	 0.120845813652351 
1025	 0.111419962142418 
1026	 0.110686697692964 
1027	 0.114033615547214 
1028	 0.118786937028734 
1029	 0.120536967233611 
1030	 0.119334304081394 
1031	 0.116528091440629 
1032	 0.118499757915066 
1033	 0.118793838182696 
1034	 0.116054769745354 
1035	 0.131830115667516 
1036	 0.140465315965647 
1037	 0.11792455340276 
1038	 0.120798703896732 
1039	 0.13666490027768 
1040	 0.12610494362304 
1041	 0.123777645121 
1042	 0.129318908810287 
1043	 0.115527947506585 
1044	 0.115541491559353 
1045	 0.13437208789489 
1046	 0.140514959217477 
1047	 0.127732961787716 
1048	 0.100246700427059 
1049	 0.116284077494318 
1050	 0.132710500209998 
1051	 0.110620530172974 
1052	 0.114557559919988 
1053	 0.129384439901065 
1054	 0.117320153088114 
1055	 0.126781243756867 
1056	 0.152782715576854 
1057	 0.162751980165909 
1058	 0.130784939052829 
1059	 7.24660221836326E-02 
1060	 0.101737974928583 
1061	 0.121359631260141 
1062	 9.87665635394941E-02 
1063	 0.10737389116434 
1064	 0.11465537579001 
1065	 0.101129815816592 
1066	 0.121335733205773 
1067	 0.147500916018863 
1068	 0.146515448866366 
1069	 0.135234668457751 
1070	 0.123201424127095 
1071	 0.121928389429434 
1072	 0.120952311162136 
1073	 0.116785441086064 
1074	 0.106246066019626 
1075	 0.106961033062434 
