Wavelength	A00106.asd
325	 4.80890020736612E-02 
326	 4.83739857353422E-02 
327	 5.79105057496104E-02 
328	 5.15159637855181E-02 
329	 4.85486237301187E-02 
330	 0.053634047070253 
331	 5.13987824764492E-02 
332	 0.049634911428796 
333	 5.61356024296208E-02 
334	 5.51137739025955E-02 
335	 4.96380484790682E-02 
336	 0.052962000127528 
337	 5.38270251333411E-02 
338	 5.06284376804609E-02 
339	 5.26757584929479E-02 
340	 5.42232828607806E-02 
341	 0.050919607933541 
342	 5.13879089015816E-02 
343	 5.44484985608267E-02 
344	 5.59729624776599E-02 
345	 5.38232843369651E-02 
346	 4.98502016200996E-02 
347	 5.35710383300735E-02 
348	 5.75618271494272E-02 
349	 5.68685793897885E-02 
350	 0.054633714191446 
351	 5.25098480400947E-02 
352	 5.23469601318759E-02 
353	 5.09486743514855E-02 
354	 4.88715518343406E-02 
355	 5.13474342475604E-02 
356	 5.22856399197503E-02 
357	 0.048940312873562 
358	 5.06828000713298E-02 
359	 5.40684191579594E-02 
360	 5.24003345472648E-02 
361	 5.11231513522578E-02 
362	 5.11972531192572E-02 
363	 0.051226094696609 
364	 5.09136550581653E-02 
365	 5.04302693153409E-02 
366	 5.24212040724017E-02 
367	 5.39406920337434E-02 
368	 5.08129109309221E-02 
369	 4.95787912174713E-02 
370	 5.07770400796286E-02 
371	 5.06003666173467E-02 
372	 5.07479020336549E-02 
373	 5.18592735321606E-02 
374	 5.18255843400672E-02 
375	 5.19583290757392E-02 
376	 5.42621266530562E-02 
377	 5.39925060879023E-02 
378	 5.13667966518875E-02 
379	 5.06514155939096E-02 
380	 5.13138456205604E-02 
381	 5.28258787276462E-02 
382	 5.33591965103072E-02 
383	 5.32044431176386E-02 
384	 0.053018282799721 
385	 5.22668839285562E-02 
386	 5.12026472988366E-02 
387	 5.05933500697457E-02 
388	 5.08345515164265E-02 
389	 5.18498170812655E-02 
390	 5.20030708126868E-02 
391	 5.24071796572254E-02 
392	 5.44514267315059E-02 
393	 5.43756548474117E-02 
394	 5.24041546265854E-02 
395	 5.13317259292631E-02 
396	 5.14583821104649E-02 
397	 5.25011042605462E-02 
398	 5.24283243391304E-02 
399	 5.13232719040757E-02 
400	 4.95292018928054E-02 
401	 4.92747670086544E-02 
402	 5.03919985803373E-02 
403	 0.051629727305093 
404	 5.21573653820878E-02 
405	 5.18093604729332E-02 
406	 0.052210807597911 
407	 5.27305218179268E-02 
408	 5.24252703658926E-02 
409	 5.18014400053803E-02 
410	 5.12635785280915E-02 
411	 5.14669242553043E-02 
412	 5.22527721328857E-02 
413	 5.32846270341483E-02 
414	 5.31798480892453E-02 
415	 5.24957181990258E-02 
416	 5.21148375434433E-02 
417	 5.22513235928293E-02 
418	 5.28411855575339E-02 
419	 5.35634575434703E-02 
420	 5.37363717311148E-02 
421	 5.31351439077994E-02 
422	 5.30509806715626E-02 
423	 5.32922737730061E-02 
424	 5.33530156135608E-02 
425	 5.33422128014106E-02 
426	 5.34211049059181E-02 
427	 5.40974826664207E-02 
428	 5.48146499692763E-02 
429	 5.51591183482021E-02 
430	 5.50893300680857E-02 
431	 5.47987005067698E-02 
432	 5.46381058065684E-02 
433	 5.40118707772323E-02 
434	 5.32919736914101E-02 
435	 5.43172251930018E-02 
436	 5.51135066788881E-02 
437	 5.45052677743945E-02 
438	 5.45615753601377E-02 
439	 5.50479534378722E-02 
440	 5.49651760535009E-02 
441	 0.055159443134743 
442	 5.56496900605153E-02 
443	 5.54555479712962E-02 
444	 5.52632434388474E-02 
445	 5.56353519920235E-02 
446	 5.61995157779042E-02 
447	 5.66221066421469E-02 
448	 5.62667526748358E-02 
449	 5.62233454580258E-02 
450	 5.67562856023616E-02 
451	 0.057153446086991 
452	 5.73182563720242E-02 
453	 5.72173647699912E-02 
454	 5.72688222865601E-02 
455	 5.74604543464233E-02 
456	 5.75353591941989E-02 
457	 5.73113787268704E-02 
458	 5.69445095698293E-02 
459	 5.78399357336342E-02 
460	 5.87647937397555E-02 
461	 5.81763653797262E-02 
462	 5.78641982761795E-02 
463	 5.80152449501461E-02 
464	 5.78793099829895E-02 
465	 5.76547188820665E-02 
466	 5.74977714271698E-02 
467	 5.78071593699777E-02 
468	 5.82114572059284E-02 
469	 5.81111373316199E-02 
470	 5.82253339817546E-02 
471	 5.85947985992027E-02 
472	 5.87092280930663E-02 
473	 5.86830411529199E-02 
474	 5.86036702517071E-02 
475	 5.85192025382393E-02 
476	 5.85678701367641E-02 
477	 5.89928899257791E-02 
478	 5.90043134617699E-02 
479	 5.86338871883215E-02 
480	 5.90860796865522E-02 
481	 5.94953679418781E-02 
482	 0.059205400629377 
483	 5.93156595519542E-02 
484	 5.97838682120448E-02 
485	 6.01123466362834E-02 
486	 6.00416516653673E-02 
487	 5.96240001560457E-02 
488	 5.98171875678962E-02 
489	 6.00551358576015E-02 
490	 5.97319316414949E-02 
491	 5.94391322940739E-02 
492	 5.94327400134678E-02 
493	 6.00904577229388E-02 
494	 6.06914485957873E-02 
495	 6.08923463702476E-02 
496	 0.060820205972113 
497	 6.07976507476573E-02 
498	 6.12169559339444E-02 
499	 6.15086492934685E-02 
500	 0.061581033097001 
501	 6.16235444508605E-02 
502	 6.17863674832059E-02 
503	 6.21404910795433E-02 
504	 6.24643163024599E-02 
505	 6.26964094727349E-02 
506	 6.27855451004567E-02 
507	 6.29676859227949E-02 
508	 6.32836403411244E-02 
509	 0.063583064033615 
510	 6.38463508511946E-02 
511	 0.064059003968068 
512	 6.41750435366384E-02 
513	 6.43468513171535E-02 
514	 6.49700605359263E-02 
515	 6.54489970601958E-02 
516	 0.065605105572225 
517	 6.58067667975841E-02 
518	 6.60747613670693E-02 
519	 6.63922274443629E-02 
520	 6.65327900619684E-02 
521	 0.066659106780635 
522	 0.067344489293716 
523	 6.79814847017342E-02 
524	 6.83475828854529E-02 
525	 6.90129358343916E-02 
526	 6.96185984691313E-02 
527	 6.95787890580558E-02 
528	 6.97544644477822E-02 
529	 7.02073645070763E-02 
530	 7.02821658581111E-02 
531	 7.04845882232549E-02 
532	 7.11190897335705E-02 
533	 7.17434088439133E-02 
534	 7.21104936786717E-02 
535	 7.18408924231748E-02 
536	 7.19229078270584E-02 
537	 7.25534798964107E-02 
538	 7.29587559525998E-02 
539	 7.32756005634531E-02 
540	 7.36550678441336E-02 
541	 7.38188932572428E-02 
542	 7.38158340714423E-02 
543	 7.38956777755276E-02 
544	 7.40140822955271E-02 
545	 7.42034897083294E-02 
546	 7.47160360190193E-02 
547	 7.52148684734813E-02 
548	 7.52438326918796E-02 
549	 7.53613874165043E-02 
550	 0.075716104760159 
551	 7.63532044622312E-02 
552	 7.67198814839862E-02 
553	 7.65220022293194E-02 
554	 7.64846786702956E-02 
555	 7.66719019802981E-02 
556	 7.70159233120909E-02 
557	 7.71311290432155E-02 
558	 7.70118885917442E-02 
559	 7.73050281036568E-02 
560	 7.76794694179316E-02 
561	 7.78107102542682E-02 
562	 7.79011258206671E-02 
563	 7.79701929474925E-02 
564	 7.79755532131163E-02 
565	 7.79764084978306E-02 
566	 7.79679712113169E-02 
567	 7.77411084704974E-02 
568	 7.75307777248154E-02 
569	 7.76506669373998E-02 
570	 7.76881279374997E-02 
571	 7.76654503748954E-02 
572	 7.80712239856777E-02 
573	 7.82620670512694E-02 
574	 7.79167699478807E-02 
575	 0.077905276621711 
576	 7.80091945972269E-02 
577	 7.75931591475704E-02 
578	 7.73454476662672E-02 
579	 7.73768984126374E-02 
580	 7.71232968800403E-02 
581	 7.69593926187004E-02 
582	 7.72117138964354E-02 
583	 0.077538726981742 
584	 7.77628831248171E-02 
585	 7.76083687473597E-02 
586	 7.74782629872646E-02 
587	 7.75123689281135E-02 
588	 7.74381564594238E-02 
589	 7.72946272037581E-02 
590	 7.71677400204339E-02 
591	 7.70835265851454E-02 
592	 7.70320704146889E-02 
593	 7.69098658606558E-02 
594	 7.69634408156419E-02 
595	 7.72726962676446E-02 
596	 7.72316998794237E-02 
597	 7.70443268671279E-02 
598	 0.077236599913839 
599	 7.71280533945303E-02 
600	 0.076685653727176 
601	 7.66958339314358E-02 
602	 0.076821324178897 
603	 7.67639362781574E-02 
604	 7.70434681189106E-02 
605	 7.74227169940494E-02 
606	 0.077075325623917 
607	 0.076749402963771 
608	 7.67707244007269E-02 
609	 7.71496475898014E-02 
610	 0.077392057479571 
611	 7.68957603167864E-02 
612	 7.65771195773807E-02 
613	 7.65369781307587E-02 
614	 7.62347671569614E-02 
615	 0.076138101770545 
616	 7.64491538669535E-02 
617	 7.63844180670293E-02 
618	 7.60686282326841E-02 
619	 7.59014395032561E-02 
620	 7.58239964827846E-02 
621	 7.58028721313666E-02 
622	 7.57282011993455E-02 
623	 7.55683306907421E-02 
624	 7.53315187360317E-02 
625	 7.54761502772519E-02 
626	 0.075843013462064 
627	 7.57871995005902E-02 
628	 7.58267499486122E-02 
629	 7.60589459517305E-02 
630	 7.57944193729875E-02 
631	 7.55233256385938E-02 
632	 7.59070202152015E-02 
633	 0.076208822303936 
634	 7.61864071870197E-02 
635	 7.56180723712716E-02 
636	 0.075375021621088 
637	 7.58627972653434E-02 
638	 7.57898455060208E-02 
639	 7.52977217684245E-02 
640	 7.49147284230623E-02 
641	 7.49775033313606E-02 
642	 7.54263890382106E-02 
643	 7.53976215348641E-02 
644	 0.075341878638435 
645	 7.56292732066992E-02 
646	 7.53661723868529E-02 
647	 7.47301570540171E-02 
648	 0.074591977483861 
649	 7.46167728645085E-02 
650	 7.46147116798582E-02 
651	 7.42197651558901E-02 
652	 7.37187095457291E-02 
653	 7.34832190724502E-02 
654	 7.35968240770947E-02 
655	 7.38733544994359E-02 
656	 0.073614145209122 
657	 7.30607753038857E-02 
658	 7.24423020974174E-02 
659	 7.19326239699916E-02 
660	 7.16951017434824E-02 
661	 7.20131154455604E-02 
662	 7.17008153694207E-02 
663	 7.06950339554594E-02 
664	 7.02988648872828E-02 
665	 7.03066737170599E-02 
666	 7.04626821756002E-02 
667	 7.02685802737325E-02 
668	 6.97969791186819E-02 
669	 6.94890668984695E-02 
670	 0.06905664079427 
671	 6.85766609966095E-02 
672	 6.89681122712166E-02 
673	 6.94971596818388E-02 
674	 6.92669609288226E-02 
675	 6.89701967360226E-02 
676	 6.88063023249454E-02 
677	 6.88265405918509E-02 
678	 6.91204747189826E-02 
679	 6.96560009893247E-02 
680	 6.98422744487521E-02 
681	 6.99114661331445E-02 
682	 0.070339828321518 
683	 7.10041149404383E-02 
684	 7.17002605491251E-02 
685	 7.17052304350398E-02 
686	 7.20422392064669E-02 
687	 7.35325087613377E-02 
688	 7.42318433452706E-02 
689	 7.44611620649044E-02 
690	 7.58748858104667E-02 
691	 7.73685850630429E-02 
692	 7.86005469302004E-02 
693	 7.95034985138243E-02 
694	 8.05258862250191E-02 
695	 8.20761995882228E-02 
696	 8.38490158157673E-02 
697	 8.55180986021554E-02 
698	 8.64633573897417E-02 
699	 8.73301987903688E-02 
700	 8.84241342099915E-02 
701	 8.95922917213057E-02 
702	 9.08415158203864E-02 
703	 9.22023029233663E-02 
704	 9.31655457636587E-02 
705	 9.38032171549218E-02 
706	 9.47835614045849E-02 
707	 9.57479695898775E-02 
708	 0.096465372651181 
709	 9.70408159846438E-02 
710	 9.76622282697419E-02 
711	 9.86527283337384E-02 
712	 9.95955776052206E-02 
713	 0.10033974365783 
714	 0.100903450001028 
715	 0.101421214150498 
716	 0.10203634982909 
717	 0.102412783787968 
718	 0.102729656908355 
719	 0.103773753258407 
720	 0.104374750386146 
721	 0.104304682809854 
722	 0.104678031654895 
723	 0.105114833332296 
724	 0.105106806160792 
725	 0.10579153114987 
726	 0.106951104115792 
727	 0.107291983431888 
728	 0.107296977671827 
729	 0.107241440563891 
730	 0.107309371451351 
731	 0.107507033157165 
732	 0.10779741311549 
733	 0.107779467677934 
734	 0.107604266585079 
735	 0.108113563669514 
736	 0.108657538426556 
737	 0.108799451009379 
738	 0.108897206586321 
739	 0.109064862569593 
740	 0.109418388421418 
741	 0.109762647838498 
742	 0.110002579306621 
743	 0.110109737725949 
744	 0.109960402057435 
745	 0.109524882007938 
746	 0.109685219785599 
747	 0.110366672822158 
748	 0.111082580158649 
749	 0.111425528761438 
750	 0.111248024444889 
751	 0.110881552333662 
752	 0.110681677713748 
753	 0.110964525010365 
754	 0.111066999449658 
755	 0.110986364262034 
756	 0.111157229832845 
757	 0.111216679351712 
758	 0.111117079406578 
759	 0.111935628394079 
760	 0.113751345201351 
761	 0.114407250648217 
762	 0.113506175751532 
763	 0.112378701287039 
764	 0.113495999185617 
765	 0.114258498409244 
766	 0.113866996083816 
767	 0.113375539646728 
768	 0.113096691306467 
769	 0.113321103523704 
770	 0.113429862890326 
771	 0.113334463513502 
772	 0.113280031490674 
773	 0.113476317909557 
774	 0.113974388850961 
775	 0.11388003324707 
776	 0.113624705279405 
777	 0.11424339847859 
778	 0.114491038473303 
779	 0.114193998666207 
780	 0.114307541084746 
781	 0.114473631771567 
782	 0.114410527654635 
783	 0.114448546767105 
784	 0.114577066956935 
785	 0.114647264269329 
786	 0.114853739760165 
787	 0.115196511568771 
788	 0.115357170109724 
789	 0.115499110282005 
790	 0.1157784818816 
791	 0.116082326646089 
792	 0.116209137666861 
793	 0.115644343999835 
794	 0.115609068210422 
795	 0.116274299149945 
796	 0.115979853571831 
797	 0.115591109999962 
798	 0.11602001514924 
799	 0.116143628146178 
800	 0.115976882098655 
801	 0.116150010122369 
802	 0.116350199951125 
803	 0.116470365722544 
804	 0.11658809985508 
805	 0.116686854043609 
806	 0.116734296873655 
807	 0.116365210023325 
808	 0.115963833815089 
809	 0.116873060669307 
810	 0.11760574918859 
811	 0.117519464524149 
812	 0.117074504614164 
813	 0.116968585189207 
814	 0.118035985137151 
815	 0.118875231943215 
816	 0.119200685277236 
817	 0.11961543322974 
818	 0.11909651223845 
819	 0.117741409818933 
820	 0.11836673699355 
821	 0.119483994214206 
822	 0.119125331103562 
823	 0.118904974017205 
824	 0.11912128777603 
825	 0.119654941781117 
826	 0.119705149619889 
827	 0.119070488912549 
828	 0.118870447290171 
829	 0.119044372701251 
830	 0.119369893578827 
831	 0.119809228931458 
832	 0.120216295252179 
833	 0.120351988590641 
834	 0.120111767239159 
835	 0.119605722142871 
836	 0.119702074799588 
837	 0.119897873102598 
838	 0.119570669526988 
839	 0.119716241617724 
840	 0.120155612812905 
841	 0.119689007404169 
842	 0.119729950100387 
843	 0.12064826783205 
844	 0.120877647112246 
845	 0.120640208304896 
846	 0.120354117843718 
847	 0.120312376006113 
848	 0.120480595584128 
849	 0.120478882647177 
850	 0.120686937560712 
851	 0.121121511009186 
852	 0.121067688847192 
853	 0.120611502645712 
854	 0.119963860777996 
855	 0.119626845353806 
856	 0.11985993691239 
857	 0.121147296218826 
858	 0.121646945416937 
859	 0.120836531010633 
860	 0.119676859025921 
861	 0.119277413104673 
862	 0.12046826653947 
863	 0.120365388383329 
864	 0.119571186913747 
865	 0.120857525956739 
866	 0.122000030541812 
867	 0.122255199711005 
868	 0.121980943777023 
869	 0.121857503555183 
870	 0.122391960664718 
871	 0.123002970069405 
872	 0.123311202832495 
873	 0.12279176651493 
874	 0.122236007085117 
875	 0.121979759227251 
876	 0.122151877371295 
877	 0.12253265851756 
878	 0.122893728481943 
879	 0.122767594492083 
880	 0.122704238279636 
881	 0.123726869304517 
882	 0.123236054044686 
883	 0.121390821326139 
884	 0.12121925979634 
885	 0.121846942792716 
886	 0.122644119988764 
887	 0.12277189804834 
888	 0.122954570798221 
889	 0.124250572248111 
890	 0.124538845525477 
891	 0.123824909077289 
892	 0.123673827046842 
893	 0.124114302583943 
894	 0.125070344386704 
895	 0.125557142674086 
896	 0.125679929891175 
897	 0.125681041917203 
898	 0.125602060473525 
899	 0.125569523733565 
900	 0.125855646721089 
901	 0.125783962311535 
902	 0.125233420229728 
903	 0.124656384569226 
904	 0.124538378111709 
905	 0.125188033278687 
906	 0.125984359348546 
907	 0.126532097245837 
908	 0.12631338072433 
909	 0.126633850299132 
910	 0.127650497166593 
911	 0.128524841624126 
912	 0.128185831720067 
913	 0.126545984212914 
914	 0.127232023488792 
915	 0.128722431394738 
916	 0.128732388733873 
917	 0.129573094507354 
918	 0.130523185048012 
919	 0.128275443570528 
920	 0.127353588684473 
921	 0.128695839958801 
922	 0.127880686962669 
923	 0.127491359088949 
924	 0.129687347649491 
925	 0.129430392219005 
926	 0.127514962978198 
927	 0.127666128090959 
928	 0.127330342282915 
929	 0.126172092436549 
930	 0.126598661940142 
931	 0.128735090658864 
932	 0.131702959105626 
933	 0.127573625715476 
934	 0.123328861206104 
935	 0.130514687468249 
936	 0.138377464466886 
937	 0.142136079045968 
938	 0.13806974615624 
939	 0.130388943017257 
940	 0.123271479552119 
941	 0.127009169192237 
942	 0.131182535343456 
943	 0.128966067443292 
944	 0.132933679288321 
945	 0.137298099173363 
946	 0.130885374787814 
947	 0.128096919693965 
948	 0.13077234213112 
949	 0.131648797323281 
950	 0.133404112986425 
951	 0.136045123840228 
952	 0.134487512299236 
953	 0.131266537684582 
954	 0.129231993595741 
955	 0.129577160240685 
956	 0.131273189692769 
957	 0.132234429285188 
958	 0.129768424863445 
959	 0.125600439373025 
960	 0.127102683351627 
961	 0.131240292715039 
962	 0.136052386734725 
963	 0.141709654180363 
964	 0.143383876695124 
965	 0.1372221352536 
966	 0.132233858373332 
967	 0.129631560474279 
968	 0.128124109849556 
969	 0.126750065185864 
970	 0.125518947892534 
971	 0.125843999126332 
972	 0.126666410344467 
973	 0.127517639523711 
974	 0.129282874523384 
975	 0.13253136137387 
976	 0.137098901451902 
977	 0.132244254064185 
978	 0.121992818226063 
979	 0.11905755899767 
980	 0.122835316614979 
981	 0.131092130387924 
982	 0.137270378089315 
983	 0.136950035541079 
984	 0.129778337783847 
985	 0.129020839981966 
986	 0.133464311561331 
987	 0.13961203710753 
988	 0.138084592061868 
989	 0.13187602251524 
990	 0.130756106304984 
991	 0.128647638134777 
992	 0.125788267616084 
993	 0.128612808905728 
994	 0.131482961870034 
995	 0.131629573030839 
996	 0.131348915176028 
997	 0.131563122431745 
998	 0.132715709246446 
999	 0.130838342719644 
1000	 0.128190893103294 
1001	 0.129722768643693 
1002	 0.130175259494684 
1003	 0.128883471430433 
1004	 0.128469138209109 
1005	 0.12779771252424 
1006	 0.126455249746824 
1007	 0.123662628617771 
1008	 0.125670086571585 
1009	 0.135100702195377 
1010	 0.133445130225932 
1011	 0.12739697692746 
1012	 0.12937201446021 
1013	 0.131493563933301 
1014	 0.132799190968686 
1015	 0.135356256133655 
1016	 0.13463569871167 
1017	 0.131393795635925 
1018	 0.135207974165458 
1019	 0.136759202716159 
1020	 0.132152451477708 
1021	 0.131540459828255 
1022	 0.133527017794017 
1023	 0.135640899099756 
1024	 0.13766038685664 
1025	 0.136757362167867 
1026	 0.128731662249587 
1027	 0.131142486029162 
1028	 0.140440265868226 
1029	 0.132012028529908 
1030	 0.121934227208717 
1031	 0.118000070164671 
1032	 0.127521318406979 
1033	 0.133751019935002 
1034	 0.128417094072966 
1035	 0.134819705659737 
1036	 0.145986254578761 
1037	 0.152189435502636 
1038	 0.146164732366321 
1039	 0.135853609615038 
1040	 0.137261758265503 
1041	 0.142862123506181 
1042	 0.148029516682795 
1043	 0.146345482329519 
1044	 0.141034750013348 
1045	 0.137237658602284 
1046	 0.151988434303129 
1047	 0.148529982095115 
1048	 0.114243731329967 
1049	 0.124652747616285 
1050	 0.14384391237479 
1051	 0.135074129670943 
1052	 0.133468625239624 
1053	 0.135446526027063 
1054	 0.128398535045641 
1055	 0.143400462616122 
1056	 0.170217081211614 
1057	 0.172664221038647 
1058	 0.14657700016387 
1059	 0.108550490214641 
1060	 0.144272814935024 
1061	 0.15669273740953 
1062	 0.117285109431579 
1063	 0.119950311091777 
1064	 0.138620551216625 
1065	 0.151042627791105 
1066	 0.181304212854105 
1067	 0.198354065673939 
1068	 0.171817398182591 
1069	 0.160090635728053 
1070	 0.163398696773341 
1071	 0.160933487876668 
1072	 0.145998956546356 
1073	 0.12751077752166 
1074	 0.13132745815356 
1075	 0.136419142757919 
