Wavelength	A00243.asd
325	 4.26450692291635E-02 
326	 4.09580290925712E-02 
327	 3.84183441720213E-02 
328	 4.24825173731552E-02 
329	 4.79396057133357E-02 
330	 5.12085579699532E-02 
331	 4.51565651449806E-02 
332	 0.039928765140941 
333	 4.52288640008889E-02 
334	 4.85539056093442E-02 
335	 0.048740835101385 
336	 0.04845461970079 
337	 4.74811828195441E-02 
338	 0.046246268478339 
339	 4.59215308525331E-02 
340	 4.65594752406117E-02 
341	 4.80616152807395E-02 
342	 4.98630865317102E-02 
343	 5.09901500158717E-02 
344	 4.99668162443142E-02 
345	 4.91459075313204E-02 
346	 4.92329786233452E-02 
347	 5.02630244471309E-02 
348	 5.04033603736605E-02 
349	 4.86838470009065E-02 
350	 0.047502426336842 
351	 4.65043039885893E-02 
352	 4.44013101426568E-02 
353	 4.44747509313818E-02 
354	 4.69078364792902E-02 
355	 4.97114025610871E-02 
356	 5.00214520110665E-02 
357	 4.69112403682448E-02 
358	 4.69413228293057E-02 
359	 4.92647529868441E-02 
360	 5.14176666914276E-02 
361	 5.11661622718827E-02 
362	 4.91537286004449E-02 
363	 4.98054055999694E-02 
364	 4.96587315789153E-02 
365	 4.74293622652848E-02 
366	 4.73310781533607E-02 
367	 4.83375080326291E-02 
368	 4.85374640946508E-02 
369	 4.78869115171757E-02 
370	 4.69973307139104E-02 
371	 4.80614285501046E-02 
372	 4.89771164159107E-02 
373	 4.86675314710325E-02 
374	 4.82132305235348E-02 
375	 4.84368881466014E-02 
376	 5.02206420952959E-02 
377	 5.02747327873824E-02 
378	 4.85239349498619E-02 
379	 4.72747210079913E-02 
380	 4.71833785426995E-02 
381	 4.84397602044152E-02 
382	 4.95660386970227E-02 
383	 5.02536538667763E-02 
384	 5.03371160630493E-02 
385	 5.05458548513825E-02 
386	 5.07254860099639E-02 
387	 4.98760556411809E-02 
388	 4.89186498366542E-02 
389	 4.82635194473862E-02 
390	 4.72673891113043E-02 
391	 4.74363051020257E-02 
392	 5.04083011064626E-02 
393	 4.95882165393714E-02 
394	 4.62666065164114E-02 
395	 4.83418153098285E-02 
396	 4.99815240938173E-02 
397	 4.90788388961977E-02 
398	 4.86358163297614E-02 
399	 4.78381311043534E-02 
400	 4.57151265658962E-02 
401	 0.046036761949439 
402	 4.81083483442274E-02 
403	 4.87461064869926E-02 
404	 4.88120837179918E-02 
405	 4.87175532032522E-02 
406	 4.89733413981365E-02 
407	 4.91766589475412E-02 
408	 4.87810961329436E-02 
409	 4.83518244827375E-02 
410	 4.81799080718824E-02 
411	 4.86680724931477E-02 
412	 4.92612331121785E-02 
413	 4.95410010257597E-02 
414	 4.87645397512629E-02 
415	 4.79269127840879E-02 
416	 4.83559294201691E-02 
417	 4.84503575682079E-02 
418	 0.048246850492604 
419	 4.91555003507982E-02 
420	 4.97317080986791E-02 
421	 4.93029540607917E-02 
422	 4.90471550583131E-02 
423	 4.91515788758947E-02 
424	 4.96809876173324E-02 
425	 4.98270246005262E-02 
426	 4.96254344615261E-02 
427	 5.00820833591321E-02 
428	 5.04546139515144E-02 
429	 5.02855854086872E-02 
430	 5.00628297807426E-02 
431	 4.98923663203054E-02 
432	 4.98370394069385E-02 
433	 0.049626032217629 
434	 4.94534966785095E-02 
435	 5.03741163649994E-02 
436	 5.07584862048395E-02 
437	 4.97625902142761E-02 
438	 5.02577358723757E-02 
439	 5.13186739546549E-02 
440	 5.04315526549029E-02 
441	 0.050179537624571 
442	 5.09791199226494E-02 
443	 5.12030686680829E-02 
444	 5.10041522788467E-02 
445	 5.06235429225027E-02 
446	 5.08799330494922E-02 
447	 5.14825608761093E-02 
448	 5.14541512128794E-02 
449	 5.14896397606522E-02 
450	 0.051746888815528 
451	 5.18189134898964E-02 
452	 5.19830664614202E-02 
453	 5.24898432479652E-02 
454	 5.24400785713387E-02 
455	 5.20236256901145E-02 
456	 5.22966989170753E-02 
457	 5.23571679495503E-02 
458	 5.20132917450766E-02 
459	 5.23820804109248E-02 
460	 5.28451176590164E-02 
461	 5.25878572139633E-02 
462	 5.24314388430972E-02 
463	 5.24936544837076E-02 
464	 5.25118125064091E-02 
465	 5.26393749838685E-02 
466	 5.29027229160434E-02 
467	 5.29357669958788E-02 
468	 5.29160051114076E-02 
469	 5.31630861986299E-02 
470	 5.31880427994575E-02 
471	 5.30306694620729E-02 
472	 5.32927687696749E-02 
473	 5.35695119077703E-02 
474	 5.35666248192155E-02 
475	 5.30705138348443E-02 
476	 5.26508982768996E-02 
477	 5.33577041484211E-02 
478	 5.36663427993619E-02 
479	 5.33326666795608E-02 
480	 5.33490829789888E-02 
481	 5.36328429465253E-02 
482	 5.40399313207323E-02 
483	 5.38579159263616E-02 
484	 5.34163665443508E-02 
485	 5.38700629592098E-02 
486	 0.053924751151587 
487	 5.33403607538806E-02 
488	 5.34972275478635E-02 
489	 5.37384871431061E-02 
490	 5.33561739434849E-02 
491	 0.053276490518014 
492	 5.36248130231708E-02 
493	 5.43250327364741E-02 
494	 5.46681393295733E-02 
495	 5.43816990610686E-02 
496	 5.39795965514791E-02 
497	 5.38925476245119E-02 
498	 5.45863939973272E-02 
499	 5.52171174974228E-02 
500	 5.54752452776527E-02 
501	 5.51205877422685E-02 
502	 5.50196099625734E-02 
503	 5.56028398391181E-02 
504	 5.57457232784055E-02 
505	 5.56320961847367E-02 
506	 5.57913815316007E-02 
507	 5.62242893240902E-02 
508	 5.68259436671626E-02 
509	 5.71376013499679E-02 
510	 5.73865440635302E-02 
511	 5.77620133198501E-02 
512	 5.81270253333527E-02 
513	 5.85406913016326E-02 
514	 5.92466235346413E-02 
515	 5.96111347838538E-02 
516	 5.95418889066272E-02 
517	 5.99130069171795E-02 
518	 6.05237676240389E-02 
519	 6.10696316209447E-02 
520	 6.13828486625378E-02 
521	 6.16273359664624E-02 
522	 6.23554703895171E-02 
523	 6.31161383175927E-02 
524	 6.37060624753856E-02 
525	 6.42865846930582E-02 
526	 6.47139587737414E-02 
527	 6.47622780907835E-02 
528	 6.50326027029918E-02 
529	 6.55568202310648E-02 
530	 6.58225797363445E-02 
531	 6.61991081604778E-02 
532	 6.68763047637878E-02 
533	 6.71779301334534E-02 
534	 6.73090536126006E-02 
535	 6.78919180771056E-02 
536	 6.82506301213403E-02 
537	 6.83038412227099E-02 
538	 6.87102590727719E-02 
539	 6.91679203944172E-02 
540	 0.069354867311909 
541	 6.94018654061976E-02 
542	 6.94185824748519E-02 
543	 6.95745076220671E-02 
544	 6.99548836172662E-02 
545	 7.05409383679729E-02 
546	 7.10048005813246E-02 
547	 0.071239734786274 
548	 7.11598142075852E-02 
549	 0.071146670663875 
550	 7.13606344690738E-02 
551	 7.19512260995402E-02 
552	 7.24919550872549E-02 
553	 0.072677559333851 
554	 7.24246061444147E-02 
555	 7.21729718096541E-02 
556	 7.27577062351551E-02 
557	 7.31997560931869E-02 
558	 7.32364486896741E-02 
559	 7.32722101199734E-02 
560	 7.33099354841497E-02 
561	 7.33461842668249E-02 
562	 7.34769360326793E-02 
563	 7.36062624873762E-02 
564	 7.34588774947878E-02 
565	 7.31923914942815E-02 
566	 7.29265851814574E-02 
567	 7.29416576017659E-02 
568	 7.30047047745028E-02 
569	 7.27887681081388E-02 
570	 0.072431599491726 
571	 7.21415141798404E-02 
572	 7.24958596260851E-02 
573	 7.27515709092108E-02 
574	 7.25009055484741E-02 
575	 7.24858679199424E-02 
576	 7.25330407433665E-02 
577	 7.21433747667827E-02 
578	 0.071725819436624 
579	 7.14538620021387E-02 
580	 0.071476004689647 
581	 7.13942974542036E-02 
582	 7.09028663640234E-02 
583	 7.08127760522292E-02 
584	 7.10805517182738E-02 
585	 0.071236888252481 
586	 7.12703421372546E-02 
587	 7.11360770895251E-02 
588	 7.08052849535656E-02 
589	 7.04065445323236E-02 
590	 7.01201079312288E-02 
591	 7.01972446533605E-02 
592	 7.04637287163536E-02 
593	 7.01486637641107E-02 
594	 6.99684520293895E-02 
595	 7.02861726572134E-02 
596	 7.04064603874378E-02 
597	 7.03885170585627E-02 
598	 0.070531744190698 
599	 7.03191675426997E-02 
600	 0.06976380389377 
601	 6.95821062484553E-02 
602	 6.96894425628589E-02 
603	 6.99530763520176E-02 
604	 7.00323395106678E-02 
605	 0.069930415148178 
606	 0.069848603236773 
607	 6.97475161967404E-02 
608	 6.96150133682979E-02 
609	 6.94495087169522E-02 
610	 6.91484880500576E-02 
611	 6.85930026624693E-02 
612	 6.85170469584211E-02 
613	 6.88460932451287E-02 
614	 6.87013724649295E-02 
615	 6.84744387090835E-02 
616	 0.068364399799082 
617	 6.80000869966501E-02 
618	 6.75068397890656E-02 
619	 6.71366436936636E-02 
620	 6.71694403458063E-02 
621	 6.75376876646519E-02 
622	 6.75594978006933E-02 
623	 6.74203587712136E-02 
624	 6.73081945257344E-02 
625	 6.71265987129049E-02 
626	 6.69515781525355E-02 
627	 6.69890291556619E-02 
628	 6.70882795355253E-02 
629	 6.71567276813505E-02 
630	 6.70557913070542E-02 
631	 6.69160800866953E-02 
632	 6.69144139094915E-02 
633	 6.71407831612098E-02 
634	 6.74718021502915E-02 
635	 6.75367301912535E-02 
636	 6.71627150621901E-02 
637	 6.63599481370597E-02 
638	 0.066054698486533 
639	 0.066112916488843 
640	 6.60571731311319E-02 
641	 6.60741395565397E-02 
642	 6.60695163564304E-02 
643	 6.54992579502726E-02 
644	 6.49076230115363E-02 
645	 6.47681880784391E-02 
646	 6.46170654676653E-02 
647	 6.43361061245898E-02 
648	 0.063833309413741 
649	 6.34317867760686E-02 
650	 6.32201700926248E-02 
651	 6.27797822342582E-02 
652	 6.24265015952581E-02 
653	 6.25613661163665E-02 
654	 6.27479087187702E-02 
655	 6.28420640068191E-02 
656	 6.28120282903357E-02 
657	 6.25074547401372E-02 
658	 6.19100618030963E-02 
659	 6.12519683663821E-02 
660	 6.08903908813934E-02 
661	 0.061425273322225 
662	 6.10131361950601E-02 
663	 5.95320852556383E-02 
664	 5.88878167932334E-02 
665	 5.87987071799566E-02 
666	 5.89196288572584E-02 
667	 5.86256063366254E-02 
668	 5.80741493789116E-02 
669	 5.79927411339505E-02 
670	 5.77577317955581E-02 
671	 5.73421717395662E-02 
672	 5.79072946558221E-02 
673	 5.84575485221665E-02 
674	 5.78058830867333E-02 
675	 5.76582133892936E-02 
676	 0.058083976940992 
677	 5.80083488687968E-02 
678	 5.81255269230052E-02 
679	 5.86841573406284E-02 
680	 5.86841273704622E-02 
681	 5.84998994200994E-02 
682	 5.88909680408787E-02 
683	 5.95608854884824E-02 
684	 6.03688330769534E-02 
685	 6.11084480256346E-02 
686	 6.19679122054044E-02 
687	 0.063065661163542 
688	 6.39051702915829E-02 
689	 6.46608489822299E-02 
690	 6.60390807195976E-02 
691	 6.77216085175097E-02 
692	 6.96012885561637E-02 
693	 7.15066931112885E-02 
694	 7.34237155364977E-02 
695	 7.52815391539714E-02 
696	 7.74059704203094E-02 
697	 7.96283983437594E-02 
698	 8.13645017415202E-02 
699	 8.32012532346163E-02 
700	 8.52977274539613E-02 
701	 8.68490515519853E-02 
702	 8.84737834640083E-02 
703	 9.11298491739715E-02 
704	 9.30083276716708E-02 
705	 9.40728146035586E-02 
706	 9.57663234697475E-02 
707	 9.74596858821132E-02 
708	 9.87667020656197E-02 
709	 0.10005637962402 
710	 0.101348358558012 
711	 0.102590141972403 
712	 0.103852750237558 
713	 0.10512548536434 
714	 0.10632576199712 
715	 0.107341529822602 
716	 0.108135233392241 
717	 0.109036938139257 
718	 0.110115736671434 
719	 0.111139040033646 
720	 0.112121920914499 
721	 0.112993419990912 
722	 0.113734687158193 
723	 0.114205999174671 
724	 0.114170121100957 
725	 0.114658741087396 
726	 0.115688120320784 
727	 0.116679193154845 
728	 0.117083514544216 
729	 0.116779211316494 
730	 0.117102593458153 
731	 0.117907455427963 
732	 0.118765717735631 
733	 0.119063171978295 
734	 0.118908617521245 
735	 0.119127761004768 
736	 0.119646942591116 
737	 0.120341813146635 
738	 0.120640977498625 
739	 0.120677312633193 
740	 0.120832019766797 
741	 0.121343036716857 
742	 0.122059456975871 
743	 0.122029524674611 
744	 0.121681412444155 
745	 0.121464384529398 
746	 0.121965665645345 
747	 0.122836211453505 
748	 0.123023686045258 
749	 0.123031169127419 
750	 0.123015081305354 
751	 0.122882405784528 
752	 0.122878563293806 
753	 0.12324838020175 
754	 0.123704785555548 
755	 0.124121000740086 
756	 0.124393828772075 
757	 0.124422467701143 
758	 0.124206220651504 
759	 0.124123579865061 
760	 0.12462610544805 
761	 0.12624378222701 
762	 0.126544252779609 
763	 0.125798359092633 
764	 0.126057596090122 
765	 0.126556502315395 
766	 0.126931399655736 
767	 0.127032059495161 
768	 0.126868935774033 
769	 0.126416130693164 
770	 0.126147997447532 
771	 0.126126592771631 
772	 0.126018360166507 
773	 0.126079859390165 
774	 0.126445932018696 
775	 0.126714775027215 
776	 0.126917617557903 
777	 0.127225595700201 
778	 0.127590791064802 
779	 0.127936001678451 
780	 0.127987087627131 
781	 0.128121398821144 
782	 0.128597295673395 
783	 0.128754055368708 
784	 0.128729547443043 
785	 0.129112445046452 
786	 0.128891827596466 
787	 0.12810247405241 
788	 0.128569247077029 
789	 0.129234419946894 
790	 0.129089485699526 
791	 0.129414931134641 
792	 0.130016507668968 
793	 0.129862924663858 
794	 0.129744914073556 
795	 0.129872952037557 
796	 0.129780795816285 
797	 0.129765070328679 
798	 0.130119355675003 
799	 0.130348086048128 
800	 0.130406090900469 
801	 0.130432439077705 
802	 0.130576789551777 
803	 0.130817394356676 
804	 0.130582958799799 
805	 0.130495433830594 
806	 0.131202293053147 
807	 0.131118911385975 
808	 0.130619219869882 
809	 0.131881201483542 
810	 0.132405157641388 
811	 0.131406867259082 
812	 0.13144967850061 
813	 0.131973601602091 
814	 0.131969263195191 
815	 0.132052905607752 
816	 0.132459429471431 
817	 0.133657254652477 
818	 0.133641930510772 
819	 0.132137603719144 
820	 0.132769140066681 
821	 0.134068193108447 
822	 0.134007888012443 
823	 0.133985520917572 
824	 0.13417535772525 
825	 0.134201597309881 
826	 0.134293905882283 
827	 0.134594944693414 
828	 0.135449123620471 
829	 0.135790386102984 
830	 0.134398003900536 
831	 0.134341832079275 
832	 0.135565440111999 
833	 0.135885476201015 
834	 0.135832082592128 
835	 0.135654691433618 
836	 0.135673019658396 
837	 0.135808708254184 
838	 0.135927723237025 
839	 0.135878936305488 
840	 0.135716099734175 
841	 0.135628565321197 
842	 0.135940062729853 
843	 0.136597057896241 
844	 0.136406138440625 
845	 0.136000125173864 
846	 0.136193440668916 
847	 0.136666592634258 
848	 0.137115154448942 
849	 0.136846648130012 
850	 0.136661637602959 
851	 0.136827740045731 
852	 0.136796453887396 
853	 0.136609401831692 
854	 0.136384245676621 
855	 0.136568974475229 
856	 0.136927854375348 
857	 0.136549977672207 
858	 0.136836005515014 
859	 0.137837180883995 
860	 0.137252038256409 
861	 0.136512996522135 
862	 0.1370172108565 
863	 0.136967962256703 
864	 0.136768369532017 
865	 0.13823583732442 
866	 0.138756413780465 
867	 0.137931915600016 
868	 0.138466908612417 
869	 0.139186074403442 
870	 0.139178026666436 
871	 0.14019422731594 
872	 0.141421959664326 
873	 0.14083102155996 
874	 0.140113450933425 
875	 0.139724913224377 
876	 0.139123087880687 
877	 0.139090377700618 
878	 0.139982627608685 
879	 0.139870068132872 
880	 0.139597944509858 
881	 0.141001860900299 
882	 0.14083780441056 
883	 0.139054601004357 
884	 0.1385735280822 
885	 0.138932975874201 
886	 0.139768708135606 
887	 0.140289693457648 
888	 0.140648098866429 
889	 0.141193665347373 
890	 0.141858507798787 
891	 0.142259807799083 
892	 0.141278118358031 
893	 0.139986905991727 
894	 0.139198025458742 
895	 0.140043059834804 
896	 0.141584984960217 
897	 0.142491555872249 
898	 0.142094498227312 
899	 0.141523132636651 
900	 0.144196544853997 
901	 0.144729446458298 
902	 0.142281697194958 
903	 0.141545964257731 
904	 0.141568989390768 
905	 0.141527045904795 
906	 0.141839044093729 
907	 0.142567478468929 
908	 0.143824557114572 
909	 0.143464649433192 
910	 0.141687847278558 
911	 0.141559985388868 
912	 0.143507538480034 
913	 0.146850268836605 
914	 0.145750694843358 
915	 0.14339849172701 
916	 0.144355236226963 
917	 0.145102036886127 
918	 0.144634050429051 
919	 0.141837944295337 
920	 0.14146851856462 
921	 0.14409036340706 
922	 0.14278685774827 
923	 0.141648958447455 
924	 0.144184567320916 
925	 0.143081779250099 
926	 0.14046477786919 
927	 0.143882584699724 
928	 0.145392084259535 
929	 0.142553199340344 
930	 0.13843788539189 
931	 0.136741898258353 
932	 0.139908493050878 
933	 0.137661809958804 
934	 0.135710297501128 
935	 0.144036932253185 
936	 0.148761453644229 
937	 0.149145673453338 
938	 0.153746820382497 
939	 0.150064832829365 
940	 0.13909544018445 
941	 0.14232213338424 
942	 0.147092172935752 
943	 0.144270736021146 
944	 0.142249308335296 
945	 0.142834697987971 
946	 0.146983311938383 
947	 0.148240981122491 
948	 0.146698070198811 
949	 0.14886154502004 
950	 0.150798372868654 
951	 0.150761279728222 
952	 0.149381845299169 
953	 0.146259993740575 
954	 0.141886744614893 
955	 0.145852711624924 
956	 0.153034161254367 
957	 0.151787742332678 
958	 0.147768050827915 
959	 0.143139684225732 
960	 0.138758503720839 
961	 0.140163295049293 
962	 0.147677078549065 
963	 0.148975077920566 
964	 0.146147615177688 
965	 0.142477431642663 
966	 0.141353560841326 
967	 0.143231902228801 
968	 0.148166545758946 
969	 0.144961104077906 
970	 0.135777290491573 
971	 0.14160945931117 
972	 0.147088925233168 
973	 0.144831419128218 
974	 0.145638207695852 
975	 0.14880291924589 
976	 0.152102769902177 
977	 0.150972675520334 
978	 0.147382432394031 
979	 0.147787177355999 
980	 0.146055970246722 
981	 0.142658349762869 
982	 0.145885366669125 
983	 0.147629185074546 
984	 0.144706250290521 
985	 0.146939855832308 
986	 0.152388416642432 
987	 0.157330347284781 
988	 0.152213787377701 
989	 0.142481679650465 
990	 0.14246690404284 
991	 0.141664920279611 
992	 0.13988202209926 
993	 0.147600950396665 
994	 0.151765485695412 
995	 0.147025559895781 
996	 0.144176464088454 
997	 0.142709514731662 
998	 0.141728054126679 
999	 0.145126952366989 
1000	 0.150545784676613 
1001	 0.153170226756699 
1002	 0.147529425121491 
1003	 0.137695716731982 
1004	 0.141714887127556 
1005	 0.147571207000639 
1006	 0.149609221466926 
1007	 0.146552790308683 
1008	 0.143053821890196 
1009	 0.142337076707915 
1010	 0.136857092032897 
1011	 0.13216173263447 
1012	 0.136844280067603 
1013	 0.140528143270959 
1014	 0.144293890666016 
1015	 0.1579188785413 
1016	 0.161444220528467 
1017	 0.151746964574868 
1018	 0.144711034322482 
1019	 0.142717162750295 
1020	 0.146465930538634 
1021	 0.150650784106497 
1022	 0.153706188651381 
1023	 0.154465826089773 
1024	 0.150258090155698 
1025	 0.144606988764928 
1026	 0.143810064259743 
1027	 0.14946968191225 
1028	 0.156490923484504 
1029	 0.148563538558984 
1030	 0.141969220378113 
1031	 0.141485580526007 
1032	 0.139230337765708 
1033	 0.13973971124482 
1034	 0.144530515856479 
1035	 0.14372828101322 
1036	 0.142840579143271 
1037	 0.147912493209187 
1038	 0.149430980576694 
1039	 0.150628179564299 
1040	 0.159898972065803 
1041	 0.162947027983986 
1042	 0.158971350352357 
1043	 0.15599331417724 
1044	 0.154262038181657 
1045	 0.155244990290019 
1046	 0.163220806681438 
1047	 0.160531625822254 
1048	 0.140902390850782 
1049	 0.139717019468765 
1050	 0.146179787181791 
1051	 0.146650065932972 
1052	 0.1411994374327 
1053	 0.140158751904174 
1054	 0.158367622285551 
1055	 0.160821924008591 
1056	 0.154136538419803 
1057	 0.173348900788703 
1058	 0.184719718647187 
1059	 0.180078820239003 
1060	 0.171889275447271 
1061	 0.147439609243616 
1062	 0.114214452290256 
1063	 0.156503212011114 
1064	 0.18475979984355 
1065	 0.144200285719617 
1066	 0.153867203027446 
1067	 0.172518906892943 
1068	 0.148667673256837 
1069	 0.149866398081781 
1070	 0.16512610570239 
1071	 0.154247182014319 
1072	 0.160146334039199 
1073	 0.167503115203338 
1074	 0.111774391005132 
1075	 0.106500864227617 
