Wavelength	A00294.asd
325	 2.88609230170428E-02 
326	 0.028697128650821 
327	 3.13452873427236E-02 
328	 0.034642468630109 
329	 3.81013979996908E-02 
330	 4.05870540030662E-02 
331	 3.79219015332984E-02 
332	 0.035871219832491 
333	 3.97869126201433E-02 
334	 0.03942723918173 
335	 3.65669185460552E-02 
336	 0.039549867002178 
337	 4.02268559914602E-02 
338	 3.74312417404755E-02 
339	 3.81350793850067E-02 
340	 3.81316484810317E-02 
341	 0.034385493774425 
342	 3.49352510858756E-02 
343	 3.82505036957541E-02 
344	 3.96088148999321E-02 
345	 3.88173711383199E-02 
346	 0.036786516660722 
347	 0.037389875663428 
348	 3.86476166421993E-02 
349	 3.91370182203674E-02 
350	 3.95603241971664E-02 
351	 3.91280994408458E-02 
352	 3.63392054438945E-02 
353	 3.58117782054936E-02 
354	 0.037548486366898 
355	 3.71172650623169E-02 
356	 3.55890009816962E-02 
357	 0.034201592829679 
358	 3.70470205640455E-02 
359	 0.040749369608192 
360	 3.97488095752502E-02 
361	 3.75147102493754E-02 
362	 0.035930283392978 
363	 3.82243767167613E-02 
364	 3.92262194610877E-02 
365	 3.69006210560636E-02 
366	 0.037498631180949 
367	 3.85520951060602E-02 
368	 0.035956147701545 
369	 3.58021222293383E-02 
370	 0.037841635410247 
371	 3.61538611923901E-02 
372	 3.54960392580935E-02 
373	 3.78291810748597E-02 
374	 3.76364831175538E-02 
375	 3.65558720310958E-02 
376	 3.75646821600674E-02 
377	 3.80301209499073E-02 
378	 3.73882147646227E-02 
379	 3.55907899055125E-02 
380	 3.53168140326938E-02 
381	 3.74568664065878E-02 
382	 3.82054787579987E-02 
383	 3.76342832344373E-02 
384	 3.63916740429565E-02 
385	 3.66569699135144E-02 
386	 3.80181215246127E-02 
387	 3.75463821796882E-02 
388	 0.036585736792365 
389	 3.58107343157005E-02 
390	 3.52219360078166E-02 
391	 3.54413296742998E-02 
392	 3.70828751094053E-02 
393	 3.65708278219479E-02 
394	 3.45185290716461E-02 
395	 3.48380915830983E-02 
396	 3.57618879704267E-02 
397	 3.64113610332367E-02 
398	 3.66933934026804E-02 
399	 3.61115950816799E-02 
400	 3.42988831250593E-02 
401	 0.03392355312279 
402	 3.48706204218151E-02 
403	 3.58285046714314E-02 
404	 3.58619941133532E-02 
405	 3.49170472827838E-02 
406	 3.54700628104863E-02 
407	 3.66278081738148E-02 
408	 0.03701713975357 
409	 3.65820048389738E-02 
410	 3.56771638412364E-02 
411	 3.52399073526431E-02 
412	 3.54077475140163E-02 
413	 3.60417995367769E-02 
414	 3.57923859511209E-02 
415	 0.035306487997656 
416	 3.55787032674368E-02 
417	 3.56227647022377E-02 
418	 3.54234447649736E-02 
419	 3.56626707636646E-02 
420	 3.58489445956651E-02 
421	 0.035791800106807 
422	 3.61764512539285E-02 
423	 3.66104993449642E-02 
424	 3.64318327520538E-02 
425	 3.63469663556624E-02 
426	 3.64882110960024E-02 
427	 3.66232575598667E-02 
428	 3.67806666464266E-02 
429	 3.69459512955239E-02 
430	 3.69597451868861E-02 
431	 3.67247875167906E-02 
432	 3.61249791536704E-02 
433	 3.56161560692286E-02 
434	 3.54109811235276E-02 
435	 3.56839144611742E-02 
436	 3.59970861316834E-02 
437	 3.61005289645742E-02 
438	 3.66422195502812E-02 
439	 3.71474623895626E-02 
440	 3.65596648134719E-02 
441	 0.036335590671116 
442	 3.67009753030348E-02 
443	 3.65887701870855E-02 
444	 3.62938841287268E-02 
445	 3.61339124067446E-02 
446	 3.66509323898409E-02 
447	 3.74270429266417E-02 
448	 3.73804022022153E-02 
449	 3.70763908926929E-02 
450	 3.68273799695181E-02 
451	 3.71725163725609E-02 
452	 3.76502921951374E-02 
453	 3.77734232575811E-02 
454	 3.77293536075662E-02 
455	 3.76001338986105E-02 
456	 3.74961829040539E-02 
457	 3.74773398487004E-02 
458	 3.75975995475088E-02 
459	 3.79935444774634E-02 
460	 3.82494901145791E-02 
461	 3.78848057093296E-02 
462	 3.74455766433709E-02 
463	 3.71217067281675E-02 
464	 3.69827131309303E-02 
465	 0.037157054790885 
466	 3.76088116415175E-02 
467	 0.037631219932482 
468	 3.74244219133088E-02 
469	 3.74036046008977E-02 
470	 3.75307601038761E-02 
471	 3.76980244199534E-02 
472	 3.75117933086581E-02 
473	 3.74323522862094E-02 
474	 3.76920877260378E-02 
475	 3.76019869553718E-02 
476	 3.74239125531556E-02 
477	 3.78070884591474E-02 
478	 3.77163528236753E-02 
479	 3.71366419310712E-02 
480	 3.72598449349958E-02 
481	 3.77464633974715E-02 
482	 3.82263400597711E-02 
483	 3.79408794740679E-02 
484	 3.73359679844197E-02 
485	 3.78393496672678E-02 
486	 3.81613824797877E-02 
487	 3.79678280343807E-02 
488	 3.81697517265124E-02 
489	 3.82886781735234E-02 
490	 3.78216281848856E-02 
491	 3.72653041537601E-02 
492	 3.70283245794302E-02 
493	 3.79415199132223E-02 
494	 3.87333861900317E-02 
495	 0.038810278593553 
496	 3.83784699020588E-02 
497	 0.038126298687546 
498	 3.88945039770944E-02 
499	 3.94630912956792E-02 
500	 3.94930641262465E-02 
501	 3.88885933236377E-02 
502	 3.88334759196047E-02 
503	 3.98671272428283E-02 
504	 4.01025224878707E-02 
505	 3.99176906105614E-02 
506	 4.03632255516634E-02 
507	 4.06875101030523E-02 
508	 4.08490563385744E-02 
509	 4.15435338492968E-02 
510	 0.042092704534852 
511	 4.20155926737013E-02 
512	 4.23866315990541E-02 
513	 4.31193766336177E-02 
514	 0.043619289646809 
515	 4.38798247219634E-02 
516	 4.40116422128801E-02 
517	 4.47056195638926E-02 
518	 4.56309723217558E-02 
519	 4.63581540316465E-02 
520	 4.68145827424632E-02 
521	 4.71886540025295E-02 
522	 4.80379242388168E-02 
523	 4.89244476867057E-02 
524	 0.049663936083623 
525	 5.04703538866021E-02 
526	 5.11714431651156E-02 
527	 5.14984208184922E-02 
528	 5.18153904313451E-02 
529	 5.22487491428921E-02 
530	 5.28678368515819E-02 
531	 5.34415319935447E-02 
532	 5.38392212201334E-02 
533	 5.43997265338395E-02 
534	 5.49482115688565E-02 
535	 5.50384283192649E-02 
536	 5.51982744912042E-02 
537	 5.55961281020422E-02 
538	 5.61253854876061E-02 
539	 5.66508139757769E-02 
540	 5.70411403346368E-02 
541	 5.73570502965195E-02 
542	 5.75668761727789E-02 
543	 0.057508738766561 
544	 5.76748772318849E-02 
545	 5.82247079741348E-02 
546	 0.058710332523305 
547	 5.89943108776593E-02 
548	 5.89624827897657E-02 
549	 5.91255389611806E-02 
550	 5.95524167317592E-02 
551	 0.059995282510905 
552	 6.03385780144341E-02 
553	 6.05042943304688E-02 
554	 6.05504785137115E-02 
555	 6.06110053483667E-02 
556	 6.09256968935486E-02 
557	 6.10520766091255E-02 
558	 6.09252301632147E-02 
559	 6.09606528159174E-02 
560	 6.10657356371271E-02 
561	 6.11377861995636E-02 
562	 6.12181921591314E-02 
563	 6.12326558833094E-02 
564	 6.09951971178082E-02 
565	 6.06415834313083E-02 
566	 6.02761213408063E-02 
567	 0.060136482891303 
568	 5.99659110885094E-02 
569	 5.94147755866556E-02 
570	 5.91206254204891E-02 
571	 5.91607496230839E-02 
572	 0.059260301921015 
573	 5.91051536037384E-02 
574	 5.85678720753339E-02 
575	 5.84008615654788E-02 
576	 0.05841036177474 
577	 5.80483316563115E-02 
578	 5.76615989457702E-02 
579	 5.73415860144293E-02 
580	 5.69785338782849E-02 
581	 5.67103310704144E-02 
582	 5.66585323018569E-02 
583	 5.68317923841327E-02 
584	 5.69758381214281E-02 
585	 5.64312139172938E-02 
586	 5.60297075757944E-02 
587	 5.60209293080723E-02 
588	 5.56302292848155E-02 
589	 5.51740026180953E-02 
590	 5.51562936468499E-02 
591	 5.52340770407909E-02 
592	 5.52760693739798E-02 
593	 5.51547722403333E-02 
594	 5.50869659919995E-02 
595	 5.51718186171052E-02 
596	 5.50734969225936E-02 
597	 5.49750578364744E-02 
598	 5.53186323322286E-02 
599	 5.51176549770565E-02 
600	 5.42896070028029E-02 
601	 5.38643691988373E-02 
602	 5.37784753146429E-02 
603	 5.39246247458826E-02 
604	 5.42036836417676E-02 
605	 5.43558078302151E-02 
606	 5.37827356536898E-02 
607	 5.33949647288271E-02 
608	 0.053491536102367 
609	 5.33910117898122E-02 
610	 0.053095066230219 
611	 5.26880651254906E-02 
612	 5.26497747590467E-02 
613	 5.28154764215464E-02 
614	 5.21357598571542E-02 
615	 0.051810657455549 
616	 5.23795419328297E-02 
617	 5.18550936596448E-02 
618	 5.07632064392678E-02 
619	 5.04378580572196E-02 
620	 5.05274368247112E-02 
621	 5.08165036207821E-02 
622	 5.08233108664738E-02 
623	 5.04248892757366E-02 
624	 4.96145563039096E-02 
625	 4.95809696748824E-02 
626	 5.01162822886922E-02 
627	 5.00416751545987E-02 
628	 5.01250090597037E-02 
629	 5.05055326122825E-02 
630	 5.03113665473611E-02 
631	 4.98278457943499E-02 
632	 4.95050410026163E-02 
633	 4.96545558814361E-02 
634	 5.00614956130625E-02 
635	 4.97398110448565E-02 
636	 4.94547973225903E-02 
637	 4.95685625370307E-02 
638	 4.91130519738975E-02 
639	 4.83750426460663E-02 
640	 4.80810172036055E-02 
641	 4.77635768721442E-02 
642	 4.73373840584668E-02 
643	 4.70127424640826E-02 
644	 4.67188158000119E-02 
645	 4.63889076106088E-02 
646	 4.61653894507395E-02 
647	 4.58272488259874E-02 
648	 4.46102794895636E-02 
649	 4.40675116470741E-02 
650	 4.45917106431575E-02 
651	 4.44460917225226E-02 
652	 4.39429222051756E-02 
653	 4.36295105351479E-02 
654	 4.37333973585233E-02 
655	 4.40484845070095E-02 
656	 4.36126796933512E-02 
657	 4.29735208312292E-02 
658	 4.25072103832156E-02 
659	 4.21059002629284E-02 
660	 4.17634397198577E-02 
661	 4.15102198390978E-02 
662	 4.10328256234621E-02 
663	 4.04079249533152E-02 
664	 4.03726344428457E-02 
665	 0.040396395435554 
666	 0.040027884485502 
667	 3.95858163167309E-02 
668	 3.92349969819233E-02 
669	 3.92573926223098E-02 
670	 3.91733800925417E-02 
671	 3.88941356573162E-02 
672	 3.90201778011683E-02 
673	 3.92736513437968E-02 
674	 3.92864809630807E-02 
675	 3.90150242513506E-02 
676	 3.87252099773066E-02 
677	 3.92761425486649E-02 
678	 3.97322795609327E-02 
679	 3.96467876575365E-02 
680	 3.97181039436958E-02 
681	 4.00419505061237E-02 
682	 4.06228340182319E-02 
683	 4.14454715512157E-02 
684	 4.23078097194841E-02 
685	 0.042457621193616 
686	 4.29581513568757E-02 
687	 4.46846855351581E-02 
688	 4.59063073886159E-02 
689	 4.67450427761878E-02 
690	 4.84194733676992E-02 
691	 0.050374146866756 
692	 5.24670464800381E-02 
693	 5.45528548601547E-02 
694	 5.70191062112257E-02 
695	 6.01319749328898E-02 
696	 6.30776785486708E-02 
697	 6.57874729849309E-02 
698	 0.068668134194116 
699	 7.15685942765351E-02 
700	 7.44198859675523E-02 
701	 7.75088668306429E-02 
702	 8.06978519537545E-02 
703	 8.37721819997843E-02 
704	 8.65052227822053E-02 
705	 0.089056827697867 
706	 9.20968082834316E-02 
707	 9.49504760367385E-02 
708	 9.72108816956472E-02 
709	 9.93906980016759E-02 
710	 0.101740571741862 
711	 0.104606390684327 
712	 0.10732997371847 
713	 0.109622686600682 
714	 0.111379595119519 
715	 0.112953801155711 
716	 0.114773492945778 
717	 0.116618446426923 
718	 0.118618213932466 
719	 0.121036424509234 
720	 0.122868242143833 
721	 0.123880907996067 
722	 0.125128711558618 
723	 0.126393196846245 
724	 0.127239321296968 
725	 0.128097874863691 
726	 0.129192479806203 
727	 0.131143233606634 
728	 0.132619000333632 
729	 0.133037201240079 
730	 0.133516184109762 
731	 0.134295137105561 
732	 0.135492815159726 
733	 0.136476803394797 
734	 0.137123147254988 
735	 0.137477010522897 
736	 0.138030417825805 
737	 0.139014393922329 
738	 0.139472139657606 
739	 0.139608812852036 
740	 0.140038531974588 
741	 0.140682575895927 
742	 0.14142848174329 
743	 0.141944241463867 
744	 0.142053029544326 
745	 0.141713867426019 
746	 0.142131566517063 
747	 0.14307782303558 
748	 0.14351738512097 
749	 0.143743546204146 
750	 0.143840182200461 
751	 0.143831619309264 
752	 0.143982753594661 
753	 0.144532658487256 
754	 0.144690847875582 
755	 0.144615655019718 
756	 0.14534155226647 
757	 0.145556350726888 
758	 0.144871083396424 
759	 0.145559978142044 
760	 0.147713684916261 
761	 0.148502113797678 
762	 0.148678631012685 
763	 0.148695887452281 
764	 0.148651663372228 
765	 0.148667779313962 
766	 0.148769027176915 
767	 0.14882564142655 
768	 0.148832488628998 
769	 0.1487761087258 
770	 0.149084166609567 
771	 0.149561367440964 
772	 0.149036949889854 
773	 0.14879051820945 
774	 0.14956892986556 
775	 0.149855967090375 
776	 0.149861361505745 
777	 0.150409514908072 
778	 0.150353554837114 
779	 0.149688519439218 
780	 0.149788890667641 
781	 0.150382476435709 
782	 0.151143035991275 
783	 0.15137910736938 
784	 0.151252299297982 
785	 0.151373089425886 
786	 0.151632960943411 
787	 0.151882509004342 
788	 0.151452642927474 
789	 0.1511597780293 
790	 0.1517402145543 
791	 0.152155486753739 
792	 0.152326120101221 
793	 0.152561220416445 
794	 0.152779215949907 
795	 0.152961643473422 
796	 0.153132300683188 
797	 0.153204109482641 
798	 0.153097725787828 
799	 0.15293092341489 
800	 0.15276880086834 
801	 0.152634027756925 
802	 0.15290323925142 
803	 0.153546838743064 
804	 0.153472449618401 
805	 0.153442520411259 
806	 0.154291845948797 
807	 0.15415053678856 
808	 0.15341529387331 
809	 0.154385512171349 
810	 0.155177191155377 
811	 0.155039792347714 
812	 0.154728703965231 
813	 0.154805802565781 
814	 0.155889341161846 
815	 0.156406213811472 
816	 0.156354743717762 
817	 0.15732620280637 
818	 0.157379052497421 
819	 0.156159192575278 
820	 0.156356404156265 
821	 0.157637545810134 
822	 0.159314842210515 
823	 0.159303915298766 
824	 0.158125747500776 
825	 0.158741192121741 
826	 0.159600275514594 
827	 0.160039037499606 
828	 0.159989732213164 
829	 0.159660187069722 
830	 0.159361785367359 
831	 0.159943531552668 
832	 0.160894846248808 
833	 0.160155118934379 
834	 0.159755594445522 
835	 0.160416088932475 
836	 0.160794770388713 
837	 0.161022231080451 
838	 0.161354948091806 
839	 0.161170235336702 
840	 0.160672297626495 
841	 0.160738428346855 
842	 0.161115838692758 
843	 0.161590114164954 
844	 0.161516689403242 
845	 0.161383631471583 
846	 0.161776281396882 
847	 0.161999308004933 
848	 0.161883894212697 
849	 0.161273475379979 
850	 0.161255226145377 
851	 0.162099747523666 
852	 0.162401093613772 
853	 0.162295764244518 
854	 0.162078228848704 
855	 0.161980433242291 
856	 0.161999571157152 
857	 0.161869058136783 
858	 0.162298191083786 
859	 0.163218154394152 
860	 0.163066975958186 
861	 0.162546769571672 
862	 0.162408331716307 
863	 0.162249132042515 
864	 0.162352665246875 
865	 0.163549171121361 
866	 0.164354040681693 
867	 0.164453610224416 
868	 0.165231625838804 
869	 0.165596096041132 
870	 0.164847208338179 
871	 0.165501525422676 
872	 0.166834881946754 
873	 0.166737110246301 
874	 0.16599993647782 
875	 0.165153461296898 
876	 0.16523880742065 
877	 0.166004042308397 
878	 0.167129046491971 
879	 0.167760218417862 
880	 0.16819163516767 
881	 0.169161162479519 
882	 0.168749068661183 
883	 0.167296714988999 
884	 0.167755440033123 
885	 0.16874873326587 
886	 0.16938488842763 
887	 0.169217640658628 
888	 0.169171222562468 
889	 0.170491381675526 
890	 0.17076226211598 
891	 0.170019451496065 
892	 0.170382881114743 
893	 0.170036328756648 
894	 0.168573056920432 
895	 0.168747935519879 
896	 0.170362189475478 
897	 0.172680237689829 
898	 0.17324315728497 
899	 0.172447998063829 
900	 0.172968622707699 
901	 0.172477015658295 
902	 0.170749818293759 
903	 0.169659061947447 
904	 0.17048562318334 
905	 0.173721463719452 
906	 0.175048907540202 
907	 0.174717470700223 
908	 0.174469767388451 
909	 0.173290033757561 
910	 0.171762939368204 
911	 0.172709817054947 
912	 0.17413159280186 
913	 0.174781470309919 
914	 0.174868048608338 
915	 0.175256119436887 
916	 0.176902750447383 
917	 0.177927517017973 
918	 0.177312175411469 
919	 0.172967589228825 
920	 0.171886659027708 
921	 0.17521703112077 
922	 0.17443008422721 
923	 0.172973331760115 
924	 0.174053907886063 
925	 0.173444261810743 
926	 0.171697809543398 
927	 0.171631215634032 
928	 0.170600595260781 
929	 0.168384503308597 
930	 0.16813158240303 
931	 0.171457107853687 
932	 0.178066941539849 
933	 0.174437930050881 
934	 0.1669343853299 
935	 0.168291372886296 
936	 0.172345583574455 
937	 0.175949397651465 
938	 0.175300458284479 
939	 0.173198199836199 
940	 0.171670052092779 
941	 0.175787962615488 
942	 0.175942168495177 
943	 0.166950402736338 
944	 0.168833675793207 
945	 0.175424680984582 
946	 0.172960896613015 
947	 0.172335679933087 
948	 0.174616476595291 
949	 0.174275330669863 
950	 0.174855248003017 
951	 0.176937943062326 
952	 0.175580354131898 
953	 0.172486983241813 
954	 0.169935781334917 
955	 0.171656324328758 
956	 0.175244189997953 
957	 0.175253373637393 
958	 0.176860987983052 
959	 0.17818184317595 
960	 0.167591638913563 
961	 0.163908311897776 
962	 0.173335635679587 
963	 0.175827102683249 
964	 0.175340392179874 
965	 0.176905637803024 
966	 0.175251881412619 
967	 0.171974336136013 
968	 0.171814431308255 
969	 0.168117803487261 
970	 0.162283518131081 
971	 0.166402936112522 
972	 0.170571177405564 
973	 0.170094402912799 
974	 0.172730554775563 
975	 0.176413343970171 
976	 0.177903793269876 
977	 0.17499297266697 
978	 0.17021634180589 
979	 0.16987645726445 
980	 0.171015414381412 
981	 0.172475635514271 
982	 0.173248238695699 
983	 0.174271767786286 
984	 0.176021109741684 
985	 0.178215025657392 
986	 0.179854761431283 
987	 0.179881346096894 
988	 0.177292063244515 
989	 0.174118096101765 
990	 0.174707800191077 
991	 0.17336243988996 
992	 0.170123211164708 
993	 0.171007636907135 
994	 0.173374479996871 
995	 0.175238501837392 
996	 0.173955364594446 
997	 0.171871851702599 
998	 0.171427383472368 
999	 0.16945607551596 
1000	 0.169056566645312 
1001	 0.176264306497734 
1002	 0.177053630709743 
1003	 0.171300106750049 
1004	 0.171328491542933 
1005	 0.173941042758171 
1006	 0.176851897945097 
1007	 0.17446563434538 
1008	 0.17323658813969 
1009	 0.177125214420746 
1010	 0.173445709447732 
1011	 0.16726077166066 
1012	 0.167652013194816 
1013	 0.16845321959645 
1014	 0.168501283835153 
1015	 0.16799604927105 
1016	 0.169721806288912 
1017	 0.174295946801111 
1018	 0.180366240639309 
1019	 0.18408355378082 
1020	 0.183263250000944 
1021	 0.178426728794454 
1022	 0.174489668606058 
1023	 0.175834126557989 
1024	 0.1795559411533 
1025	 0.179912194344722 
1026	 0.16864836608878 
1027	 0.169108568048562 
1028	 0.180586995030647 
1029	 0.181959097683083 
1030	 0.182859746171538 
1031	 0.184163875930263 
1032	 0.175409010181083 
1033	 0.172595381546327 
1034	 0.183811265730958 
1035	 0.190366983500951 
1036	 0.188134487112416 
1037	 0.176572263683337 
1038	 0.178520831891178 
1039	 0.189191802655534 
1040	 0.192389176256064 
1041	 0.186496297039521 
1042	 0.176503775806881 
1043	 0.175345125692114 
1044	 0.187417384452641 
1045	 0.205470430203139 
1046	 0.196654217730211 
1047	 0.174517982637195 
1048	 0.15316102824659 
1049	 0.169761360606977 
1050	 0.187371841799362 
1051	 0.173834976819792 
1052	 0.183170807108857 
1053	 0.202001039384946 
1054	 0.197404708015278 
1055	 0.198569854410149 
1056	 0.207366911243911 
1057	 0.215334584175169 
1058	 0.19169723479262 
1059	 0.146079815635295 
1060	 0.168324314642844 
1061	 0.191813435806221 
1062	 0.188776925529173 
1063	 0.177465783989061 
1064	 0.159769215805572 
1065	 0.144374972786139 
1066	 0.177970269705791 
1067	 0.206086055688675 
1068	 0.17304771614601 
1069	 0.169786184412079 
1070	 0.192486347163721 
1071	 0.202552065699041 
1072	 0.198752866209326 
1073	 0.184178203631837 
1074	 0.167235425726124 
1075	 0.169170812945021 
