Wavelength	A00280.asd
325	 3.50323585473905E-02 
326	 2.95889197546184E-02 
327	 3.12484928372906E-02 
328	 4.22063359704539E-02 
329	 4.73774015814635E-02 
330	 4.20186735113844E-02 
331	 3.26111725949941E-02 
332	 2.79749567118299E-02 
333	 3.53287782847401E-02 
334	 3.75809497063732E-02 
335	 0.035262653849191 
336	 3.70711184386502E-02 
337	 3.64517714132091E-02 
338	 3.37041146185061E-02 
339	 3.98175552181832E-02 
340	 4.26538135071122E-02 
341	 3.35620795864043E-02 
342	 3.27241959512737E-02 
343	 3.79744611512552E-02 
344	 0.039861028475012 
345	 3.87426580839932E-02 
346	 0.036226091727831 
347	 3.91614383785486E-02 
348	 4.07966392483129E-02 
349	 3.72279338077535E-02 
350	 3.58414407620305E-02 
351	 3.55669613504854E-02 
352	 3.30322276674255E-02 
353	 3.22582656176929E-02 
354	 3.39871586359153E-02 
355	 0.037571703210445 
356	 3.86004824365958E-02 
357	 3.51837429255006E-02 
358	 3.43505817158049E-02 
359	 3.55853850773312E-02 
360	 3.67789986141988E-02 
361	 3.63294544559907E-02 
362	 3.48607795724925E-02 
363	 3.60012388051979E-02 
364	 0.037088180198543 
365	 3.68699974054182E-02 
366	 3.72870413378908E-02 
367	 3.73983189978791E-02 
368	 3.57191543723483E-02 
369	 0.034649756719186 
370	 0.034804847009918 
371	 3.62465921059045E-02 
372	 3.69702409121622E-02 
373	 3.61024767703914E-02 
374	 3.61732516179255E-02 
375	 3.68042073174106E-02 
376	 3.70975670629075E-02 
377	 3.76644522697444E-02 
378	 3.76687993009014E-02 
379	 3.36291117696288E-02 
380	 3.21585775831238E-02 
381	 3.57729325679301E-02 
382	 3.70183114440624E-02 
383	 3.69368607687977E-02 
384	 3.78640840718368E-02 
385	 3.75350329107385E-02 
386	 3.58812016219762E-02 
387	 3.40256334258929E-02 
388	 3.31408306561383E-02 
389	 3.35404861999634E-02 
390	 3.32378674347928E-02 
391	 3.37135375166413E-02 
392	 0.036769506792197 
393	 3.69079112678794E-02 
394	 3.46534736540956E-02 
395	 3.49797544954475E-02 
396	 3.55552419034186E-02 
397	 3.53065549282952E-02 
398	 3.40362976650416E-02 
399	 3.25578126582382E-02 
400	 3.16513430747174E-02 
401	 3.23959945773571E-02 
402	 0.033948938435632 
403	 3.38518181751644E-02 
404	 3.38723884396371E-02 
405	 3.46266239808836E-02 
406	 3.52445940765354E-02 
407	 3.53133113302368E-02 
408	 3.44619384671299E-02 
409	 3.38786871816809E-02 
410	 3.37622442411792E-02 
411	 3.37636677958318E-02 
412	 3.38348683312182E-02 
413	 3.39408084170531E-02 
414	 3.41916195290875E-02 
415	 3.42415453020178E-02 
416	 3.36539697119525E-02 
417	 3.32756855030818E-02 
418	 3.33893116827909E-02 
419	 3.42916463590538E-02 
420	 0.034606216408342 
421	 3.38288051812936E-02 
422	 3.41771271822478E-02 
423	 3.50020869280419E-02 
424	 3.50203119930989E-02 
425	 3.46857531968287E-02 
426	 3.43739918224196E-02 
427	 3.50759959147467E-02 
428	 3.56052230814747E-02 
429	 3.52552091835246E-02 
430	 3.50669081982161E-02 
431	 3.50549595095036E-02 
432	 3.50409700120102E-02 
433	 3.43308971244219E-02 
434	 3.33125455944286E-02 
435	 3.39966603086206E-02 
436	 3.46442431123315E-02 
437	 3.42073743205961E-02 
438	 3.44758247138586E-02 
439	 3.50191435380799E-02 
440	 3.45790105551527E-02 
441	 3.42936250168841E-02 
442	 3.44098426831235E-02 
443	 3.44296608676487E-02 
444	 3.43776795078599E-02 
445	 3.43356607296782E-02 
446	 3.49501485058586E-02 
447	 3.57375425729956E-02 
448	 3.53781125113449E-02 
449	 3.52077523288743E-02 
450	 3.55453541466782E-02 
451	 3.55510677285653E-02 
452	 3.55371052342916E-02 
453	 0.035826059035271 
454	 3.57423586737283E-02 
455	 3.55244954449213E-02 
456	 3.62611046797232E-02 
457	 0.036572107621366 
458	 3.61222729915301E-02 
459	 3.66601085744913E-02 
460	 0.037031883422475 
461	 3.57761588687526E-02 
462	 3.54080168105291E-02 
463	 0.03596102214559 
464	 3.56152534805093E-02 
465	 3.54071683536785E-02 
466	 3.57838284034465E-02 
467	 3.60467311150786E-02 
468	 3.60833514151219E-02 
469	 0.035852678887683 
470	 3.58179056001624E-02 
471	 3.60709325424633E-02 
472	 3.64781062718994E-02 
473	 3.66303296350944E-02 
474	 3.63178487025207E-02 
475	 3.61399028229994E-02 
476	 0.036088145213818 
477	 3.59898765377283E-02 
478	 3.58513620626929E-02 
479	 3.57481981605396E-02 
480	 0.035974603515998 
481	 3.62999016491978E-02 
482	 3.65042015555719E-02 
483	 3.63269236094548E-02 
484	 3.60431448107689E-02 
485	 0.036453058875211 
486	 3.66342135782771E-02 
487	 3.63688535792957E-02 
488	 3.64153716753252E-02 
489	 0.036629029033812 
490	 3.67875946888668E-02 
491	 3.63406612602142E-02 
492	 3.57094482845604E-02 
493	 3.63130592520408E-02 
494	 3.69373881995785E-02 
495	 0.037055670610234 
496	 3.69732965161441E-02 
497	 3.69094001386086E-02 
498	 3.71079400013265E-02 
499	 3.73818614137389E-02 
500	 3.76493390230332E-02 
501	 0.037812793242218 
502	 3.79633414074217E-02 
503	 3.81495934883184E-02 
504	 3.82884044986686E-02 
505	 3.84162588744245E-02 
506	 3.86064839693496E-02 
507	 3.87972623102074E-02 
508	 3.90265166978872E-02 
509	 3.94996428295182E-02 
510	 4.00108090619853E-02 
511	 4.03928187854318E-02 
512	 4.07256767308257E-02 
513	 4.11172520086205E-02 
514	 4.18076522096366E-02 
515	 4.23967727726854E-02 
516	 4.27895995905645E-02 
517	 4.33425063927093E-02 
518	 4.40273434308148E-02 
519	 4.47640459499991E-02 
520	 4.52137000340905E-02 
521	 4.55420762034398E-02 
522	 4.63871656981886E-02 
523	 4.72932408078026E-02 
524	 0.048024279698143 
525	 4.85161189588448E-02 
526	 4.88340808487425E-02 
527	 0.049070393021518 
528	 0.049639557526793 
529	 5.05064066470793E-02 
530	 5.11732725145306E-02 
531	 5.17413784744204E-02 
532	 5.22894108260504E-02 
533	 5.29374529793198E-02 
534	 5.34542569967133E-02 
535	 5.33137375792698E-02 
536	 5.34849556158323E-02 
537	 5.41649613738382E-02 
538	 5.46633430492781E-02 
539	 5.49977544342957E-02 
540	 5.52164086217704E-02 
541	 5.53137163602727E-02 
542	 5.54345297013708E-02 
543	 5.59296435391554E-02 
544	 5.64437722250742E-02 
545	 5.68336629278876E-02 
546	 5.72973882595875E-02 
547	 5.75746426357568E-02 
548	 5.73137162341267E-02 
549	 5.74883660798814E-02 
550	 5.81800460035345E-02 
551	 5.88355368511629E-02 
552	 5.90496746138175E-02 
553	 5.86781204116788E-02 
554	 5.89234261529949E-02 
555	 5.94949673902699E-02 
556	 5.95221935288128E-02 
557	 5.95564478761272E-02 
558	 5.97460122319565E-02 
559	 6.00187591090379E-02 
560	 0.060122891812865 
561	 0.059845503941817 
562	 0.059405359124929 
563	 0.05904173405814 
564	 5.92484296674088E-02 
565	 5.93752162555126E-02 
566	 5.91626739833307E-02 
567	 5.89289835195848E-02 
568	 5.85622685315071E-02 
569	 5.78925835737281E-02 
570	 5.76093290619508E-02 
571	 5.77594310983722E-02 
572	 5.79306480920075E-02 
573	 5.76722248053205E-02 
574	 5.68419429613889E-02 
575	 5.68209017745911E-02 
576	 5.71852413511176E-02 
577	 5.68153888202882E-02 
578	 5.63018580840055E-02 
579	 5.58268900188749E-02 
580	 0.055359895792311 
581	 5.50339475470329E-02 
582	 5.49552866043158E-02 
583	 5.49975333771956E-02 
584	 5.50663721004456E-02 
585	 5.50362205857417E-02 
586	 5.48784701745828E-02 
587	 5.46001493836685E-02 
588	 0.05437900772644 
589	 5.41567352428091E-02 
590	 5.38436560610459E-02 
591	 5.34843192709235E-02 
592	 5.32146533829313E-02 
593	 5.34343524155612E-02 
594	 5.34872610049292E-02 
595	 5.30717434510578E-02 
596	 5.31273287248447E-02 
597	 5.34608536136011E-02 
598	 5.35474591981746E-02 
599	 5.32222077563347E-02 
600	 5.26237884808401E-02 
601	 5.26612038830387E-02 
602	 5.27733024788147E-02 
603	 5.24647140329239E-02 
604	 0.052381783539758 
605	 5.24196672305533E-02 
606	 5.19632403229647E-02 
607	 0.051850930068575 
608	 5.22393502617921E-02 
609	 0.051922287609706 
610	 5.12364372249291E-02 
611	 5.07446488092281E-02 
612	 5.05213178670869E-02 
613	 0.050529633198682 
614	 5.05460627146453E-02 
615	 5.03885651135396E-02 
616	 5.00119167544408E-02 
617	 5.01180239127414E-02 
618	 5.02974599211199E-02 
619	 4.96563628615114E-02 
620	 4.93224020171271E-02 
621	 4.94606051671983E-02 
622	 4.92117255982767E-02 
623	 4.89123229653401E-02 
624	 4.88777181714496E-02 
625	 4.88104226946904E-02 
626	 4.86763373714813E-02 
627	 4.85206495710844E-02 
628	 4.84174479794781E-02 
629	 4.83755135691538E-02 
630	 4.82068255545314E-02 
631	 4.80857956259915E-02 
632	 4.82411338428544E-02 
633	 4.85044082528262E-02 
634	 4.86488192339395E-02 
635	 4.81018513448913E-02 
636	 4.76028124962445E-02 
637	 4.75678911910543E-02 
638	 0.047517885037203 
639	 4.72018882687813E-02 
640	 4.62320888286363E-02 
641	 4.60348409648025E-02 
642	 0.046643307827825 
643	 4.61076490354884E-02 
644	 4.52087103329924E-02 
645	 4.46862964830308E-02 
646	 4.42278506202866E-02 
647	 4.37803809163213E-02 
648	 0.043305206706849 
649	 4.28778384349659E-02 
650	 4.25628195059439E-02 
651	 4.24590097207052E-02 
652	 4.25362258911904E-02 
653	 4.27454253914657E-02 
654	 4.27583300138393E-02 
655	 4.24944236570461E-02 
656	 4.20391246967163E-02 
657	 4.16832498050089E-02 
658	 4.15341927588748E-02 
659	 4.08317768161861E-02 
660	 0.040105473042316 
661	 4.03843429173738E-02 
662	 4.00650608013996E-02 
663	 0.039008428825054 
664	 3.86873155807949E-02 
665	 3.86837682336359E-02 
666	 3.85884890424764E-02 
667	 3.82731145280635E-02 
668	 3.78689201639292E-02 
669	 0.037804762119731 
670	 3.75919152568089E-02 
671	 0.037168692011592 
672	 3.72315011807254E-02 
673	 3.74446808854726E-02 
674	 3.73706887408019E-02 
675	 3.73440075241932E-02 
676	 3.74741524224228E-02 
677	 3.78820757693903E-02 
678	 3.82395125146361E-02 
679	 3.83853664383715E-02 
680	 3.85976537239215E-02 
681	 3.88579188990735E-02 
682	 3.90705681337838E-02 
683	 3.95187623513977E-02 
684	 4.02575372036256E-02 
685	 4.11593937009104E-02 
686	 4.23253561809631E-02 
687	 4.37485564571985E-02 
688	 4.43842642134622E-02 
689	 4.48960474883488E-02 
690	 4.73007253657822E-02 
691	 4.94422928316195E-02 
692	 0.050921267437651 
693	 5.31142021152842E-02 
694	 5.58481154816608E-02 
695	 5.87362330324751E-02 
696	 6.16624796090026E-02 
697	 6.45855328195107E-02 
698	 6.76432274764194E-02 
699	 7.06303331024104E-02 
700	 7.34471181919439E-02 
701	 7.64379843812325E-02 
702	 7.97015596275125E-02 
703	 8.33238918752418E-02 
704	 8.62130834931902E-02 
705	 8.85360932876554E-02 
706	 9.17656387756354E-02 
707	 9.49112852053569E-02 
708	 9.73778327952558E-02 
709	 9.99087295821846E-02 
710	 0.102659407478471 
711	 0.10577750067175 
712	 0.108508380582615 
713	 0.110679388687502 
714	 0.112825323731624 
715	 0.114907613139876 
716	 0.116990204483848 
717	 0.119075379855915 
718	 0.121253954781154 
719	 0.123530745857862 
720	 0.125329849904455 
721	 0.126553751639424 
722	 0.128107368992022 
723	 0.129524007695146 
724	 0.130084239419981 
725	 0.131384816582855 
726	 0.133375511587044 
727	 0.135017287274289 
728	 0.136267632821442 
729	 0.137128782829013 
730	 0.138037581177015 
731	 0.138907521858134 
732	 0.139550350531626 
733	 0.140142672887273 
734	 0.14081648000519 
735	 0.141789496143723 
736	 0.142841969995996 
737	 0.143723700387224 
738	 0.143904754165024 
739	 0.143891343669098 
740	 0.144730881245931 
741	 0.145755401932653 
742	 0.146569252173525 
743	 0.146467282180522 
744	 0.146332613023747 
745	 0.146900669602796 
746	 0.147422648118748 
747	 0.147811375407675 
748	 0.148171896702134 
749	 0.148638001291827 
750	 0.1491520105493 
751	 0.149123936990977 
752	 0.148987089970014 
753	 0.1492372237582 
754	 0.149579215320033 
755	 0.149975572209044 
756	 0.150555264022996 
757	 0.150824314575469 
758	 0.150632038343915 
759	 0.150649746747102 
760	 0.151640573291329 
761	 0.154336349475613 
762	 0.15497977767374 
763	 0.15385786915985 
764	 0.153818037326242 
765	 0.154243315489569 
766	 0.154769165461368 
767	 0.154949012367818 
768	 0.154840103037836 
769	 0.154497215113653 
770	 0.15442602938784 
771	 0.154630286061183 
772	 0.154514178681787 
773	 0.154684269340201 
774	 0.155448022791724 
775	 0.155720382690071 
776	 0.155772694219726 
777	 0.156408447112315 
778	 0.156746450055803 
779	 0.15665690358508 
780	 0.156772741175192 
781	 0.15689176975692 
782	 0.15687580393751 
783	 0.157130680720834 
784	 0.157534842545452 
785	 0.157690735502004 
786	 0.157909604975015 
787	 0.158178693811474 
788	 0.1579197524934 
789	 0.157771389233293 
790	 0.158319298748119 
791	 0.158942813262561 
792	 0.159319168152432 
793	 0.158963354972882 
794	 0.158684397412161 
795	 0.158761223629393 
796	 0.158863175220723 
797	 0.159006158575103 
798	 0.159212655078367 
799	 0.159301527944076 
800	 0.159348254553502 
801	 0.159649883068069 
802	 0.160023674144812 
803	 0.160291205979845 
804	 0.159859734476413 
805	 0.159699048019602 
806	 0.160789512040081 
807	 0.16058658296695 
808	 0.159586950202324 
809	 0.160834959290705 
810	 0.161792239297545 
811	 0.161519533588103 
812	 0.16151045569044 
813	 0.161957521524276 
814	 0.162914903432292 
815	 0.163040216170628 
816	 0.162695408376549 
817	 0.164353001953911 
818	 0.165109763812493 
819	 0.164118235186528 
820	 0.164193822382944 
821	 0.164798303925507 
822	 0.165045141183143 
823	 0.165028077348331 
824	 0.165041662453348 
825	 0.165944393193615 
826	 0.166646942179742 
827	 0.166741922944725 
828	 0.166789883626668 
829	 0.166732491700309 
830	 0.16646724304711 
831	 0.166701680653375 
832	 0.167385595035329 
833	 0.167958906886286 
834	 0.168264185862438 
835	 0.168257802168793 
836	 0.168270913996965 
837	 0.168304612004309 
838	 0.168336156603296 
839	 0.168842315219522 
840	 0.169506124763278 
841	 0.169073781558153 
842	 0.169090277253667 
843	 0.170015274710076 
844	 0.170360373916832 
845	 0.170397093384939 
846	 0.170553261026919 
847	 0.170316755563785 
848	 0.169752721814262 
849	 0.169234875022172 
850	 0.169114229127686 
851	 0.16949237357097 
852	 0.169901790019414 
853	 0.169997751513814 
854	 0.169541116267549 
855	 0.170028476440344 
856	 0.171144358909936 
857	 0.171488699284742 
858	 0.17106881295601 
859	 0.170088603978323 
860	 0.169618467255644 
861	 0.16973169186861 
862	 0.170391988497602 
863	 0.170999226854697 
864	 0.171505279539243 
865	 0.172152472908326 
866	 0.172571238775884 
867	 0.172746318776552 
868	 0.173327788260136 
869	 0.173526195907513 
870	 0.17282759915475 
871	 0.172723361024985 
872	 0.173370904325033 
873	 0.174632055515095 
874	 0.175346993900594 
875	 0.175091916029489 
876	 0.17380971326934 
877	 0.17336404856533 
878	 0.174873510237225 
879	 0.175922984237255 
880	 0.176517306965865 
881	 0.177267145656322 
882	 0.177475382496567 
883	 0.177149207964154 
884	 0.176834003477515 
885	 0.177080545171851 
886	 0.177984702155718 
887	 0.177646682325524 
888	 0.177545991323646 
889	 0.179817477988163 
890	 0.180938788754608 
891	 0.180427573769092 
892	 0.179413273443362 
893	 0.17934715629603 
894	 0.180688064603292 
895	 0.18068739357249 
896	 0.180683281963137 
897	 0.182333335757009 
898	 0.182005830925718 
899	 0.180794400780519 
900	 0.183547149760864 
901	 0.184267217756224 
902	 0.181837977808963 
903	 0.180493117808678 
904	 0.180366145235381 
905	 0.18137065078947 
906	 0.182557155214761 
907	 0.183673191278039 
908	 0.184623292038458 
909	 0.185270271964945 
910	 0.185375741555338 
911	 0.184287037429331 
912	 0.183142656977395 
913	 0.183033110548954 
914	 0.186404684283878 
915	 0.188796293573429 
916	 0.184899633977452 
917	 0.184598844453634 
918	 0.18726054858406 
919	 0.185153835151617 
920	 0.184438711487572 
921	 0.186445935507093 
922	 0.186622875706244 
923	 0.186002984838332 
924	 0.185599802590122 
925	 0.183953999705225 
926	 0.181942564788153 
927	 0.181987651992708 
928	 0.18245372832094 
929	 0.182873274823295 
930	 0.184032261962803 
931	 0.183871533515958 
932	 0.180874146644362 
933	 0.17788619227741 
934	 0.177224807175195 
935	 0.181151046638036 
936	 0.189410108074633 
937	 0.196294486682766 
938	 0.189184395704911 
939	 0.18131409236033 
940	 0.178300929969113 
941	 0.184311441925493 
942	 0.187311289758762 
943	 0.18002916070137 
944	 0.18005080792324 
945	 0.183855431971447 
946	 0.182137096963798 
947	 0.184374853795028 
948	 0.19022890613766 
949	 0.191577712449297 
950	 0.190733229966216 
951	 0.189202688211392 
952	 0.189899247910983 
953	 0.189520442712038 
954	 0.185363402990611 
955	 0.183009983820097 
956	 0.183442225947238 
957	 0.186718507340586 
958	 0.187538679432204 
959	 0.185754241752046 
960	 0.185998803105485 
961	 0.186739301375095 
962	 0.187190455831196 
963	 0.187511573811814 
964	 0.187395369942827 
965	 0.186584499955273 
966	 0.185477442601885 
967	 0.184486119808628 
968	 0.18432508212295 
969	 0.182151127329662 
970	 0.178798407296124 
971	 0.180565591164877 
972	 0.181486318279461 
973	 0.17967590819291 
974	 0.185676380000163 
975	 0.192412073475307 
976	 0.191224729206274 
977	 0.187964948482256 
978	 0.185032212434726 
979	 0.185088466459084 
980	 0.186119400430734 
981	 0.186907737416462 
982	 0.185600743985848 
983	 0.183983660101315 
984	 0.183622439976731 
985	 0.18725472423822 
986	 0.191115951006308 
987	 0.190996338714948 
988	 0.187167619982478 
989	 0.183876961623452 
990	 0.189583665716286 
991	 0.189737256186372 
992	 0.183055003648244 
993	 0.180310760600072 
994	 0.183552987923522 
995	 0.191689442877264 
996	 0.192695126502966 
997	 0.188698540867362 
998	 0.183491715119193 
999	 0.181872633657901 
1000	 0.185657948640241 
1001	 0.196208767643124 
1002	 0.191159436992165 
1003	 0.174856955989679 
1004	 0.182407018905984 
1005	 0.190689222425182 
1006	 0.190297889223815 
1007	 0.183309595012418 
1008	 0.183672816336474 
1009	 0.198877977660641 
1010	 0.199364822186214 
1011	 0.190233437828138 
1012	 0.184288449441197 
1013	 0.187077421082959 
1014	 0.194399466383601 
1015	 0.192912032573596 
1016	 0.188183841272343 
1017	 0.184321936177815 
1018	 0.190562921850263 
1019	 0.196669235994568 
1020	 0.197088588625803 
1021	 0.196147719868888 
1022	 0.193657470474153 
1023	 0.190231067892908 
1024	 0.197790902240719 
1025	 0.206075813936219 
1026	 0.195424651334693 
1027	 0.190386589675986 
1028	 0.193415411264912 
1029	 0.191364440054457 
1030	 0.193336228788281 
1031	 0.199227089649739 
1032	 0.195682669705245 
1033	 0.189009901034414 
1034	 0.186455147079519 
1035	 0.20337131087639 
1036	 0.218883924320325 
1037	 0.211789431826043 
1038	 0.201695200314479 
1039	 0.195862699763974 
1040	 0.199728853040456 
1041	 0.20617506950952 
1042	 0.210518437751535 
1043	 0.206826559103621 
1044	 0.200885808812442 
1045	 0.197966831937894 
1046	 0.210086652313019 
1047	 0.206119761010068 
1048	 0.175166521965162 
1049	 0.179086545261875 
1050	 0.197162735730064 
1051	 0.204834531737672 
1052	 0.209138020364879 
1053	 0.205534650383962 
1054	 0.18817189257768 
1055	 0.19355037583658 
1056	 0.217479742967007 
1057	 0.232484410522767 
1058	 0.216883689856424 
1059	 0.177560125001578 
1060	 0.181825212893561 
1061	 0.197651416713535 
1062	 0.210172487956589 
1063	 0.220975234174042 
1064	 0.208360753442517 
1065	 0.170874534254216 
1066	 0.196163659138648 
1067	 0.221222641350278 
1068	 0.176916727775787 
1069	 0.162487242315191 
1070	 0.185245053783717 
1071	 0.220266883818176 
1072	 0.213177078342324 
1073	 0.176496793154317 
1074	 0.172721265357638 
1075	 0.196300189446131 
