Wavelength	A00209.asd
325	 2.97072219565723E-02 
326	 0.023715098105203 
327	 2.57987605261924E-02 
328	 3.26833947730089E-02 
329	 3.56790346714424E-02 
330	 3.26690989743015E-02 
331	 3.07812687048304E-02 
332	 3.31023391109578E-02 
333	 4.13362067037515E-02 
334	 4.25065479715224E-02 
335	 3.87535174601103E-02 
336	 4.02129717134402E-02 
337	 4.05732888201915E-02 
338	 0.038553546551096 
339	 3.72526327053593E-02 
340	 3.50920861684213E-02 
341	 0.0313419267892 
342	 3.35823003986279E-02 
343	 3.95851559982824E-02 
344	 4.39578313663418E-02 
345	 4.38325867914384E-02 
346	 4.02066459466635E-02 
347	 4.03977141222386E-02 
348	 4.14229822028583E-02 
349	 4.11844110946119E-02 
350	 4.08283396143142E-02 
351	 4.05717349172077E-02 
352	 4.06092938071787E-02 
353	 3.94744843016469E-02 
354	 0.037961990980626 
355	 4.05916129732421E-02 
356	 4.12079201565494E-02 
357	 3.70928443411767E-02 
358	 3.79446373665269E-02 
359	 4.08950179105255E-02 
360	 4.00088394792961E-02 
361	 3.82373016200542E-02 
362	 3.72827933068962E-02 
363	 4.05605593520419E-02 
364	 4.21385801528356E-02 
365	 3.95372752339935E-02 
366	 3.86016890115618E-02 
367	 3.89531651893287E-02 
368	 3.92341365112002E-02 
369	 3.96752558289547E-02 
370	 0.039969719491412 
371	 3.91129284197926E-02 
372	 3.84262076271426E-02 
373	 3.86427669843306E-02 
374	 3.92028102876756E-02 
375	 3.98976166156723E-02 
376	 4.05350333954304E-02 
377	 4.05303138009366E-02 
378	 0.039773936661996 
379	 3.82435633542534E-02 
380	 3.77042330822517E-02 
381	 3.87320234345685E-02 
382	 3.84995353767369E-02 
383	 3.80209566741434E-02 
384	 3.89748171904376E-02 
385	 4.02386334348524E-02 
386	 4.08172875018786E-02 
387	 3.85725593765345E-02 
388	 3.77570242653248E-02 
389	 3.95591320424299E-02 
390	 3.85346703634852E-02 
391	 3.73240595475534E-02 
392	 3.94138600299876E-02 
393	 4.04456873705121E-02 
394	 3.98111979468054E-02 
395	 3.83786354307454E-02 
396	 3.82042295726653E-02 
397	 3.96346710335174E-02 
398	 3.95949488512234E-02 
399	 3.86921715046576E-02 
400	 3.78218515721308E-02 
401	 3.74008647401097E-02 
402	 3.75779891381473E-02 
403	 3.86996601050713E-02 
404	 3.88617654356655E-02 
405	 3.76917328370018E-02 
406	 0.038297013749561 
407	 0.039527790888716 
408	 3.96423302387596E-02 
409	 3.91106552790734E-02 
410	 3.84355767995871E-02 
411	 3.86924492590657E-02 
412	 3.92085364825138E-02 
413	 3.95962180212138E-02 
414	 3.97000588207264E-02 
415	 3.95075693336777E-02 
416	 3.90335275207794E-02 
417	 3.89193462290777E-02 
418	 3.92302460261881E-02 
419	 3.97124922679358E-02 
420	 3.97796643269017E-02 
421	 3.92672699077974E-02 
422	 3.94815616011112E-02 
423	 4.00405203540389E-02 
424	 4.01853797263427E-02 
425	 4.01297499359722E-02 
426	 0.040020209628474 
427	 4.02258115697456E-02 
428	 4.04036612628955E-02 
429	 0.040380793030817 
430	 4.07398714324452E-02 
431	 4.10996313707581E-02 
432	 4.07143339744806E-02 
433	 4.04523586681343E-02 
434	 4.05091655178278E-02 
435	 4.06639789238272E-02 
436	 4.07155882145658E-02 
437	 4.06102615799727E-02 
438	 4.12433596131912E-02 
439	 0.041908982376913 
440	 4.10473450970913E-02 
441	 4.06232713311597E-02 
442	 4.10690129861737E-02 
443	 4.14823827277342E-02 
444	 4.16705562336316E-02 
445	 4.15416043911299E-02 
446	 4.16582543863918E-02 
447	 4.18933872189566E-02 
448	 4.17197450618873E-02 
449	 4.16619063982272E-02 
450	 4.18673754750178E-02 
451	 4.21244661710742E-02 
452	 4.23442149400962E-02 
453	 4.24509213576266E-02 
454	 4.24102968230605E-02 
455	 4.24512392238449E-02 
456	 4.33614881641458E-02 
457	 0.043361372193088 
458	 4.21424533945447E-02 
459	 4.26054527268408E-02 
460	 4.34065259192523E-02 
461	 0.042717000277922 
462	 4.24226361495052E-02 
463	 4.26518463095754E-02 
464	 4.23963308750938E-02 
465	 4.24041695222512E-02 
466	 4.29375487895578E-02 
467	 4.30068790148009E-02 
468	 4.28588736972992E-02 
469	 4.30128492006405E-02 
470	 4.33224640782532E-02 
471	 4.36805257957319E-02 
472	 4.38772074952458E-02 
473	 4.38709835302143E-02 
474	 4.36635325752252E-02 
475	 4.34182239665367E-02 
476	 4.33943483318554E-02 
477	 4.40223603418489E-02 
478	 4.40873706121314E-02 
479	 4.35219255800187E-02 
480	 4.36568143699711E-02 
481	 4.40413506107634E-02 
482	 0.044243014444308 
483	 4.38701308794192E-02 
484	 4.33724488199773E-02 
485	 4.40355351901158E-02 
486	 4.44362794753055E-02 
487	 4.42379860367218E-02 
488	 4.46954988428064E-02 
489	 4.50802960659633E-02 
490	 4.46274245441611E-02 
491	 4.40501291587119E-02 
492	 4.38032318403229E-02 
493	 4.47478799641176E-02 
494	 0.045390744466524 
495	 4.51425356374005E-02 
496	 4.48642948071329E-02 
497	 0.044901083497106 
498	 4.55787302017383E-02 
499	 4.57070430057998E-02 
500	 4.53205067579651E-02 
501	 4.56316059347966E-02 
502	 4.60410200128481E-02 
503	 0.046199595751313 
504	 4.63992255096627E-02 
505	 4.65947071603195E-02 
506	 4.66464258990914E-02 
507	 4.68605257130497E-02 
508	 4.72363676584956E-02 
509	 4.73625476606471E-02 
510	 4.75712561893828E-02 
511	 4.81084957590026E-02 
512	 4.85943167233192E-02 
513	 0.048892037288616 
514	 4.87648490015986E-02 
515	 4.90607165714713E-02 
516	 4.99493265600461E-02 
517	 0.050441688442298 
518	 5.06977581235895E-02 
519	 0.050979266192815 
520	 5.13735681594821E-02 
521	 0.05193613293052 
522	 5.27961146551758E-02 
523	 5.34576002208419E-02 
524	 5.37349633654873E-02 
525	 5.41462159907204E-02 
526	 0.054469914439549 
527	 5.43041243621034E-02 
528	 5.45627084711847E-02 
529	 5.53019094648766E-02 
530	 5.58713724627984E-02 
531	 5.62802987923323E-02 
532	 5.65673041744907E-02 
533	 5.70833169029088E-02 
534	 5.76137006132349E-02 
535	 5.76095958679053E-02 
536	 5.78161720712293E-02 
537	 5.83502594492356E-02 
538	 5.85566821990642E-02 
539	 5.86434275690832E-02 
540	 5.88501350636952E-02 
541	 5.93212852099136E-02 
542	 5.98476595674242E-02 
543	 5.97669691537026E-02 
544	 5.98763617458086E-02 
545	 6.04188550585353E-02 
546	 6.06570578932447E-02 
547	 0.060692755009179 
548	 6.07451031267536E-02 
549	 6.11364475104657E-02 
550	 0.061805130721499 
551	 6.22737236481502E-02 
552	 6.25375430696161E-02 
553	 6.26052236328531E-02 
554	 6.26304184006153E-02 
555	 6.26883230765044E-02 
556	 6.28611249186304E-02 
557	 6.30179342491404E-02 
558	 6.31270376409477E-02 
559	 0.063234607975552 
560	 6.34787232165793E-02 
561	 6.39266889727587E-02 
562	 6.37334254204567E-02 
563	 6.31334381384604E-02 
564	 6.31233653845892E-02 
565	 6.32423783569018E-02 
566	 6.32651072796671E-02 
567	 6.29280806073551E-02 
568	 6.25410286554429E-02 
569	 6.25252519148898E-02 
570	 6.25820244025382E-02 
571	 6.26715161070733E-02 
572	 6.29999070362566E-02 
573	 6.29453548694736E-02 
574	 6.22460571643322E-02 
575	 6.21260667810506E-02 
576	 6.23411462584453E-02 
577	 0.06212961572644 
578	 6.18233328012063E-02 
579	 6.15740130017176E-02 
580	 6.16318973254263E-02 
581	 0.0616445704743 
582	 0.061327279515589 
583	 6.12775349630609E-02 
584	 0.061461213813247 
585	 6.15344056496564E-02 
586	 0.061498617724719 
587	 6.13099753888815E-02 
588	 6.08319154855827E-02 
589	 6.03479305808403E-02 
590	 6.02462372486283E-02 
591	 6.04749844317612E-02 
592	 6.08346844615821E-02 
593	 6.07958318380013E-02 
594	 6.06982448433792E-02 
595	 6.07224166017992E-02 
596	 6.05977657183679E-02 
597	 6.05074749971024E-02 
598	 6.08573673220119E-02 
599	 6.08328146980503E-02 
600	 6.03055271937412E-02 
601	 5.99020566706168E-02 
602	 5.96837466288259E-02 
603	 5.96899675048632E-02 
604	 6.00318502757285E-02 
605	 6.03838450164757E-02 
606	 5.98578360913311E-02 
607	 0.05959381983018 
608	 0.059968381343306 
609	 6.02385925396141E-02 
610	 6.01809955068486E-02 
611	 5.96186574402356E-02 
612	 5.93163630770845E-02 
613	 0.059335102678337 
614	 5.91430688623959E-02 
615	 5.89554665684123E-02 
616	 5.88731150599021E-02 
617	 5.86340357503016E-02 
618	 5.83314291572278E-02 
619	 5.81820678356302E-02 
620	 5.80203185827621E-02 
621	 5.78078045224969E-02 
622	 5.76019543277863E-02 
623	 0.05738096822578 
624	 5.71604576622461E-02 
625	 0.057461894006033 
626	 5.79887714040692E-02 
627	 5.77436601358684E-02 
628	 5.74838648161504E-02 
629	 5.75059284593009E-02 
630	 5.77084655071284E-02 
631	 5.77434522755849E-02 
632	 5.72081745800443E-02 
633	 5.72509810959187E-02 
634	 0.057825341083853 
635	 5.78779992959464E-02 
636	 5.76130847925114E-02 
637	 5.72118884511885E-02 
638	 5.71661465211085E-02 
639	 5.73045886053564E-02 
640	 5.72117351476073E-02 
641	 5.69066175144385E-02 
642	 5.64270200582518E-02 
643	 5.58950694360306E-02 
644	 5.56049814949529E-02 
645	 5.57692572644824E-02 
646	 5.57591110052664E-02 
647	 5.54707529821617E-02 
648	 5.49635856185178E-02 
649	 0.054549461264681 
650	 5.43787167050604E-02 
651	 5.43622000950538E-02 
652	 5.43556246336187E-02 
653	 0.054199338644633 
654	 5.39007821638067E-02 
655	 5.35324949772837E-02 
656	 5.34068117007935E-02 
657	 5.32553081330098E-02 
658	 5.29213328035146E-02 
659	 5.24748269398276E-02 
660	 5.19890291148372E-02 
661	 5.15896443532072E-02 
662	 5.08834261678911E-02 
663	 5.00062915207553E-02 
664	 4.99143542988281E-02 
665	 5.02839423699544E-02 
666	 5.07165043190418E-02 
667	 5.01318308107899E-02 
668	 4.90199348184786E-02 
669	 4.90797187931204E-02 
670	 4.89894955677297E-02 
671	 4.85024741699988E-02 
672	 4.89940232222183E-02 
673	 4.95775073594103E-02 
674	 4.91582549576725E-02 
675	 4.87901762046095E-02 
676	 4.87403994711856E-02 
677	 4.90289564611479E-02 
678	 4.93856286320269E-02 
679	 4.96621609820838E-02 
680	 5.00259582547434E-02 
681	 5.03861634971558E-02 
682	 5.05657294082052E-02 
683	 5.09857066095541E-02 
684	 5.16665646008021E-02 
685	 5.21649519056794E-02 
686	 5.28313753046158E-02 
687	 5.39410244536683E-02 
688	 5.49142692172336E-02 
689	 5.57495039738652E-02 
690	 5.68330224467397E-02 
691	 5.83957588541077E-02 
692	 6.03513780053629E-02 
693	 6.16804265279152E-02 
694	 6.30205755453232E-02 
695	 6.50134813713492E-02 
696	 6.71771770575791E-02 
697	 6.92370253749459E-02 
698	 7.07843375808373E-02 
699	 7.24093919945124E-02 
700	 7.43325867076185E-02 
701	 7.61055265615062E-02 
702	 7.78163522934783E-02 
703	 7.96580508303657E-02 
704	 8.14317267202617E-02 
705	 8.30115602295692E-02 
706	 8.41043686169425E-02 
707	 8.50444107557305E-02 
708	 8.60931400326693E-02 
709	 8.74194701899211E-02 
710	 0.088893879319898 
711	 9.02481788252363E-02 
712	 9.15460719246517E-02 
713	 9.27398674741025E-02 
714	 9.36087826472313E-02 
715	 9.44929236366709E-02 
716	 9.57501321519817E-02 
717	 9.67663727112877E-02 
718	 0.097535660298513 
719	 9.84489994067539E-02 
720	 0.099053225901564 
721	 0.099330944468254 
722	 9.99630145522626E-02 
723	 0.100642810659312 
724	 0.100940658062333 
725	 0.101579978313414 
726	 0.102544269971714 
727	 0.103476839087831 
728	 0.103915178582651 
729	 0.103752903777443 
730	 0.104052655753372 
731	 0.104741019436864 
732	 0.10553231611673 
733	 0.105885435639678 
734	 0.105819233666946 
735	 0.105783683923511 
736	 0.106045344576258 
737	 0.106721954364679 
738	 0.107173936193069 
739	 0.107363266676001 
740	 0.107393101541589 
741	 0.107599267625028 
742	 0.107996697407444 
743	 0.108141267720753 
744	 0.108095028034153 
745	 0.107976795161809 
746	 0.10843398092851 
747	 0.109187704895489 
748	 0.109339403496083 
749	 0.109280352586916 
750	 0.109162591015414 
751	 0.109041006838367 
752	 0.109176948089272 
753	 0.109787934588875 
754	 0.109828299122839 
755	 0.109475544741281 
756	 0.109929231697693 
757	 0.110189414719048 
758	 0.109893280717251 
759	 0.10992945216491 
760	 0.110632012951338 
761	 0.111866911291938 
762	 0.112619029246135 
763	 0.112761487119562 
764	 0.11282248022681 
765	 0.112617454836565 
766	 0.112235179243182 
767	 0.112259564178316 
768	 0.112361563995954 
769	 0.112110167532795 
770	 0.111999508194846 
771	 0.112074755116354 
772	 0.112016929473614 
773	 0.112068687893767 
774	 0.112354942364247 
775	 0.112460778044878 
776	 0.112490582233519 
777	 0.112727668363305 
778	 0.113212739024805 
779	 0.113761201806008 
780	 0.113593029603313 
781	 0.113285420063793 
782	 0.113312755272017 
783	 0.1133172992945 
784	 0.113473093907808 
785	 0.114315676739657 
786	 0.114674787439817 
787	 0.114304529857877 
788	 0.11409566668715 
789	 0.11424577429686 
790	 0.114842947718071 
791	 0.11510678299159 
792	 0.115014502734791 
793	 0.114890148342494 
794	 0.114877619172547 
795	 0.115033078329151 
796	 0.115201564721013 
797	 0.115388724893519 
798	 0.115602888173135 
799	 0.115740879040171 
800	 0.115771588518057 
801	 0.115618565555337 
802	 0.115727249748599 
803	 0.116188488473837 
804	 0.116445531043049 
805	 0.1164019677932 
806	 0.116031990385007 
807	 0.115799771336864 
808	 0.115868722344018 
809	 0.116401313934904 
810	 0.116837877132085 
811	 0.116871299323173 
812	 0.116378982871157 
813	 0.116134567922372 
814	 0.117129496388237 
815	 0.117723118263884 
816	 0.117837791894741 
817	 0.11885282244406 
818	 0.118975654367306 
819	 0.117862965361109 
820	 0.118015717950533 
821	 0.118829785193907 
822	 0.119354253036212 
823	 0.119123327940515 
824	 0.118496438147907 
825	 0.118819513226947 
826	 0.119312899467123 
827	 0.119606138235485 
828	 0.119524584817771 
829	 0.119179024948892 
830	 0.118759234177392 
831	 0.11858197071068 
832	 0.118802218426347 
833	 0.119714393804453 
834	 0.120013510260391 
835	 0.119353416209365 
836	 0.119466303451029 
837	 0.119668993352942 
838	 0.119088212371615 
839	 0.119780565123168 
840	 0.121160607571245 
841	 0.12033622598785 
842	 0.119423746849282 
843	 0.119398576050988 
844	 0.120310581299521 
845	 0.120977617622337 
846	 0.120152627529065 
847	 0.120054811848712 
848	 0.120669340607366 
849	 0.120548885670636 
850	 0.120330513031599 
851	 0.120320893586674 
852	 0.120853868678928 
853	 0.1212307584281 
854	 0.120766062914151 
855	 0.121464348231312 
856	 0.12264110275948 
857	 0.12149112554159 
858	 0.121102127662507 
859	 0.122145937173757 
860	 0.122375966831362 
861	 0.121973173403818 
862	 0.121286716821545 
863	 0.120999016563815 
864	 0.121319641060721 
865	 0.122471872735587 
866	 0.122661069879665 
867	 0.121729302382055 
868	 0.122236129993397 
869	 0.12305036443035 
870	 0.123180593221178 
871	 0.123034930936566 
872	 0.123063437726179 
873	 0.124090113085339 
874	 0.124119746971045 
875	 0.122944009034203 
876	 0.122372558262854 
877	 0.122256118519494 
878	 0.122445764687809 
879	 0.122643203085445 
880	 0.1230713629497 
881	 0.124207413786282 
882	 0.123931005292218 
883	 0.122444251457066 
884	 0.122553856803063 
885	 0.12305183247173 
886	 0.123296012632768 
887	 0.123847226893536 
888	 0.124309867188819 
889	 0.124134314380587 
890	 0.124121214900476 
891	 0.124307416012207 
892	 0.124130836875717 
893	 0.124125192692931 
894	 0.124482899626658 
895	 0.124646309468892 
896	 0.124902867158404 
897	 0.125580610875221 
898	 0.125623314999598 
899	 0.125453360349886 
900	 0.126866053169734 
901	 0.126702579801751 
902	 0.124594072526843 
903	 0.123490260036271 
904	 0.124079388366257 
905	 0.126536168435458 
906	 0.128343103835861 
907	 0.128682908588957 
908	 0.126891540211434 
909	 0.125721074325287 
910	 0.125888384678355 
911	 0.12633603445165 
912	 0.126603725091096 
913	 0.126648548865066 
914	 0.128433782689092 
915	 0.129978396022556 
916	 0.128786908318477 
917	 0.128475685280011 
918	 0.128975287123372 
919	 0.127679797601382 
920	 0.128101490606167 
921	 0.130257515286042 
922	 0.127696520171912 
923	 0.124980814326521 
924	 0.126217894517783 
925	 0.125947219872575 
926	 0.124895979020979 
927	 0.126710914138638 
928	 0.128470092539069 
929	 0.128475585231352 
930	 0.123590652023616 
931	 0.121820448520007 
932	 0.128704830120651 
933	 0.128215826481607 
934	 0.125027774764642 
935	 0.129457865204717 
936	 0.130796135008511 
937	 0.129766370714642 
938	 0.135758120577127 
939	 0.133865305838051 
940	 0.12350132115324 
941	 0.123585700422849 
942	 0.125402178675564 
943	 0.122688836747069 
944	 0.122828085450024 
945	 0.125266067279896 
946	 0.127699878213357 
947	 0.12953688948384 
948	 0.130843699233896 
949	 0.133496268710965 
950	 0.133010901587858 
951	 0.12840354369341 
952	 0.124853808302684 
953	 0.124797042896027 
954	 0.129484126099118 
955	 0.133405207766353 
956	 0.135501994315022 
957	 0.135898513784004 
958	 0.135710742002433 
959	 0.133751729802173 
960	 0.12310183532771 
961	 0.121720579789823 
962	 0.134293781066889 
963	 0.136444693001956 
964	 0.132313065949445 
965	 0.128096207174166 
966	 0.128164576045764 
967	 0.129961122285273 
968	 0.126483111834462 
969	 0.126153979371022 
970	 0.129217550812209 
971	 0.127426031862227 
972	 0.125984192243743 
973	 0.127222985202834 
974	 0.125719230799277 
975	 0.126897993494622 
976	 0.136112881264302 
977	 0.135252736384698 
978	 0.127298995354535 
979	 0.126223811168419 
980	 0.127434950733969 
981	 0.130044341135356 
982	 0.135886800586273 
983	 0.136668676162283 
984	 0.130183780573496 
985	 0.133338199951804 
986	 0.138440649969028 
987	 0.136026702501192 
988	 0.132388273986175 
989	 0.129678034739033 
990	 0.12975745585798 
991	 0.131632556865708 
992	 0.133888257280677 
993	 0.132423072760723 
994	 0.133842171690921 
995	 0.139436493274867 
996	 0.136660069139102 
997	 0.131016783765532 
998	 0.128756845199867 
999	 0.124515304142338 
1000	 0.121886925874807 
1001	 0.128194139474026 
1002	 0.126949857964231 
1003	 0.120283764409527 
1004	 0.130735737478676 
1005	 0.138061532204995 
1006	 0.134748318910551 
1007	 0.127634573470526 
1008	 0.124893066144283 
1009	 0.131419335071626 
1010	 0.134265871574039 
1011	 0.133234969230064 
1012	 0.130615012448177 
1013	 0.128954235967087 
1014	 0.128528825326697 
1015	 0.127352573707471 
1016	 0.133456274463446 
1017	 0.143398507671048 
1018	 0.132207786624531 
1019	 0.127202383184014 
1020	 0.13935342565764 
1021	 0.134756443775971 
1022	 0.126963813597803 
1023	 0.131335429606108 
1024	 0.136916181647239 
1025	 0.139609297637668 
1026	 0.135686498140074 
1027	 0.130722057799526 
1028	 0.127612241538775 
1029	 0.130376386842547 
1030	 0.128032022300508 
1031	 0.121028563361446 
1032	 0.130678995376952 
1033	 0.136919028686189 
1034	 0.129727231705512 
1035	 0.137104812571567 
1036	 0.14313323801548 
1037	 0.131127151593198 
1038	 0.131072766362292 
1039	 0.139654338365917 
1040	 0.141400109091197 
1041	 0.142060771294185 
1042	 0.143673722729763 
1043	 0.149675414816704 
1044	 0.151306506394216 
1045	 0.14735192575362 
1046	 0.150995995284031 
1047	 0.142878733280916 
1048	 0.117950657939141 
1049	 0.126990450497045 
1050	 0.140285136438678 
1051	 0.128695771166972 
1052	 0.123342557455076 
1053	 0.123881134865409 
1054	 0.122760262250595 
1055	 0.139854363325342 
1056	 0.167405264954297 
1057	 0.181316410932774 
1058	 0.167125923871711 
1059	 0.134540792313809 
1060	 0.152570552935281 
1061	 0.155772457733166 
1062	 0.12728396138422 
1063	 0.147479355004069 
1064	 0.160397291514045 
1065	 0.13346765749309 
1066	 0.15745405527826 
1067	 0.188504292767537 
1068	 0.174271932442342 
1069	 0.156156396231953 
1070	 0.146196153377421 
1071	 0.150973227591422 
1072	 0.147093142329958 
1073	 0.135126001860849 
1074	 0.130336568974319 
1075	 0.132403123835882 
