Wavelength	A00217.asd
325	 1.92316608532118E-02 
326	 2.84102282712507E-02 
327	 3.67540164258259E-02 
328	 0.031390377877463 
329	 3.05270280912477E-02 
330	 3.79006877719402E-02 
331	 3.50664784667561E-02 
332	 3.22421548792829E-02 
333	 3.97451257032856E-02 
334	 4.19455565784172E-02 
335	 3.91872449884596E-02 
336	 3.79976315651695E-02 
337	 3.83306382600845E-02 
338	 3.98021536682403E-02 
339	 0.04027882606436 
340	 3.86806401708583E-02 
341	 3.49801041796879E-02 
342	 3.78780736170384E-02 
343	 4.37485743757478E-02 
344	 4.40944411390005E-02 
345	 4.11760622634143E-02 
346	 0.037422889463412 
347	 3.98532387407209E-02 
348	 4.16565318107679E-02 
349	 3.87807810883154E-02 
350	 3.79517646378277E-02 
351	 3.84286450030254E-02 
352	 3.76962461958293E-02 
353	 3.66897860862246E-02 
354	 3.63109584554532E-02 
355	 0.039212626686014 
356	 4.06815391205152E-02 
357	 0.038476306787897 
358	 0.038756975928908 
359	 4.04683642711985E-02 
360	 4.09603539157906E-02 
361	 3.98838752696004E-02 
362	 3.83201857046136E-02 
363	 4.03601158717792E-02 
364	 4.12107285371687E-02 
365	 3.89404301161971E-02 
366	 3.87430338994493E-02 
367	 3.94210635291392E-02 
368	 3.86741959506882E-02 
369	 3.83430960649373E-02 
370	 3.86008489342794E-02 
371	 3.85636760858995E-02 
372	 3.88170609018349E-02 
373	 0.039553908134666 
374	 3.98786035858041E-02 
375	 4.00002038245861E-02 
376	 4.03414876978024E-02 
377	 3.94244985158974E-02 
378	 3.75699064352957E-02 
379	 3.66676831787552E-02 
380	 3.70331422251812E-02 
381	 3.85688560759514E-02 
382	 3.95364300946655E-02 
383	 3.97437252573681E-02 
384	 0.039226736042079 
385	 3.98366012700035E-02 
386	 4.07988878760511E-02 
387	 3.80505131778312E-02 
388	 0.037405892055307 
389	 4.04563985599962E-02 
390	 0.040063383096572 
391	 3.87815999940611E-02 
392	 4.02217594153829E-02 
393	 4.06992407325757E-02 
394	 3.98171292588557E-02 
395	 3.85326180663318E-02 
396	 3.82802400526598E-02 
397	 3.92970197513105E-02 
398	 3.94942334752231E-02 
399	 3.87805829363854E-02 
400	 3.73345656818516E-02 
401	 3.75820647376438E-02 
402	 3.91316235656295E-02 
403	 4.01216451615096E-02 
404	 4.03298824646875E-02 
405	 3.98301188930768E-02 
406	 3.99823534823679E-02 
407	 0.0402701480524 
408	 3.99108017722127E-02 
409	 3.97426490652534E-02 
410	 3.97260335497101E-02 
411	 3.90910695582578E-02 
412	 3.89956063551222E-02 
413	 3.97529597106175E-02 
414	 3.96725857805418E-02 
415	 3.92081988891241E-02 
416	 3.91512068625182E-02 
417	 3.92398187101914E-02 
418	 3.94594107318229E-02 
419	 3.99584486886564E-02 
420	 4.02528843769234E-02 
421	 4.01501903714888E-02 
422	 4.02922358539972E-02 
423	 4.06878874297035E-02 
424	 4.12545484310826E-02 
425	 4.13258470078086E-02 
426	 4.09096703605873E-02 
427	 4.06769896813553E-02 
428	 4.07407941080014E-02 
429	 4.10912276426803E-02 
430	 4.09494382278428E-02 
431	 4.07100061336965E-02 
432	 4.12287376991369E-02 
433	 4.11317104893209E-02 
434	 4.04743989764615E-02 
435	 4.07995669314131E-02 
436	 0.041139600247645 
437	 4.09349940618621E-02 
438	 4.14126620781229E-02 
439	 4.21035404555765E-02 
440	 4.18599629361051E-02 
441	 4.14545709176885E-02 
442	 4.12524409029547E-02 
443	 4.17026475511857E-02 
444	 4.22005621216489E-02 
445	 4.22587397925617E-02 
446	 4.22787930670604E-02 
447	 4.22910073058149E-02 
448	 4.21728733859488E-02 
449	 4.23227175349396E-02 
450	 0.042753639182034 
451	 4.27996781469448E-02 
452	 0.042767817598161 
453	 4.29874646962502E-02 
454	 4.31482210325098E-02 
455	 4.32279257946204E-02 
456	 4.33397434814273E-02 
457	 4.34047579716871E-02 
458	 4.34042246552252E-02 
459	 4.34080326102908E-02 
460	 4.34363191339225E-02 
461	 4.35044228208874E-02 
462	 4.36556532172599E-02 
463	 4.37797917563402E-02 
464	 4.34904776727638E-02 
465	 4.33467898558477E-02 
466	 0.043589957521503 
467	 0.043675583326881 
468	 4.35898949653804E-02 
469	 4.33987762039173E-02 
470	 0.043746098511667 
471	 4.45116886085023E-02 
472	 4.47073115362517E-02 
473	 4.45888266369472E-02 
474	 4.43408340228798E-02 
475	 4.40028009516729E-02 
476	 4.38399022870609E-02 
477	 4.42986236261658E-02 
478	 4.43454800664928E-02 
479	 4.39648292831885E-02 
480	 0.044488354439243 
481	 4.50461819794639E-02 
482	 4.49365661716064E-02 
483	 4.47959986713112E-02 
484	 4.47603721695917E-02 
485	 4.49143845380921E-02 
486	 4.48891155899896E-02 
487	 4.46564372921694E-02 
488	 4.48862590756081E-02 
489	 4.50832411636016E-02 
490	 4.47323253142306E-02 
491	 0.044232368135941 
492	 4.40284694773252E-02 
493	 4.51451521957557E-02 
494	 4.59368570479148E-02 
495	 4.57591356855878E-02 
496	 4.56267460857575E-02 
497	 4.56729801245437E-02 
498	 4.59373534575798E-02 
499	 4.61282882440915E-02 
500	 4.62054324159321E-02 
501	 4.62978312697393E-02 
502	 4.65287356886579E-02 
503	 4.69192979655679E-02 
504	 4.70222582081074E-02 
505	 4.69925139058679E-02 
506	 4.71677554840065E-02 
507	 4.75476780117286E-02 
508	 4.80421383310076E-02 
509	 4.82776406159712E-02 
510	 4.84527474099892E-02 
511	 4.87291158590236E-02 
512	 4.89503732589534E-02 
513	 4.91823837060899E-02 
514	 4.96123205243767E-02 
515	 5.01709581536632E-02 
516	 5.07922493572154E-02 
517	 5.13088253586592E-02 
518	 5.16859661380213E-02 
519	 5.19125686095741E-02 
520	 5.21084622650742E-02 
521	 5.24328046249535E-02 
522	 5.32547463218966E-02 
523	 5.39232287013858E-02 
524	 5.41795333806011E-02 
525	 5.45127240525235E-02 
526	 5.48946210640595E-02 
527	 0.055202904953188 
528	 5.56276389408563E-02 
529	 5.61748571946255E-02 
530	 5.67365437533058E-02 
531	 5.71916451065687E-02 
532	 5.74788472305702E-02 
533	 5.78400634634276E-02 
534	 0.058196680747498 
535	 5.83115985533714E-02 
536	 5.84673986482113E-02 
537	 5.87770276120837E-02 
538	 5.92712478472019E-02 
539	 5.98161923675283E-02 
540	 6.02586787625444E-02 
541	 6.03283318213021E-02 
542	 6.01793217617669E-02 
543	 6.03250443363084E-02 
544	 6.06236127388357E-02 
545	 6.10036529424437E-02 
546	 0.06135421115293 
547	 6.16213458930768E-02 
548	 6.17565806731108E-02 
549	 0.061879369377147 
550	 6.21015897603847E-02 
551	 6.27086296155792E-02 
552	 6.31252336084957E-02 
553	 6.30390853345784E-02 
554	 6.31545736968087E-02 
555	 6.34225035480406E-02 
556	 6.35669478154464E-02 
557	 0.063620976153778 
558	 6.36381261187901E-02 
559	 6.38504007056635E-02 
560	 6.40587790178664E-02 
561	 6.40827411652701E-02 
562	 6.41757195051005E-02 
563	 6.42787098949712E-02 
564	 6.41154133130252E-02 
565	 0.063925665893518 
566	 6.38090773512022E-02 
567	 6.36799831261453E-02 
568	 6.36152535767807E-02 
569	 6.37154776463184E-02 
570	 6.38120113013821E-02 
571	 6.38341822880239E-02 
572	 6.37620210336919E-02 
573	 6.34816565469052E-02 
574	 6.30144959100639E-02 
575	 6.31501994456391E-02 
576	 6.34595006630887E-02 
577	 0.062958746105369 
578	 6.24778017262654E-02 
579	 6.22639692539888E-02 
580	 6.21743196174035E-02 
581	 6.20502881196001E-02 
582	 0.061788110429561 
583	 6.19469357418412E-02 
584	 0.062311606035377 
585	 6.20629903729389E-02 
586	 6.18801779507487E-02 
587	 0.061971515243372 
588	 0.061855688228999 
589	 6.16456034514119E-02 
590	 6.15467664636943E-02 
591	 6.14162865305876E-02 
592	 6.12122818584264E-02 
593	 6.08121372252797E-02 
594	 6.08140750688046E-02 
595	 6.14510992700066E-02 
596	 6.15377723648769E-02 
597	 6.12882954943254E-02 
598	 6.13985013940309E-02 
599	 6.11465410141845E-02 
600	 0.060560702231298 
601	 6.06806690287495E-02 
602	 6.09829988727909E-02 
603	 6.09733832901898E-02 
604	 6.09299477734945E-02 
605	 6.08572066694789E-02 
606	 6.06156943645424E-02 
607	 6.05719010612845E-02 
608	 6.07959512017312E-02 
609	 6.07446513107644E-02 
610	 6.04391637509061E-02 
611	 5.99789461115301E-02 
612	 5.97524328100894E-02 
613	 5.97960876505123E-02 
614	 5.99012473713681E-02 
615	 5.97034477622262E-02 
616	 5.90801291728642E-02 
617	 5.90619331696825E-02 
618	 5.92594417507927E-02 
619	 5.87213840166826E-02 
620	 5.85372062716068E-02 
621	 5.88418785553847E-02 
622	 5.88028426858127E-02 
623	 5.84496569543703E-02 
624	 5.78938341978659E-02 
625	 5.79779695447921E-02 
626	 5.83826469188507E-02 
627	 5.77478005904998E-02 
628	 5.76693214073968E-02 
629	 5.85030620878532E-02 
630	 0.058337423239445 
631	 5.77971511474229E-02 
632	 5.78573092409969E-02 
633	 5.78739671208576E-02 
634	 5.77831037289568E-02 
635	 5.78599282291426E-02 
636	 0.057875034027243 
637	 5.77281073885932E-02 
638	 5.78259167157531E-02 
639	 5.78932503114435E-02 
640	 5.73329537284427E-02 
641	 5.69927444813803E-02 
642	 5.69838356855578E-02 
643	 5.64753075690664E-02 
644	 5.60954885774101E-02 
645	 5.63584639219839E-02 
646	 5.62178302852532E-02 
647	 5.56993877598263E-02 
648	 5.53620163141853E-02 
649	 5.53001356702718E-02 
650	 5.54594557378971E-02 
651	 5.51891789519806E-02 
652	 5.46898583118318E-02 
653	 5.42648075310431E-02 
654	 5.41134736531031E-02 
655	 0.054163348683143 
656	 5.39470164286347E-02 
657	 5.37318829781916E-02 
658	 5.36291663215723E-02 
659	 5.32225299932216E-02 
660	 5.26250483338581E-02 
661	 5.20880558378706E-02 
662	 5.14869090845047E-02 
663	 0.050925563027036 
664	 5.09074210203843E-02 
665	 5.10154476791922E-02 
666	 5.08656593911014E-02 
667	 5.03711631810995E-02 
668	 4.97506115576453E-02 
669	 4.95879708784655E-02 
670	 4.93043280597714E-02 
671	 4.88513528945639E-02 
672	 4.92004077909235E-02 
673	 4.95860891298339E-02 
674	 4.90846265412722E-02 
675	 4.88520259909839E-02 
676	 4.90430529546125E-02 
677	 4.92961170671659E-02 
678	 4.94840663145177E-02 
679	 4.95433212889092E-02 
680	 4.96033140375239E-02 
681	 4.99005779306407E-02 
682	 5.07792849920239E-02 
683	 5.15675548216723E-02 
684	 5.21032901194084E-02 
685	 5.26859715785217E-02 
686	 5.32513741157397E-02 
687	 5.37720846965512E-02 
688	 5.48073014224926E-02 
689	 0.056146199190577 
690	 5.72683588853347E-02 
691	 5.87076949839738E-02 
692	 6.05074404137183E-02 
693	 0.061862413950489 
694	 6.33784033937829E-02 
695	 6.56159563912469E-02 
696	 6.74851767007366E-02 
697	 6.90256010440018E-02 
698	 7.10243931588914E-02 
699	 7.30214727047149E-02 
700	 7.48181185031987E-02 
701	 7.68179822031883E-02 
702	 7.88450404624396E-02 
703	 8.06215063180425E-02 
704	 8.19545795386454E-02 
705	 8.30621562121459E-02 
706	 8.48296159825514E-02 
707	 8.62883516630712E-02 
708	 8.69291643651844E-02 
709	 8.81381352568806E-02 
710	 8.97300727907372E-02 
711	 9.10011715339954E-02 
712	 9.22750465793086E-02 
713	 9.35813477461949E-02 
714	 9.47788059235093E-02 
715	 9.56701717701318E-02 
716	 9.61559304824555E-02 
717	 9.71043596112287E-02 
718	 9.85307801808511E-02 
719	 9.95953346048224E-02 
720	 0.100343159505314 
721	 0.100831370094042 
722	 0.101414771596551 
723	 0.101818673586212 
724	 0.101656751425978 
725	 0.102212436732229 
726	 0.103452891276758 
727	 0.104459597932157 
728	 0.105036776681275 
729	 0.105133715148504 
730	 0.105384835646379 
731	 0.105741074886842 
732	 0.106017833169778 
733	 0.106367579916121 
734	 0.106736409783521 
735	 0.106783486133628 
736	 0.106917218407885 
737	 0.107394652261533 
738	 0.107979680697566 
739	 0.108407958948857 
740	 0.108234797742817 
741	 0.108386911750496 
742	 0.108950988694315 
743	 0.10895562640537 
744	 0.108825576691463 
745	 0.108949532429347 
746	 0.109199292095486 
747	 0.109528110595736 
748	 0.109865531917578 
749	 0.110295698973919 
750	 0.110741501347651 
751	 0.110711845965646 
752	 0.110511563811048 
753	 0.110507575374657 
754	 0.110750489655834 
755	 0.11107117483632 
756	 0.110998079199457 
757	 0.110595266824435 
758	 0.110012437351259 
759	 0.110647929557652 
760	 0.112395389977959 
761	 0.112586499010339 
762	 0.112380304499017 
763	 0.112391136878944 
764	 0.112776225155937 
765	 0.113262268834297 
766	 0.113632435100775 
767	 0.113457381372524 
768	 0.113152119885106 
769	 0.113206953823241 
770	 0.113367787202966 
771	 0.113488587919266 
772	 0.113189967535785 
773	 0.113197508327959 
774	 0.113876529513707 
775	 0.113865260134766 
776	 0.113541750432371 
777	 0.113940166342972 
778	 0.11440271633432 
779	 0.114631848280842 
780	 0.114215193148382 
781	 0.113961225815952 
782	 0.114467043502365 
783	 0.114806133635145 
784	 0.114935912451 
785	 0.11513628563135 
786	 0.115060018394112 
787	 0.114767993838095 
788	 0.115084685514696 
789	 0.115437406630466 
790	 0.115292109954175 
791	 0.115355507818674 
792	 0.115677867867664 
793	 0.116099224310165 
794	 0.11627527411858 
795	 0.116155229777548 
796	 0.116274585034943 
797	 0.116408002477428 
798	 0.116313720925586 
799	 0.116317189187604 
800	 0.116424512316976 
801	 0.116450835797735 
802	 0.116628795993302 
803	 0.116950531866556 
804	 0.116839399553117 
805	 0.116787114796078 
806	 0.11732275517115 
807	 0.117351996339776 
808	 0.117016699652876 
809	 0.117432845029576 
810	 0.117609228668092 
811	 0.117241090750035 
812	 0.11725777960628 
813	 0.117558291041911 
814	 0.117915782260187 
815	 0.118823249507612 
816	 0.119893421234459 
817	 0.119814648936683 
818	 0.118787197045748 
819	 0.117424062215495 
820	 0.118178262006135 
821	 0.119563574142426 
822	 0.11961969137932 
823	 0.118946265962891 
824	 0.11825325704031 
825	 0.119159707765027 
826	 0.119786429499853 
827	 0.119515219190472 
828	 0.119904555081528 
829	 0.120167634022682 
830	 0.119251603942238 
831	 0.119284198997197 
832	 0.120082682871958 
833	 0.119702105407956 
834	 0.119349036683951 
835	 0.119579889978571 
836	 0.120530966688316 
837	 0.121196804358809 
838	 0.120505954405505 
839	 0.120223943090079 
840	 0.120571832867539 
841	 0.121003968660958 
842	 0.121478186448228 
843	 0.12184403441309 
844	 0.121593076326298 
845	 0.12125919793507 
846	 0.121469297521091 
847	 0.121745932501409 
848	 0.121849203194644 
849	 0.121397442375473 
850	 0.120893963768374 
851	 0.120642322328366 
852	 0.120903778320896 
853	 0.121366565323569 
854	 0.121659695978322 
855	 0.12206301660163 
856	 0.122211701885304 
857	 0.120936616826067 
858	 0.120663351962467 
859	 0.121747864728918 
860	 0.12121674911151 
861	 0.120810909662371 
862	 0.122185234827807 
863	 0.12271578781273 
864	 0.122428870639397 
865	 0.122586005923938 
866	 0.122396196017348 
867	 0.122120167327532 
868	 0.124151282644068 
869	 0.125417744573935 
870	 0.123692945345808 
871	 0.123165492826475 
872	 0.123751961033626 
873	 0.124005028033057 
874	 0.123679640407002 
875	 0.122886734258031 
876	 0.122534252315937 
877	 0.122747761190958 
878	 0.123500885162325 
879	 0.123937167883349 
880	 0.124134868462435 
881	 0.124478249746157 
882	 0.123762051643622 
883	 0.122342057110885 
884	 0.122428476755201 
885	 0.123411768972109 
886	 0.124606407012487 
887	 0.123925337391403 
888	 0.122814156684093 
889	 0.123453902903474 
890	 0.123984512039962 
891	 0.124105161043405 
892	 0.124326945404873 
893	 0.124195331464188 
894	 0.123623529934937 
895	 0.123295083499916 
896	 0.123847908253523 
897	 0.125747260186642 
898	 0.125814740044051 
899	 0.12475201403724 
900	 0.126410537239319 
901	 0.125551177431542 
902	 0.122096492557525 
903	 0.123318113037837 
904	 0.125820135483475 
905	 0.126747861413782 
906	 0.127118872166571 
907	 0.126901432196825 
908	 0.12582255331185 
909	 0.125960280283019 
910	 0.12744806796809 
911	 0.128394794039797 
912	 0.127468919574346 
913	 0.124786728318209 
914	 0.12628699609803 
915	 0.129154156031993 
916	 0.129241280551936 
917	 0.129508816776201 
918	 0.129668350053419 
919	 0.127098521759314 
920	 0.126351059484969 
921	 0.128023463088026 
922	 0.125828536609996 
923	 0.124406979288961 
924	 0.12765312726934 
925	 0.127111505721796 
926	 0.12419493006993 
927	 0.125306571292399 
928	 0.12617539617366 
929	 0.125368637429687 
930	 0.123111113095292 
931	 0.122345922714163 
932	 0.125143387929632 
933	 0.124908850561089 
934	 0.125714465143099 
935	 0.134332222370096 
936	 0.139857436048904 
937	 0.13860319396204 
938	 0.128580567255324 
939	 0.121462845404611 
940	 0.12134357703751 
941	 0.127518689566701 
942	 0.12947410645069 
943	 0.121122366051625 
944	 0.118562666477808 
945	 0.121703545794949 
946	 0.126567121368148 
947	 0.13023210904671 
948	 0.131394614508869 
949	 0.129850708788117 
950	 0.128956524558898 
951	 0.130112729080656 
952	 0.132069997900101 
953	 0.131153204161569 
954	 0.125159372861481 
955	 0.125913381599648 
956	 0.12952949915402 
957	 0.125419284281632 
958	 0.125522832511915 
959	 0.129260790234293 
960	 0.123726796750673 
961	 0.122352280081872 
962	 0.129760430290721 
963	 0.13370545987003 
964	 0.134241045812998 
965	 0.132527320571309 
966	 0.130000577462374 
967	 0.127403252853969 
968	 0.125220376568004 
969	 0.123423183276372 
970	 0.122551362546321 
971	 0.124249345187448 
972	 0.127125261956493 
973	 0.130072503826402 
974	 0.131605005480334 
975	 0.133244736127617 
976	 0.13640543088588 
977	 0.133610709619911 
978	 0.127293763061 
979	 0.125627956344462 
980	 0.126058708499483 
981	 0.12793037721579 
982	 0.131805341170884 
983	 0.133048074933192 
984	 0.12987410243207 
985	 0.12834647863066 
986	 0.128714854575991 
987	 0.130365115832626 
988	 0.130230951649229 
989	 0.129460682907406 
990	 0.131613325850415 
991	 0.133068795727318 
992	 0.132858476653549 
993	 0.131712517683442 
994	 0.129948091077737 
995	 0.128136433823969 
996	 0.128232614530414 
997	 0.127463082029354 
998	 0.123624450132728 
999	 0.124157280356019 
1000	 0.128852998115143 
1001	 0.135217646163173 
1002	 0.131825366648281 
1003	 0.121841205519005 
1004	 0.126507472237768 
1005	 0.131284298062906 
1006	 0.130226819218522 
1007	 0.124899133255614 
1008	 0.122504973472662 
1009	 0.127841270287902 
1010	 0.132127666329983 
1011	 0.133241791227239 
1012	 0.130151407793205 
1013	 0.129729818062196 
1014	 0.131491113565619 
1015	 0.129874209645514 
1016	 0.131311634749258 
1017	 0.135421349541127 
1018	 0.131505754266556 
1019	 0.132384302402057 
1020	 0.142025887856711 
1021	 0.137344003590995 
1022	 0.130741594204744 
1023	 0.135035383218836 
1024	 0.133329794520969 
1025	 0.127590903077452 
1026	 0.125407203915024 
1027	 0.128961299791485 
1028	 0.134014006678058 
1029	 0.125055517995481 
1030	 0.122790271766796 
1031	 0.131080075219909 
1032	 0.131386611493247 
1033	 0.131312127637005 
1034	 0.134691999625934 
1035	 0.132068605391287 
1036	 0.129436942490087 
1037	 0.132498617649293 
1038	 0.124188404793863 
1039	 0.111389720642076 
1040	 0.11069225478855 
1041	 0.120900654947744 
1042	 0.136035887436452 
1043	 0.14427224525819 
1044	 0.140335983093478 
1045	 0.127391038363317 
1046	 0.130056225151352 
1047	 0.130034929201699 
1048	 0.119746997896478 
1049	 0.127594512388927 
1050	 0.134099127830924 
1051	 0.122119406409735 
1052	 0.12334902044423 
1053	 0.13220961624657 
1054	 0.132409336305149 
1055	 0.139432171486365 
1056	 0.152589763268431 
1057	 0.164846059167542 
1058	 0.155492388431593 
1059	 0.128850623835774 
1060	 0.138029836758988 
1061	 0.135512452173624 
1062	 0.110394361658569 
1063	 0.131658247327409 
1064	 0.14175058254798 
1065	 0.108995399043316 
1066	 0.134993342997087 
1067	 0.16328701836519 
1068	 0.129809084383837 
1069	 0.119998389424353 
1070	 0.13586383482357 
1071	 0.15044188190286 
1072	 0.139919241949091 
1073	 0.117265290588968 
1074	 0.128716896556006 
1075	 0.148076753239941 
