Wavelength	A00233.asd
325	 3.65500453594741E-02 
326	 3.93257150191985E-02 
327	 4.89766753809729E-02 
328	 4.52668512880438E-02 
329	 4.17366930438359E-02 
330	 4.20613575374944E-02 
331	 3.66102693806847E-02 
332	 0.033792668572181 
333	 0.041542551676291 
334	 4.31820388026866E-02 
335	 4.04820507904395E-02 
336	 4.47238153598683E-02 
337	 4.58316790694623E-02 
338	 4.21965031374218E-02 
339	 4.14453236340231E-02 
340	 3.98048067576633E-02 
341	 3.48696471811152E-02 
342	 3.85493371654527E-02 
343	 0.045848522621493 
344	 4.47870704279086E-02 
345	 4.24916912291493E-02 
346	 4.17560867071948E-02 
347	 4.61454992187368E-02 
348	 4.76800325480971E-02 
349	 4.22842390811997E-02 
350	 4.22441848258072E-02 
351	 4.46579244073367E-02 
352	 0.042380670237615 
353	 4.23072334153428E-02 
354	 4.48669535025422E-02 
355	 4.56721435982877E-02 
356	 0.044475141677616 
357	 4.19397712355729E-02 
358	 4.41875533622255E-02 
359	 4.76381540689565E-02 
360	 4.59908624188939E-02 
361	 4.39370405683271E-02 
362	 4.30163071863817E-02 
363	 4.42870233655758E-02 
364	 4.49087940060655E-02 
365	 4.36832680099024E-02 
366	 4.36172608886007E-02 
367	 4.37251182883601E-02 
368	 4.22811180079279E-02 
369	 4.24423524816404E-02 
370	 4.41506002658184E-02 
371	 4.47126140857729E-02 
372	 4.50091537397697E-02 
373	 4.54992817574984E-02 
374	 4.62055407914866E-02 
375	 4.67273937949047E-02 
376	 4.65435106969865E-02 
377	 4.54775379229475E-02 
378	 4.39969839045698E-02 
379	 4.35090661833239E-02 
380	 4.36752050927938E-02 
381	 0.044265910328274 
382	 4.49904900985062E-02 
383	 4.55110833586531E-02 
384	 4.54647232778124E-02 
385	 4.62303563940823E-02 
386	 4.71194051443107E-02 
387	 4.50218942970219E-02 
388	 0.043827015527297 
389	 4.47621313859522E-02 
390	 4.37146682063028E-02 
391	 4.27710064486754E-02 
392	 4.46475614907079E-02 
393	 4.55733203904668E-02 
394	 4.52219722648377E-02 
395	 4.53264309511494E-02 
396	 4.43861336607988E-02 
397	 4.24371320392084E-02 
398	 4.28524711416048E-02 
399	 4.33573360060413E-02 
400	 4.15540789435842E-02 
401	 0.041417849983135 
402	 4.28561370790164E-02 
403	 4.41428670946264E-02 
404	 4.43543745037867E-02 
405	 0.043427505476297 
406	 4.37812226960413E-02 
407	 4.47764664252961E-02 
408	 4.53393886279009E-02 
409	 4.48140071145814E-02 
410	 4.35672079061218E-02 
411	 4.29156147663797E-02 
412	 4.31149370873428E-02 
413	 4.40039511176281E-02 
414	 4.36397875178231E-02 
415	 4.30878103116445E-02 
416	 4.39398881297795E-02 
417	 4.45411956739128E-02 
418	 4.46964807592573E-02 
419	 4.51754599020317E-02 
420	 0.04510187858926 
421	 4.42493051119448E-02 
422	 4.44716901620453E-02 
423	 4.52623638004857E-02 
424	 4.55944513209827E-02 
425	 4.56632204388124E-02 
426	 4.55564336852293E-02 
427	 4.54956406221766E-02 
428	 4.54630554662148E-02 
429	 4.54469867052757E-02 
430	 4.54166584187115E-02 
431	 4.53963535345543E-02 
432	 4.54603706496519E-02 
433	 4.50334821470112E-02 
434	 4.43648769179617E-02 
435	 4.48361224955819E-02 
436	 4.53836938488033E-02 
437	 4.53649566403893E-02 
438	 0.045897762074769 
439	 4.65338395598865E-02 
440	 4.61696720651035E-02 
441	 4.59196224871046E-02 
442	 0.046053531600714 
443	 4.61491844657251E-02 
444	 4.62404243052446E-02 
445	 0.046369198535707 
446	 4.66211107558813E-02 
447	 4.68558408062724E-02 
448	 4.67370626040796E-02 
449	 4.65830985625203E-02 
450	 4.65732562831828E-02 
451	 4.69875819806603E-02 
452	 4.73641658349243E-02 
453	 4.72510091410471E-02 
454	 4.71280366570399E-02 
455	 4.70973768852493E-02 
456	 4.71307488473647E-02 
457	 4.72872820886005E-02 
458	 4.75590206941202E-02 
459	 4.77979947880425E-02 
460	 4.79293677420781E-02 
461	 4.78859270191379E-02 
462	 4.76975892321773E-02 
463	 4.74083884009598E-02 
464	 4.70492783748977E-02 
465	 4.69052386898719E-02 
466	 4.71517513517938E-02 
467	 4.78697391348485E-02 
468	 4.83505835761923E-02 
469	 4.75921214779008E-02 
470	 4.72641742767437E-02 
471	 4.76364347853636E-02 
472	 4.79855605915688E-02 
473	 4.80735395217017E-02 
474	 4.77811030149624E-02 
475	 4.75046803375644E-02 
476	 4.74382061246681E-02 
477	 4.78310708220617E-02 
478	 4.78113460921605E-02 
479	 4.73445481319089E-02 
480	 4.74099636925985E-02 
481	 4.78150029062468E-02 
482	 4.83252063875832E-02 
483	 4.83119928966449E-02 
484	 4.79748811822644E-02 
485	 4.80953298319235E-02 
486	 4.80511680501161E-02 
487	 4.78004270880652E-02 
488	 4.83255918982228E-02 
489	 4.86877766865609E-02 
490	 4.79609297704107E-02 
491	 4.75838622240234E-02 
492	 4.77974931327816E-02 
493	 4.84919309304852E-02 
494	 4.89444079810071E-02 
495	 4.88457046628053E-02 
496	 4.85948605426197E-02 
497	 4.85750716789149E-02 
498	 4.92141050359466E-02 
499	 4.95566519503688E-02 
500	 4.94293163063224E-02 
501	 4.90876209290481E-02 
502	 0.049102289937565 
503	 0.049750094230605 
504	 0.050267602925104 
505	 5.04726623427982E-02 
506	 5.02277844183842E-02 
507	 5.03788630134956E-02 
508	 5.10078035306183E-02 
509	 5.13500319064714E-02 
510	 5.15195373358103E-02 
511	 5.16401149912539E-02 
512	 5.18448615596337E-02 
513	 5.21877569029358E-02 
514	 5.27411761772678E-02 
515	 5.32307574989992E-02 
516	 5.35628152805579E-02 
517	 5.38911737764231E-02 
518	 5.42735931537814E-02 
519	 5.47421823249782E-02 
520	 5.48811529241586E-02 
521	 0.054955277347521 
522	 5.59310328849532E-02 
523	 5.67625589066007E-02 
524	 5.70444226634214E-02 
525	 5.75727671604779E-02 
526	 5.81119560595083E-02 
527	 5.82114159393239E-02 
528	 0.058408755269411 
529	 5.88490980985869E-02 
530	 5.95331552236657E-02 
531	 0.060123296434585 
532	 6.04164434828835E-02 
533	 0.060810330510769 
534	 0.061158486303683 
535	 6.10187695028832E-02 
536	 6.11857888519171E-02 
537	 6.18059191214652E-02 
538	 6.22452334919803E-02 
539	 6.25913326735939E-02 
540	 6.29524354962113E-02 
541	 6.32813100836578E-02 
542	 6.35030474327173E-02 
543	 6.33903009685237E-02 
544	 6.35154075674619E-02 
545	 6.40502805147106E-02 
546	 6.43906067325241E-02 
547	 6.45528160542442E-02 
548	 6.46368753853448E-02 
549	 6.47904799056194E-02 
550	 6.50581476630246E-02 
551	 6.54167149799873E-02 
552	 6.58028109289264E-02 
553	 0.066137054331065 
554	 6.61395225480219E-02 
555	 6.60697851517774E-02 
556	 6.64913038859387E-02 
557	 6.67592367480964E-02 
558	 6.67097530396567E-02 
559	 6.65861190671591E-02 
560	 6.66701102182529E-02 
561	 6.71516288649328E-02 
562	 6.71105633721044E-02 
563	 6.67090642230595E-02 
564	 0.066855464245966 
565	 6.68923035222237E-02 
566	 6.66131244958878E-02 
567	 6.64647914196874E-02 
568	 6.62962429006387E-02 
569	 6.58699197685062E-02 
570	 6.55915131200182E-02 
571	 0.065559422729873 
572	 6.57398533370353E-02 
573	 6.58028874045337E-02 
574	 6.56012865971016E-02 
575	 6.58322090920523E-02 
576	 6.60934144224685E-02 
577	 6.54844558451333E-02 
578	 6.48312549799665E-02 
579	 6.44396740395553E-02 
580	 6.43381517432915E-02 
581	 6.43258109211048E-02 
582	 6.42272291597187E-02 
583	 6.42422750542883E-02 
584	 0.06432565841172 
585	 6.43062536068119E-02 
586	 6.41707326048724E-02 
587	 6.39419094051315E-02 
588	 6.38424688122334E-02 
589	 6.37800949290286E-02 
590	 6.36100820362617E-02 
591	 6.33837080629034E-02 
592	 6.31678387609684E-02 
593	 6.30948780131389E-02 
594	 6.31345624539009E-02 
595	 0.063254736664714 
596	 6.33837054533354E-02 
597	 6.34047032448678E-02 
598	 6.31247922788375E-02 
599	 6.30408570587654E-02 
600	 6.32150428895667E-02 
601	 6.32192396969218E-02 
602	 6.29168642984822E-02 
603	 6.22874331163555E-02 
604	 6.24833903386641E-02 
605	 6.31189615223036E-02 
606	 6.26644902643055E-02 
607	 6.22698708916343E-02 
608	 6.23216574167954E-02 
609	 6.22764691115482E-02 
610	 6.20980612904457E-02 
611	 6.18018992394235E-02 
612	 6.16718038954257E-02 
613	 6.16542567038347E-02 
614	 6.12858566092056E-02 
615	 6.10282369189015E-02 
616	 6.10959767460089E-02 
617	 6.07684904611991E-02 
618	 6.02700357582412E-02 
619	 6.01257192026184E-02 
620	 6.03174228706407E-02 
621	 0.06064776488764 
622	 6.02907410586493E-02 
623	 5.98038012352103E-02 
624	 5.97083097837638E-02 
625	 0.059629927872705 
626	 5.95617555106349E-02 
627	 5.96580732713779E-02 
628	 5.97255474140338E-02 
629	 5.97379365680803E-02 
630	 6.01213355438777E-02 
631	 6.03079107103194E-02 
632	 5.95817113333814E-02 
633	 5.95248007199455E-02 
634	 6.00729760314536E-02 
635	 5.96915086390769E-02 
636	 5.92511755504402E-02 
637	 5.92422052359251E-02 
638	 5.92449772705403E-02 
639	 5.90923821407817E-02 
640	 5.85634595725341E-02 
641	 5.83062188365195E-02 
642	 5.83331984347282E-02 
643	 5.76802468205369E-02 
644	 5.70910506386127E-02 
645	 5.71953247997045E-02 
646	 0.057034920571785 
647	 5.65758105039447E-02 
648	 5.61870184023529E-02 
649	 5.59823044801216E-02 
650	 5.59517158029862E-02 
651	 5.56195115645286E-02 
652	 5.52564878527067E-02 
653	 5.52242735983837E-02 
654	 5.54306290638217E-02 
655	 5.56535581488266E-02 
656	 5.51954219364701E-02 
657	 5.47346115920979E-02 
658	 5.46126356880108E-02 
659	 5.39744077367155E-02 
660	 5.31947368773654E-02 
661	 5.30381522411652E-02 
662	 5.26495946261088E-02 
663	 0.051929627855766 
664	 5.14710961019801E-02 
665	 5.14109414531456E-02 
666	 5.17611186869949E-02 
667	 5.14504339881224E-02 
668	 5.07036884074086E-02 
669	 5.05775315651132E-02 
670	 5.02987393290643E-02 
671	 4.98048261266477E-02 
672	 5.02849250607889E-02 
673	 5.08904562719761E-02 
674	 5.05808666679984E-02 
675	 5.03630557769645E-02 
676	 5.04650854753183E-02 
677	 5.08654359806066E-02 
678	 5.12086196751946E-02 
679	 5.13039013920713E-02 
680	 5.13933654116677E-02 
681	 5.14503588022769E-02 
682	 5.13476030919297E-02 
683	 5.19971806513916E-02 
684	 5.32826452209291E-02 
685	 5.36990075864536E-02 
686	 5.39473283378069E-02 
687	 5.46734516313258E-02 
688	 0.055799923868735 
689	 5.71132878024146E-02 
690	 5.83408377269909E-02 
691	 5.99568047963472E-02 
692	 6.19779068221746E-02 
693	 6.35655645270274E-02 
694	 6.51699272779612E-02 
695	 6.72213570052041E-02 
696	 6.93404866438967E-02 
697	 7.14198561653996E-02 
698	 7.34366666710884E-02 
699	 7.55762526844708E-02 
700	 7.78465989623124E-02 
701	 7.99048926088909E-02 
702	 8.17888003822645E-02 
703	 8.36123674081035E-02 
704	 8.57601192615318E-02 
705	 8.80696252756529E-02 
706	 8.95847851829189E-02 
707	 9.09132377551345E-02 
708	 9.24336587603298E-02 
709	 9.37589644668257E-02 
710	 9.50213929222657E-02 
711	 0.096564837419599 
712	 9.80107520469711E-02 
713	 9.92755458309878E-02 
714	 0.100627989369553 
715	 0.101804270717146 
716	 0.102630203498956 
717	 0.10368971606847 
718	 0.105002188846484 
719	 0.106016547065163 
720	 0.106753872135499 
721	 0.107294956565962 
722	 0.10807863332427 
723	 0.108780524531932 
724	 0.108948602479136 
725	 0.109851022773839 
726	 0.111367241487908 
727	 0.112492343589441 
728	 0.112876453263394 
729	 0.112519110360738 
730	 0.112866779262847 
731	 0.113706227458006 
732	 0.114497743222189 
733	 0.114688193439078 
734	 0.114451933464605 
735	 0.11477478850807 
736	 0.115446309375256 
737	 0.116236941099787 
738	 0.11656961302468 
739	 0.116563711441082 
740	 0.11658582285221 
741	 0.116895664614966 
742	 0.117407545849584 
743	 0.11733222216314 
744	 0.11712752484747 
745	 0.117215272023525 
746	 0.11759527959241 
747	 0.118068552019993 
748	 0.118134384253688 
749	 0.118401178623991 
750	 0.118930948378724 
751	 0.118785134521503 
752	 0.118687666141146 
753	 0.119419313911948 
754	 0.119679858549812 
755	 0.119493469770956 
756	 0.119769582676407 
757	 0.119791007209672 
758	 0.119309337871496 
759	 0.119047424030129 
760	 0.119583909963361 
761	 0.121676039143779 
762	 0.122548215305458 
763	 0.122136032969383 
764	 0.12220173874989 
765	 0.122501558549709 
766	 0.122827808521056 
767	 0.122623873441078 
768	 0.122228159597 
769	 0.122045104701336 
770	 0.122066110015215 
771	 0.122196715055008 
772	 0.122012017964147 
773	 0.122022589238048 
774	 0.122497751680496 
775	 0.122601302258075 
776	 0.12252463890893 
777	 0.122838607838098 
778	 0.123106382992887 
779	 0.1232028757869 
780	 0.123174960040271 
781	 0.123144426101277 
782	 0.123244044631935 
783	 0.123814359056047 
784	 0.124489142491027 
785	 0.124406358072073 
786	 0.124167370727969 
787	 0.124016319898537 
788	 0.124067120716301 
789	 0.124201337423446 
790	 0.124318651880486 
791	 0.124755006045322 
792	 0.125341593964204 
793	 0.125539415337102 
794	 0.125745596193821 
795	 0.126004668257693 
796	 0.125859567440292 
797	 0.125522878304573 
798	 0.125248842189744 
799	 0.1251846450657 
800	 0.125295166902923 
801	 0.125403482159607 
802	 0.125416447710603 
803	 0.125311973570894 
804	 0.125208852793268 
805	 0.125383108257189 
806	 0.126054541228394 
807	 0.12576846462386 
808	 0.124941588106655 
809	 0.12564356701559 
810	 0.126500503230875 
811	 0.126931085685345 
812	 0.127299003616838 
813	 0.127451839548947 
814	 0.127188380534942 
815	 0.127477637734098 
816	 0.128360023798524 
817	 0.129239091030676 
818	 0.129096113233995 
819	 0.127946953639422 
820	 0.12853492848232 
821	 0.129471189080302 
822	 0.128914331156187 
823	 0.128808844253124 
824	 0.129396466856586 
825	 0.130169484089478 
826	 0.130433524388975 
827	 0.130039617858485 
828	 0.1302478903603 
829	 0.130491121631227 
830	 0.129972421428061 
831	 0.130024919286465 
832	 0.130566960570014 
833	 0.130503755059568 
834	 0.130405395058935 
835	 0.13051285220947 
836	 0.130802404387187 
837	 0.130977713808598 
838	 0.130728663711438 
839	 0.130636936918773 
840	 0.130708631486584 
841	 0.130486600726967 
842	 0.130743535537195 
843	 0.131609651333865 
844	 0.131807959910844 
845	 0.131722387503947 
846	 0.131911479244683 
847	 0.132400766210477 
848	 0.13289116771629 
849	 0.132491130368415 
850	 0.13206712938263 
851	 0.132009061913541 
852	 0.132267213825238 
853	 0.132399562049729 
854	 0.131992722532681 
855	 0.132308373548314 
856	 0.132927436972029 
857	 0.132168074737848 
858	 0.13155460821285 
859	 0.13147285148686 
860	 0.130926309474715 
861	 0.130847971095287 
862	 0.132036378670756 
863	 0.132257265223646 
864	 0.132083114580837 
865	 0.133972644762126 
866	 0.135174164681449 
867	 0.134802450438564 
868	 0.133549694762039 
869	 0.13286397354731 
870	 0.133779539504777 
871	 0.134760297379753 
872	 0.135244185364136 
873	 0.134682392700642 
874	 0.13424826287585 
875	 0.134156207177572 
876	 0.133402505966354 
877	 0.133458561193428 
878	 0.135037838860555 
879	 0.134900379292932 
880	 0.134175864192263 
881	 0.135438727649865 
882	 0.135855418376273 
883	 0.134958477586809 
884	 0.133745408208306 
885	 0.133377589366129 
886	 0.134466558631864 
887	 0.136199230473754 
888	 0.13708168741184 
889	 0.135427374524342 
890	 0.135522093184913 
891	 0.137123322504949 
892	 0.135918860134798 
893	 0.135187467835093 
894	 0.136151235973166 
895	 0.13591326905444 
896	 0.136290380755756 
897	 0.13936085996498 
898	 0.139750825770236 
899	 0.138107743515099 
900	 0.139214514716722 
901	 0.139075940803336 
902	 0.137087873617295 
903	 0.13609634775545 
904	 0.136677576038846 
905	 0.138773978192199 
906	 0.138127805867354 
907	 0.136551634715796 
908	 0.138487970535548 
909	 0.138930368477655 
910	 0.137668376541087 
911	 0.139748234420013 
912	 0.141254575527818 
913	 0.1403672618319 
914	 0.141412066218195 
915	 0.141877948935316 
916	 0.138473814247751 
917	 0.139223242895157 
918	 0.142377764683743 
919	 0.138080744315438 
920	 0.137805207903698 
921	 0.143215641541903 
922	 0.14094993949539 
923	 0.137962146303818 
924	 0.140518604771309 
925	 0.139201993118521 
926	 0.13600164541341 
927	 0.13878896481558 
928	 0.141670141901082 
929	 0.142025944804459 
930	 0.137671238886897 
931	 0.135177910362259 
932	 0.13925566599281 
933	 0.137584326924115 
934	 0.133879503765151 
935	 0.136335557644872 
936	 0.142423076665956 
937	 0.147600658045042 
938	 0.143015533089298 
939	 0.135562196935555 
940	 0.130419936997592 
941	 0.139644175782698 
942	 0.145158762481025 
943	 0.136017707331555 
944	 0.139569452517954 
945	 0.147250272815572 
946	 0.14026012498413 
947	 0.135813916517319 
948	 0.138089448410797 
949	 0.146245815824549 
950	 0.148094413972096 
951	 0.140628028885738 
952	 0.140098283870912 
953	 0.140912927608805 
954	 0.137645331264313 
955	 0.13977884049002 
956	 0.145153317405602 
957	 0.147497913713764 
958	 0.146429795287819 
959	 0.142294585037315 
960	 0.135948324213498 
961	 0.133742789659726 
962	 0.138234897752675 
963	 0.145280736723422 
964	 0.149580568241799 
965	 0.146915906312431 
966	 0.142090190851315 
967	 0.138655780488166 
968	 0.141672061249523 
969	 0.139888731235752 
970	 0.133481319817717 
971	 0.135756814660789 
972	 0.138867608624597 
973	 0.138686208518497 
974	 0.138279804359918 
975	 0.140155035998089 
976	 0.146010766002575 
977	 0.143458238759741 
978	 0.136731016359487 
979	 0.140210495611331 
980	 0.142940126842353 
981	 0.143151886034107 
982	 0.147172213090497 
983	 0.147904965853571 
984	 0.142785451535732 
985	 0.14132298209012 
986	 0.143421068977847 
987	 0.147246331884872 
988	 0.142293278779511 
989	 0.134925899709138 
990	 0.141903714367765 
991	 0.143926868064176 
992	 0.139014117857578 
993	 0.141354441992947 
994	 0.143340693526692 
995	 0.141747996025967 
996	 0.141231356298568 
997	 0.141660281949925 
998	 0.142379945093089 
999	 0.140693106451975 
1000	 0.139864780691821 
1001	 0.14623182982065 
1002	 0.146325796050776 
1003	 0.140065776609834 
1004	 0.139563294000199 
1005	 0.140075860957813 
1006	 0.139243318426365 
1007	 0.134011733995641 
1008	 0.132679141143399 
1009	 0.140337466469077 
1010	 0.14348479761977 
1011	 0.140826624126511 
1012	 0.133663716972718 
1013	 0.136142367202171 
1014	 0.144446372986387 
1015	 0.141559146627316 
1016	 0.13854654762843 
1017	 0.138705998404722 
1018	 0.140453201061943 
1019	 0.144399987799399 
1020	 0.14872115904958 
1021	 0.140050481618762 
1022	 0.132191426789056 
1023	 0.13827525504384 
1024	 0.140228720942557 
1025	 0.139360206136735 
1026	 0.142648016731999 
1027	 0.144412323625871 
1028	 0.143658196297283 
1029	 0.142317940235054 
1030	 0.136881050059306 
1031	 0.129756879413559 
1032	 0.136291965112738 
1033	 0.140667779363722 
1034	 0.135534555220531 
1035	 0.146244553588206 
1036	 0.156871907379171 
1037	 0.150367586766393 
1038	 0.147038397534145 
1039	 0.147544095173654 
1040	 0.146440438578231 
1041	 0.144985933088288 
1042	 0.145899684193558 
1043	 0.158142731707097 
1044	 0.157848865691835 
1045	 0.143267568663437 
1046	 0.149269097142692 
1047	 0.155048684175192 
1048	 0.149551227789801 
1049	 0.149818332130202 
1050	 0.14300458788399 
1051	 0.119748860340972 
1052	 0.124664238737074 
1053	 0.14041413087018 
1054	 0.129625079773319 
1055	 0.127818774348217 
1056	 0.140088505527156 
1057	 0.162235867769522 
1058	 0.145463522036362 
1059	 9.79762078647127E-02 
1060	 0.13151276999535 
1061	 0.141812650821048 
1062	 0.100513763511113 
1063	 0.119956437960855 
1064	 0.151674592630302 
1065	 0.157800995664443 
1066	 0.178088950411677 
1067	 0.186472971512472 
1068	 0.155121018246203 
1069	 0.132945433580386 
1070	 0.129881870452213 
1071	 0.142999953043869 
1072	 0.144576577659946 
1073	 0.129169249411007 
1074	 0.100784410358844 
1075	 9.03418330656209E-02 
