Wavelength	A00208.asd
325	 3.16077630267455E-02 
326	 3.67176123924964E-02 
327	 3.56618853653934E-02 
328	 3.93619490212294E-02 
329	 4.22466872978326E-02 
330	 4.18700294587966E-02 
331	 3.64455533880199E-02 
332	 3.15264091932841E-02 
333	 3.25395310118955E-02 
334	 3.78987554637177E-02 
335	 4.30601841848765E-02 
336	 3.83421200649374E-02 
337	 3.72074121808863E-02 
338	 4.19162757077045E-02 
339	 4.26623409196958E-02 
340	 3.99546328874772E-02 
341	 3.52593697162578E-02 
342	 3.52827563484172E-02 
343	 3.85926535162817E-02 
344	 4.10447432843345E-02 
345	 3.98234163753084E-02 
346	 3.57547720143954E-02 
347	 3.50085874384004E-02 
348	 3.67968216461857E-02 
349	 3.98616465234103E-02 
350	 4.01691044299662E-02 
351	 3.85629783289896E-02 
352	 3.71247435970661E-02 
353	 3.66709397758239E-02 
354	 3.73913518143722E-02 
355	 3.90473476266579E-02 
356	 3.95058225501636E-02 
357	 3.77703661921297E-02 
358	 3.62932791290204E-02 
359	 3.66463362467127E-02 
360	 4.06640323011599E-02 
361	 4.08489674329713E-02 
362	 0.037809884901828 
363	 4.05193158375845E-02 
364	 4.13792673416243E-02 
365	 3.73764114447606E-02 
366	 3.66910535901978E-02 
367	 3.76037974536759E-02 
368	 3.66936844353457E-02 
369	 3.72377162607474E-02 
370	 3.88153785723816E-02 
371	 3.74480650743809E-02 
372	 3.71628391374235E-02 
373	 3.96570599833027E-02 
374	 4.03264622183819E-02 
375	 4.02420261729666E-02 
376	 4.15213382101435E-02 
377	 4.07422458580565E-02 
378	 3.81764128188165E-02 
379	 3.69713306468633E-02 
380	 3.75158874699445E-02 
381	 3.94515118252384E-02 
382	 3.88179931726404E-02 
383	 0.037586494488481 
384	 3.88375132624321E-02 
385	 4.08822547141525E-02 
386	 4.20982385518511E-02 
387	 0.039068178938396 
388	 3.70551943734882E-02 
389	 0.038019555713512 
390	 3.78672761764575E-02 
391	 3.81121106915375E-02 
392	 4.08116647644225E-02 
393	 4.09434899277949E-02 
394	 3.88005023734507E-02 
395	 3.83590295506499E-02 
396	 0.03827614778993 
397	 0.038000747316322 
398	 3.75725187523424E-02 
399	 3.72172375379421E-02 
400	 3.71399625646559E-02 
401	 3.70706646230967E-02 
402	 0.03722768901671 
403	 3.84939077434772E-02 
404	 3.89388853389998E-02 
405	 3.80573320483979E-02 
406	 3.80956465892822E-02 
407	 3.88002744664172E-02 
408	 3.95792321969371E-02 
409	 3.95998309832135E-02 
410	 3.89469286912803E-02 
411	 0.038343021834072 
412	 3.83381158733474E-02 
413	 3.90668800574028E-02 
414	 3.96105109199177E-02 
415	 0.039634185204357 
416	 3.88662966094733E-02 
417	 3.83378775525046E-02 
418	 3.83564737259542E-02 
419	 3.90166596580767E-02 
420	 3.95180367896323E-02 
421	 3.94560023931098E-02 
422	 3.93883266149836E-02 
423	 3.95371712838701E-02 
424	 0.040134121730688 
425	 4.01436921114581E-02 
426	 3.97137098603548E-02 
427	 4.03998838109992E-02 
428	 4.11752036099355E-02 
429	 4.13445205690101E-02 
430	 4.11794874453553E-02 
431	 4.08587634604889E-02 
432	 4.06280729706375E-02 
433	 4.02718129356016E-02 
434	 3.98939249633187E-02 
435	 3.99687706019126E-02 
436	 4.01994903003328E-02 
437	 4.04044880944059E-02 
438	 4.09909862922029E-02 
439	 0.041403945422926 
440	 4.04961244057691E-02 
441	 4.00513238869015E-02 
442	 4.04399429381559E-02 
443	 4.06584512738118E-02 
444	 0.0408000113467 
445	 4.09874563787804E-02 
446	 4.15147311475378E-02 
447	 4.20789646907741E-02 
448	 4.19054835026607E-02 
449	 4.17398252556538E-02 
450	 4.18285221839825E-02 
451	 4.19924895060983E-02 
452	 4.22071663701598E-02 
453	 4.24547378989503E-02 
454	 4.27348993087567E-02 
455	 4.30079792888013E-02 
456	 4.32186661705252E-02 
457	 4.32037900450279E-02 
458	 4.29755571608963E-02 
459	 0.043066717755649 
460	 4.30699186332798E-02 
461	 4.24775963163801E-02 
462	 4.23213264559681E-02 
463	 4.26139325043555E-02 
464	 4.26386979079746E-02 
465	 4.25216720552579E-02 
466	 4.24125236730825E-02 
467	 4.29991055420937E-02 
468	 4.36415173890504E-02 
469	 4.33177277858905E-02 
470	 4.31161190577658E-02 
471	 4.32319555297298E-02 
472	 4.32584344125709E-02 
473	 4.33276538626418E-02 
474	 4.34742750934254E-02 
475	 4.32351877326132E-02 
476	 0.043041393820178 
477	 0.043801343353279 
478	 4.37137615687129E-02 
479	 4.27308320450189E-02 
480	 4.29295118916967E-02 
481	 4.35675254581948E-02 
482	 4.39742452115299E-02 
483	 0.044079939798096 
484	 4.40323611341498E-02 
485	 4.42829458830196E-02 
486	 4.43469876125564E-02 
487	 4.41248478503795E-02 
488	 4.40823761140655E-02 
489	 4.40171240681035E-02 
490	 4.37165601852409E-02 
491	 4.35784768513681E-02 
492	 4.37603176910212E-02 
493	 4.45425873057771E-02 
494	 4.49622634689844E-02 
495	 4.47012381218492E-02 
496	 4.47606508455238E-02 
497	 0.04501009194611 
498	 4.51560143439459E-02 
499	 4.51040561757333E-02 
500	 4.49799398730535E-02 
501	 4.53043025646204E-02 
502	 4.56558912184463E-02 
503	 0.045781732597268 
504	 4.58532281034849E-02 
505	 4.60051966938961E-02 
506	 4.64175680689495E-02 
507	 4.68863767895429E-02 
508	 4.72957308740583E-02 
509	 4.74747179604428E-02 
510	 4.75807776656579E-02 
511	 4.77692675248119E-02 
512	 4.82738518782471E-02 
513	 4.88955436854013E-02 
514	 4.90749156515389E-02 
515	 0.04926937619013 
516	 4.96366470454195E-02 
517	 5.00741979908189E-02 
518	 5.05210133955862E-02 
519	 5.09135481035304E-02 
520	 5.11994943056218E-02 
521	 5.15640718378666E-02 
522	 5.26208923802965E-02 
523	 0.053258090582616 
524	 5.31232343198032E-02 
525	 5.35867405661122E-02 
526	 5.43255136911208E-02 
527	 5.46736824074258E-02 
528	 5.49463365946524E-02 
529	 5.52530116536258E-02 
530	 5.57232987363096E-02 
531	 5.61762186181909E-02 
532	 5.65019453969505E-02 
533	 0.056912668687974 
534	 5.72334084959566E-02 
535	 5.70241835751571E-02 
536	 5.71303467455345E-02 
537	 5.77428726324017E-02 
538	 5.83555882229114E-02 
539	 5.88019099009945E-02 
540	 0.058956881110489 
541	 5.91403110072549E-02 
542	 5.93768107866185E-02 
543	 5.95216093651638E-02 
544	 5.97229097798832E-02 
545	 6.00373514948276E-02 
546	 6.04033078147586E-02 
547	 6.07176478340177E-02 
548	 6.08589101302734E-02 
549	 6.09482266944919E-02 
550	 6.11144015112961E-02 
551	 6.16866576212079E-02 
552	 6.21462730503041E-02 
553	 6.21914050407225E-02 
554	 6.22866498688371E-02 
555	 6.24711480639322E-02 
556	 6.26978173044429E-02 
557	 6.28544219804307E-02 
558	 6.28959756474196E-02 
559	 6.28281149846585E-02 
560	 6.27832323054853E-02 
561	 6.28854335026631E-02 
562	 6.31620627905702E-02 
563	 6.34451208843854E-02 
564	 6.32988254029199E-02 
565	 6.31561500374584E-02 
566	 6.31568624747513E-02 
567	 6.29838186432592E-02 
568	 6.27125416007148E-02 
569	 0.062472432150644 
570	 6.23776328138936E-02 
571	 6.24723829997085E-02 
572	 0.062863064979268 
573	 6.28329485677444E-02 
574	 6.20793369408726E-02 
575	 6.20167468589245E-02 
576	 6.24124300103073E-02 
577	 6.25079732408134E-02 
578	 6.21325506412297E-02 
579	 6.13994768322141E-02 
580	 6.11254199637089E-02 
581	 0.061104424606071 
582	 6.11207597840493E-02 
583	 6.12333465321492E-02 
584	 6.13592972119305E-02 
585	 0.061294695674119 
586	 6.12742648797068E-02 
587	 6.13128960946409E-02 
588	 6.09046016054722E-02 
589	 6.03736255950031E-02 
590	 0.060209953135412 
591	 0.060152324302901 
592	 6.01161176148227E-02 
593	 6.00210035952439E-02 
594	 0.059994680994642 
595	 6.01142804790297E-02 
596	 6.03397241538349E-02 
597	 6.06234583049239E-02 
598	 6.09435659070359E-02 
599	 6.07265649390986E-02 
600	 6.00326440870495E-02 
601	 5.99469755679289E-02 
602	 6.00674136822629E-02 
603	 0.060004661418857 
604	 5.99731150534618E-02 
605	 5.99438038530426E-02 
606	 5.97621889539886E-02 
607	 5.95987903395863E-02 
608	 5.95346415641705E-02 
609	 5.95915345750812E-02 
610	 5.96238823229727E-02 
611	 5.94519425977029E-02 
612	 5.93405915389612E-02 
613	 5.92621157697393E-02 
614	 5.88725885284145E-02 
615	 5.85784402162059E-02 
616	 5.85935742633817E-02 
617	 5.84779594796906E-02 
618	 0.058196482900441 
619	 0.057764448789754 
620	 5.77259954099563E-02 
621	 5.80552506632409E-02 
622	 5.78796669566991E-02 
623	 5.74827923099667E-02 
624	 5.71779263112792E-02 
625	 5.72544892877488E-02 
626	 5.75676696069285E-02 
627	 0.057619904904404 
628	 5.74972315921672E-02 
629	 5.72873058971662E-02 
630	 5.73825698176899E-02 
631	 5.75537972148305E-02 
632	 5.74767778919753E-02 
633	 5.78020426490105E-02 
634	 5.82563506901422E-02 
635	 5.73971413726483E-02 
636	 5.68395984017046E-02 
637	 5.73936441135121E-02 
638	 5.72133168041237E-02 
639	 5.66198133368058E-02 
640	 5.66297252043169E-02 
641	 5.65131620907689E-02 
642	 5.61275756979705E-02 
643	 5.57531705246253E-02 
644	 5.56525159002663E-02 
645	 5.59917612847907E-02 
646	 5.59337245295285E-02 
647	 5.54402154938273E-02 
648	 0.054808108268517 
649	 5.44914295987032E-02 
650	 5.45818081744124E-02 
651	 5.42518959362688E-02 
652	 5.38257284275835E-02 
653	 5.37623158857023E-02 
654	 5.37350252061625E-02 
655	 5.35950104877928E-02 
656	 5.30913354415299E-02 
657	 5.28161902668594E-02 
658	 5.29800043336813E-02 
659	 5.23343325614652E-02 
660	 5.14635504879776E-02 
661	 5.15696790811929E-02 
662	 5.09743600248769E-02 
663	 0.049653600681397 
664	 4.95284435779416E-02 
665	 4.99974552136299E-02 
666	 5.04098256872006E-02 
667	 4.97893328486326E-02 
668	 4.87022425352241E-02 
669	 4.90258318250357E-02 
670	 4.91201933451752E-02 
671	 4.85795809733766E-02 
672	 4.86556942315117E-02 
673	 0.048869356393862 
674	 4.85871167650203E-02 
675	 4.87155336355743E-02 
676	 4.91910767621008E-02 
677	 4.91918030640111E-02 
678	 4.91750894603621E-02 
679	 4.93983757768396E-02 
680	 4.98873214019429E-02 
681	 5.03337934272381E-02 
682	 5.02266582522195E-02 
683	 5.07242918777264E-02 
684	 5.18178095272995E-02 
685	 5.20364216616646E-02 
686	 0.052436650221445 
687	 0.053892607655465 
688	 5.48534774062237E-02 
689	 5.54692476365526E-02 
690	 5.69086784317334E-02 
691	 5.83940772128418E-02 
692	 5.97437857932725E-02 
693	 6.10760694907311E-02 
694	 6.27392042492805E-02 
695	 6.49765905146022E-02 
696	 6.70054625570311E-02 
697	 6.87035339868662E-02 
698	 7.02503753937995E-02 
699	 7.18818104423801E-02 
700	 7.37092088982866E-02 
701	 7.56593174860215E-02 
702	 7.76880025921801E-02 
703	 7.97598099383907E-02 
704	 8.13699730651011E-02 
705	 8.25633358868275E-02 
706	 8.38800786406722E-02 
707	 8.51685150551057E-02 
708	 8.63567977210632E-02 
709	 0.087675965497254 
710	 8.90450083100462E-02 
711	 9.02892167385744E-02 
712	 9.12796666122616E-02 
713	 9.21106501719923E-02 
714	 9.34487307062853E-02 
715	 9.47126720048008E-02 
716	 9.54156848216664E-02 
717	 9.62759564271483E-02 
718	 0.097334616328319 
719	 9.80487274799821E-02 
720	 9.87634610731172E-02 
721	 9.94896595246295E-02 
722	 9.98472652636058E-02 
723	 9.99608447659603E-02 
724	 9.99522622471854E-02 
725	 0.101117106248629 
726	 0.10292311406916 
727	 0.103017994906776 
728	 0.103016043402984 
729	 0.103636720505876 
730	 0.103854035358376 
731	 0.104071776633764 
732	 0.104977852142808 
733	 0.10524663164011 
734	 0.104933352726407 
735	 0.105218853691909 
736	 0.105816928845479 
737	 0.106471223355794 
738	 0.106776333857056 
739	 0.106902644227555 
740	 0.10730469954803 
741	 0.107528173305679 
742	 0.107519896960291 
743	 0.107652271826229 
744	 0.107808288594953 
745	 0.107903597741724 
746	 0.108275482207113 
747	 0.108785235526109 
748	 0.109000570423597 
749	 0.10908357471216 
750	 0.109103188624631 
751	 0.109143430165368 
752	 0.109229969406853 
753	 0.109373899311952 
754	 0.109389924759924 
755	 0.10939946829819 
756	 0.109931779219473 
757	 0.110093492731757 
758	 0.109571152679983 
759	 0.109525568197025 
760	 0.110236941171903 
761	 0.111336255622436 
762	 0.111750411917861 
763	 0.111627573813066 
764	 0.111995451103694 
765	 0.112326954973441 
766	 0.112415009330181 
767	 0.11217732135696 
768	 0.112036176122774 
769	 0.112523637563794 
770	 0.112337439293726 
771	 0.111551557101717 
772	 0.111608715823998 
773	 0.11200846842785 
774	 0.112374816195778 
775	 0.112552493079504 
776	 0.112627317548977 
777	 0.112822905543794 
778	 0.112990693805601 
779	 0.113059237020695 
780	 0.11287008006872 
781	 0.112887424362579 
782	 0.113417060879842 
783	 0.113548922334156 
784	 0.113498756484537 
785	 0.114084668563712 
786	 0.114428412695721 
787	 0.114303926111696 
788	 0.11414445859518 
789	 0.113978361317851 
790	 0.113851071679817 
791	 0.114180984302509 
792	 0.114747366966387 
793	 0.114829593873255 
794	 0.114974882063729 
795	 0.115244549995063 
796	 0.114939089732335 
797	 0.114679727169435 
798	 0.115078416359681 
799	 0.115138124873938 
800	 0.114994642328527 
801	 0.115659854166848 
802	 0.115723644052529 
803	 0.114911944707977 
804	 0.114946104700028 
805	 0.115515434236273 
806	 0.116098876717259 
807	 0.115846162858108 
808	 0.115225273494049 
809	 0.116191699503577 
810	 0.116950402607004 
811	 0.116746523781021 
812	 0.1160910754816 
813	 0.115941798466334 
814	 0.117450474754504 
815	 0.118578009112552 
816	 0.118741106631381 
817	 0.118137698106524 
818	 0.117360698292492 
819	 0.116915475192824 
820	 0.117491333729218 
821	 0.118410641271827 
822	 0.118810219917085 
823	 0.118523684308215 
824	 0.118013126956287 
825	 0.118723532321541 
826	 0.119209783626412 
827	 0.119018164309867 
828	 0.119435550816457 
829	 0.119670134095804 
830	 0.118698368728158 
831	 0.11879754055522 
832	 0.119826260814598 
833	 0.11989272468468 
834	 0.119853378983607 
835	 0.119988574870164 
836	 0.119882053375633 
837	 0.119566769544334 
838	 0.119129062417233 
839	 0.119014895624196 
840	 0.119250208418949 
841	 0.119574734952382 
842	 0.120052938134623 
843	 0.12057309028805 
844	 0.120552751190047 
845	 0.120159116925175 
846	 0.119674372579155 
847	 0.119827879640272 
848	 0.120472855452082 
849	 0.120721682437626 
850	 0.120823441971547 
851	 0.120846580993966 
852	 0.120781145158066 
853	 0.120609936847532 
854	 0.120337925065328 
855	 0.120253622853157 
856	 0.120429960295067 
857	 0.121003209096753 
858	 0.120918914002581 
859	 0.120067605044519 
860	 0.11987645574603 
861	 0.12022109788767 
862	 0.120855854161627 
863	 0.121156625953869 
864	 0.121221993053528 
865	 0.121588309510241 
866	 0.122204393439619 
867	 0.122830581915133 
868	 0.122373249589897 
869	 0.122243565416827 
870	 0.123438779720444 
871	 0.123685216137791 
872	 0.123247041333307 
873	 0.123335086888224 
874	 0.123558261969303 
875	 0.123456012043883 
876	 0.121364360274488 
877	 0.120372493367445 
878	 0.122327513052985 
879	 0.123275371980735 
880	 0.123084007032745 
881	 0.122498398757214 
882	 0.122169456842768 
883	 0.122316612893969 
884	 0.122872646731735 
885	 0.123032870729659 
886	 0.122478665579414 
887	 0.122403354340463 
888	 0.122951382741602 
889	 0.124085132000963 
890	 0.124004248334049 
891	 0.123010939775275 
892	 0.123552970065482 
893	 0.123967771315474 
894	 0.123740206244211 
895	 0.124602439266317 
896	 0.126123529676334 
897	 0.127465461978898 
898	 0.126788989765996 
899	 0.124842737674271 
900	 0.124551827190051 
901	 0.124254470954302 
902	 0.123543616405819 
903	 0.122815660943559 
904	 0.122721167682225 
905	 0.123709747711531 
906	 0.125271704569173 
907	 0.12654223513211 
908	 0.126171654970011 
909	 0.126337900108184 
910	 0.127193908645563 
911	 0.126525339567329 
912	 0.126648371464459 
913	 0.128371635021215 
914	 0.12769066263419 
915	 0.126154307798963 
916	 0.126163656355306 
917	 0.127845619924509 
918	 0.129489279756172 
919	 0.126310097594172 
920	 0.124836205904695 
921	 0.12632023473536 
922	 0.123904241826743 
923	 0.122132109714202 
924	 0.124901404207821 
925	 0.124486816187634 
926	 0.122434903331962 
927	 0.125225874104362 
928	 0.125742804549099 
929	 0.12267722032174 
930	 0.123310087112903 
931	 0.123718955566344 
932	 0.120715377543685 
933	 0.115864068893853 
934	 0.115197734629679 
935	 0.125889211826678 
936	 0.131976976329085 
937	 0.131204858438904 
938	 0.129451390008805 
939	 0.125885014455129 
940	 0.122395244778399 
941	 0.126926423632773 
942	 0.129587562574062 
943	 0.124295655582773 
944	 0.125425967042913 
945	 0.129065874867053 
946	 0.126157325772217 
947	 0.125444582467243 
948	 0.129188550812924 
949	 0.13856479973451 
950	 0.138859230559516 
951	 0.127106211654645 
952	 0.125402341076172 
953	 0.125642065230793 
954	 0.120484239957837 
955	 0.130165965164744 
956	 0.143832241751418 
957	 0.136984323851046 
958	 0.129975345232348 
959	 0.126956023857414 
960	 0.121336335409561 
961	 0.123677069782245 
962	 0.135414658390217 
963	 0.13649889946235 
964	 0.134614013303963 
965	 0.137921269791573 
966	 0.134383626529499 
967	 0.127468699024269 
968	 0.127591513774404 
969	 0.124548162984323 
970	 0.118590080527561 
971	 0.1207148824668 
972	 0.126259782201108 
973	 0.131771787695885 
974	 0.13379722701312 
975	 0.134460559502729 
976	 0.136223811844791 
977	 0.132036195129355 
978	 0.125130299896121 
979	 0.125096982285382 
980	 0.126820375122613 
981	 0.128413779087856 
982	 0.128712907712985 
983	 0.129271902752409 
984	 0.130899984610865 
985	 0.133127343303931 
986	 0.134242074135092 
987	 0.132698998364789 
988	 0.131023480466582 
989	 0.130181605102031 
990	 0.131188376200567 
991	 0.128695677651608 
992	 0.124264373543209 
993	 0.129563400563725 
994	 0.133126319068077 
995	 0.130163051067922 
996	 0.129430047961496 
997	 0.130269579167119 
998	 0.131114832195353 
999	 0.128832827363755 
1000	 0.126001881679873 
1001	 0.127962123371216 
1002	 0.126645124394231 
1003	 0.123124528547985 
1004	 0.128379185272151 
1005	 0.131275320147607 
1006	 0.128282771244783 
1007	 0.126354224745299 
1008	 0.126239110165806 
1009	 0.127976357963321 
1010	 0.129100568182045 
1011	 0.128832734452941 
1012	 0.126759199094963 
1013	 0.126714170714742 
1014	 0.12798531120451 
1015	 0.126653844176724 
1016	 0.125466151785011 
1017	 0.124972248683773 
1018	 0.123107534472328 
1019	 0.124752890176165 
1020	 0.131744081133077 
1021	 0.137801085003073 
1022	 0.13929239818198 
1023	 0.13437748349392 
1024	 0.133047334017543 
1025	 0.131300780330495 
1026	 0.119844411860087 
1027	 0.116416424042156 
1028	 0.121999772695208 
1029	 0.125309400832478 
1030	 0.125786324507563 
1031	 0.12420562813654 
1032	 0.128129092200026 
1033	 0.127672587772596 
1034	 0.12001991082348 
1035	 0.130600360114905 
1036	 0.141705332794115 
1037	 0.134151149588488 
1038	 0.125682832054615 
1039	 0.121245247806591 
1040	 0.123039059391461 
1041	 0.137193308456195 
1042	 0.153487714502836 
1043	 0.1426109469626 
1044	 0.127974086366653 
1045	 0.123579663339902 
1046	 0.146240244381704 
1047	 0.150166839553621 
1048	 0.115513614617255 
1049	 0.110168242053424 
1050	 0.116050644144793 
1051	 0.11114405455988 
1052	 0.117201640593891 
1053	 0.124954024340668 
1054	 0.116644020306981 
1055	 0.131463202976726 
1056	 0.158627710555754 
1057	 0.155237720008424 
1058	 0.135953578466594 
1059	 0.115316299794609 
1060	 0.139505663592894 
1061	 0.161863942675765 
1062	 0.160646808896431 
1063	 0.132827968748883 
1064	 0.109397957874435 
1065	 0.113420113582878 
1066	 0.136523754021022 
1067	 0.153267485416189 
1068	 0.141043362883892 
1069	 0.14061725895197 
1070	 0.148560199503908 
1071	 0.145270529096737 
1072	 0.142056255053641 
1073	 0.128070814076773 
1074	 6.68739080446998E-02 
1075	 5.66333038727889E-02 
