Wavelength	A00252.asd
325	 3.93868282614099E-02 
326	 4.18078214716026E-02 
327	 4.30686815832153E-02 
328	 0.047318037742081 
329	 4.99019971007476E-02 
330	 4.93372793556321E-02 
331	 4.74435234903812E-02 
332	 0.046158467805826 
333	 4.71093929691099E-02 
334	 4.81780123322039E-02 
335	 4.87361587938017E-02 
336	 4.78981617841041E-02 
337	 4.97467404462667E-02 
338	 5.36229556209223E-02 
339	 5.13339120677167E-02 
340	 0.046131987322536 
341	 4.15527887063636E-02 
342	 0.042483027769307 
343	 4.72467510656076E-02 
344	 5.23731352943447E-02 
345	 5.00339061424726E-02 
346	 4.17814895109869E-02 
347	 4.17033375285462E-02 
348	 4.59339036889615E-02 
349	 5.07004608969118E-02 
350	 5.05781966050566E-02 
351	 4.75623388511834E-02 
352	 4.57922942061979E-02 
353	 4.50234519074768E-02 
354	 4.52597898838567E-02 
355	 4.64489415889582E-02 
356	 0.046274447842164 
357	 0.04404237023544 
358	 4.59388391216713E-02 
359	 4.90364438999854E-02 
360	 0.048002361833776 
361	 4.61618061291115E-02 
362	 4.49405164909566E-02 
363	 4.61704272003228E-02 
364	 4.68747416995092E-02 
365	 4.58478543988697E-02 
366	 4.65848537513029E-02 
367	 4.74622723658322E-02 
368	 4.58853612402073E-02 
369	 4.53971948153541E-02 
370	 0.046346186782491 
371	 4.69736236031085E-02 
372	 4.75169569959575E-02 
373	 4.79495235577642E-02 
374	 0.047494186185059 
375	 4.70723770306699E-02 
376	 0.047983091414746 
377	 4.79006243747647E-02 
378	 4.69140494984817E-02 
379	 0.047243166969535 
380	 4.71883992583096E-02 
381	 4.62634743549808E-02 
382	 4.72947274267713E-02 
383	 4.80144247310146E-02 
384	 4.52155696485785E-02 
385	 4.71047567950761E-02 
386	 0.051850321150721 
387	 0.047957962290768 
388	 4.50305249374731E-02 
389	 4.67017304877021E-02 
390	 4.69357540304417E-02 
391	 4.70820115116032E-02 
392	 4.92183905320978E-02 
393	 4.86526440427257E-02 
394	 0.045923516280844 
395	 4.53245955070553E-02 
396	 4.55161262081284E-02 
397	 4.57232804905109E-02 
398	 4.50571645471568E-02 
399	 4.40377362694007E-02 
400	 4.32610077128155E-02 
401	 4.39969226090334E-02 
402	 4.56060619212126E-02 
403	 4.60932341487361E-02 
404	 4.63742039020758E-02 
405	 4.67698026534903E-02 
406	 0.046930286703989 
407	 0.046842821416994 
408	 4.65312610102538E-02 
409	 4.63032401499211E-02 
410	 4.61728368591907E-02 
411	 4.57834893896747E-02 
412	 4.60963855845074E-02 
413	 4.73003349957983E-02 
414	 4.77305468849693E-02 
415	 4.73100905112963E-02 
416	 4.61782979996225E-02 
417	 4.58755231397724E-02 
418	 4.65037439219558E-02 
419	 4.71633054501195E-02 
420	 4.73786186283576E-02 
421	 4.69707715440006E-02 
422	 4.67447716875601E-02 
423	 4.69156102217536E-02 
424	 4.76420749173433E-02 
425	 4.79837569132739E-02 
426	 4.78885236783107E-02 
427	 4.82095011991665E-02 
428	 4.83847845116983E-02 
429	 4.80926045089611E-02 
430	 0.047812198458685 
431	 4.77224718828112E-02 
432	 0.048015393113244 
433	 0.047883560722509 
434	 4.73550431029318E-02 
435	 4.73009225311313E-02 
436	 4.75103248634716E-02 
437	 4.78272359460827E-02 
438	 4.83240896305653E-02 
439	 4.86187532366649E-02 
440	 4.79741519619692E-02 
441	 4.77723792184622E-02 
442	 4.82539344020577E-02 
443	 4.84366275910275E-02 
444	 4.85766178247456E-02 
445	 4.89004379371233E-02 
446	 4.93407567992506E-02 
447	 4.96046870157402E-02 
448	 4.90010384754685E-02 
449	 4.88541685915031E-02 
450	 0.049424823757872 
451	 4.94957941894145E-02 
452	 4.94470443322125E-02 
453	 4.97076440243893E-02 
454	 4.99444082019468E-02 
455	 0.050066934198 
456	 5.00293864723335E-02 
457	 4.98404879012826E-02 
458	 4.96119661667113E-02 
459	 4.98702411451374E-02 
460	 5.02848510753807E-02 
461	 5.04140550571751E-02 
462	 5.03534744483255E-02 
463	 5.01786133781289E-02 
464	 5.00594740957412E-02 
465	 4.99569117743769E-02 
466	 4.99103287233786E-02 
467	 5.02804036096811E-02 
468	 5.07021445434359E-02 
469	 5.06023178886282E-02 
470	 5.05315565816281E-02 
471	 5.06365020586808E-02 
472	 0.050947767491992 
473	 5.09633022151262E-02 
474	 5.04404211197239E-02 
475	 5.01261329798504E-02 
476	 5.02044168257326E-02 
477	 5.08469556110485E-02 
478	 5.07535944617931E-02 
479	 0.049954294473561 
480	 5.02951435117366E-02 
481	 5.09546619233508E-02 
482	 5.12308883360114E-02 
483	 5.14643906426722E-02 
484	 5.15854493135979E-02 
485	 5.13177856627061E-02 
486	 5.10315982307724E-02 
487	 0.050935694610986 
488	 0.051226978027505 
489	 5.15348281472006E-02 
490	 0.051480355893167 
491	 5.11166955421253E-02 
492	 5.08711484809521E-02 
493	 5.19771846670086E-02 
494	 5.23762736790526E-02 
495	 5.14798199445313E-02 
496	 5.17871809237247E-02 
497	 5.24040385981973E-02 
498	 5.18817538713654E-02 
499	 5.20149692361177E-02 
500	 5.27956197778329E-02 
501	 5.26062960994357E-02 
502	 5.26431686948105E-02 
503	 5.34600821150677E-02 
504	 0.053431552428921 
505	 5.30164255382014E-02 
506	 5.32923530204958E-02 
507	 5.38103835408136E-02 
508	 5.43698641280839E-02 
509	 5.46702528744261E-02 
510	 5.48696581837977E-02 
511	 5.51128190275375E-02 
512	 5.54384773402828E-02 
513	 5.58493850869676E-02 
514	 5.63375393946228E-02 
515	 0.056770551693488 
516	 0.057128504500743 
517	 5.76464388207848E-02 
518	 5.81213757512393E-02 
519	 5.83313316073678E-02 
520	 5.86587928955408E-02 
521	 5.90853589757902E-02 
522	 5.92892809735268E-02 
523	 5.97415433147813E-02 
524	 6.06019771791672E-02 
525	 6.14048046499662E-02 
526	 6.19516293831698E-02 
527	 6.20424428793833E-02 
528	 6.22561452864154E-02 
529	 6.27139977357996E-02 
530	 6.32295111404887E-02 
531	 6.37272647448031E-02 
532	 6.41617965897947E-02 
533	 6.46509194283015E-02 
534	 6.50646662012735E-02 
535	 6.50973885909032E-02 
536	 6.53158080031058E-02 
537	 6.58045582688659E-02 
538	 6.59936100759097E-02 
539	 6.61851739171136E-02 
540	 6.66716502307571E-02 
541	 6.69670975658909E-02 
542	 6.70617604267229E-02 
543	 6.71913514216393E-02 
544	 6.73245993762041E-02 
545	 6.74940071285433E-02 
546	 6.79215511827054E-02 
547	 6.83023706605092E-02 
548	 6.82237488846957E-02 
549	 0.068238190634234 
550	 6.85116645051454E-02 
551	 0.069081554736001 
552	 6.96689293082399E-02 
553	 0.070048444012799 
554	 7.00159281577718E-02 
555	 6.98256614991618E-02 
556	 6.99843512353103E-02 
557	 7.02403021886062E-02 
558	 7.04628572835522E-02 
559	 7.03995728822219E-02 
560	 7.03881333427182E-02 
561	 7.07178900366542E-02 
562	 7.08680659102687E-02 
563	 7.07702290759959E-02 
564	 7.04943637875732E-02 
565	 7.02768563555795E-02 
566	 7.02098600320334E-02 
567	 7.00657762028682E-02 
568	 6.99503156555889E-02 
569	 7.00193337030678E-02 
570	 7.00484961726843E-02 
571	 7.00105611793522E-02 
572	 7.00698212172499E-02 
573	 6.99146773402503E-02 
574	 6.94405759182242E-02 
575	 6.94649689464312E-02 
576	 6.97002421241154E-02 
577	 6.94105588588104E-02 
578	 6.91531504398324E-02 
579	 6.90551791216879E-02 
580	 6.88731954165072E-02 
581	 6.87413372240892E-02 
582	 6.87601473796598E-02 
583	 6.85610103969531E-02 
584	 6.82498190611976E-02 
585	 6.82554557929547E-02 
586	 6.84022184460972E-02 
587	 6.85364533807378E-02 
588	 6.81757976345963E-02 
589	 6.76820178879649E-02 
590	 6.75943646603944E-02 
591	 6.75914653786676E-02 
592	 6.75773870724741E-02 
593	 6.74855400494695E-02 
594	 6.74570610083997E-02 
595	 6.75836991325143E-02 
596	 6.79064654680489E-02 
597	 6.81857572605016E-02 
598	 6.80225610251127E-02 
599	 6.76265239366567E-02 
600	 6.71639287580127E-02 
601	 6.70165733590618E-02 
602	 6.69432314315382E-02 
603	 6.67367054771983E-02 
604	 6.67759539135281E-02 
605	 6.69402557544094E-02 
606	 6.67735016042214E-02 
607	 6.65710183645397E-02 
608	 6.64657689513981E-02 
609	 6.65292689745704E-02 
610	 6.65552332758036E-02 
611	 6.62832427589415E-02 
612	 6.62679587263965E-02 
613	 6.63890433434341E-02 
614	 6.57422428769679E-02 
615	 6.52442649667362E-02 
616	 6.53843125769038E-02 
617	 6.51775402645832E-02 
618	 6.48245833852523E-02 
619	 6.49046478926723E-02 
620	 6.49513689971338E-02 
621	 6.48543206787578E-02 
622	 6.48239650800548E-02 
623	 6.45739694822486E-02 
624	 6.39194226722499E-02 
625	 6.40077788803879E-02 
626	 6.45919326566962E-02 
627	 6.44624350155646E-02 
628	 6.43413922121004E-02 
629	 6.44482237945814E-02 
630	 6.43983648355858E-02 
631	 6.43208594841742E-02 
632	 6.44092129797081E-02 
633	 6.46452001593809E-02 
634	 6.48281957423309E-02 
635	 6.43263034489947E-02 
636	 0.063884171892747 
637	 6.39151925988736E-02 
638	 6.38706739640936E-02 
639	 6.36570087737565E-02 
640	 6.32285323152085E-02 
641	 6.29291485728899E-02 
642	 6.28319192905209E-02 
643	 6.27016713980589E-02 
644	 6.24824302626753E-02 
645	 6.21285652153838E-02 
646	 6.16250933922779E-02 
647	 0.061121662875642 
648	 6.09916586497659E-02 
649	 6.09139053880461E-02 
650	 6.07525671491166E-02 
651	 0.060549687377137 
652	 6.03036639272114E-02 
653	 6.00100890663929E-02 
654	 5.99414229609347E-02 
655	 0.060000998692467 
656	 5.96321067024801E-02 
657	 5.91730163946657E-02 
658	 0.058827078136037 
659	 5.83034168618174E-02 
660	 5.78046240223099E-02 
661	 5.77355188045616E-02 
662	 5.73208999603913E-02 
663	 5.65170934961865E-02 
664	 0.056120275809852 
665	 5.59807731338379E-02 
666	 5.59388450827419E-02 
667	 5.58982019152056E-02 
668	 5.58503033961305E-02 
669	 5.59278439855074E-02 
670	 0.055558079354488 
671	 5.47606185372099E-02 
672	 5.48969668196136E-02 
673	 0.055369877093557 
674	 5.53750166444751E-02 
675	 5.51292546341508E-02 
676	 5.48439601482277E-02 
677	 5.50015860644603E-02 
678	 5.53437691078599E-02 
679	 5.57188335282792E-02 
680	 5.61329429933342E-02 
681	 5.64476014202078E-02 
682	 5.64388600620319E-02 
683	 5.68655682291377E-02 
684	 0.057760113002052 
685	 5.83021350041988E-02 
686	 5.89672130329943E-02 
687	 6.01388803516488E-02 
688	 0.06109525958569 
689	 6.20223998377746E-02 
690	 6.38249105610247E-02 
691	 6.55714719848888E-02 
692	 6.70386653843363E-02 
693	 6.84755845291715E-02 
694	 7.02517142450415E-02 
695	 7.26202431217678E-02 
696	 7.48286757958861E-02 
697	 7.67431317210541E-02 
698	 7.85119921034491E-02 
699	 8.03549120912156E-02 
700	 8.23341667759917E-02 
701	 8.41541085452147E-02 
702	 8.60533718144248E-02 
703	 8.84054300354447E-02 
704	 9.02380009290997E-02 
705	 9.15733854538548E-02 
706	 9.33201031807792E-02 
707	 9.49590317816176E-02 
708	 9.61764299963231E-02 
709	 9.72896051629237E-02 
710	 9.85441351877568E-02 
711	 0.100333556462475 
712	 0.101847006707324 
713	 0.102876778531229 
714	 0.103831536408092 
715	 0.104747989134024 
716	 0.105690178526442 
717	 0.106417307967688 
718	 0.107160871910404 
719	 0.108726055892316 
720	 0.109812274942727 
721	 0.110118358490582 
722	 0.110816697961781 
723	 0.111544757522422 
724	 0.111763308890603 
725	 0.112100965867384 
726	 0.112741331889221 
727	 0.113914184068036 
728	 0.11461868142642 
729	 0.114486450635372 
730	 0.114861490986023 
731	 0.115539816858605 
732	 0.116024116137449 
733	 0.116345141767778 
734	 0.116586844882158 
735	 0.11700200454604 
736	 0.117454799541328 
737	 0.117835673021431 
738	 0.11814073307415 
739	 0.118432728659402 
740	 0.118834364327918 
741	 0.119160257314792 
742	 0.119357352530461 
743	 0.119491460410687 
744	 0.119565408369611 
745	 0.119589065718844 
746	 0.119626947769985 
747	 0.119740644283448 
748	 0.12005242146758 
749	 0.120330745410753 
750	 0.120471990261996 
751	 0.120414008215387 
752	 0.120551634402862 
753	 0.12126126881929 
754	 0.121561828611514 
755	 0.121423080080564 
756	 0.121411128513859 
757	 0.121204872337661 
758	 0.120729960007722 
759	 0.120533684730459 
760	 0.121444120205264 
761	 0.12450826888515 
762	 0.125337933740193 
763	 0.124107532128725 
764	 0.123966777682335 
765	 0.124164870404579 
766	 0.124352796602062 
767	 0.124229313113644 
768	 0.124004137204197 
769	 0.123932046708292 
770	 0.124034645795733 
771	 0.12418029746665 
772	 0.123777320516595 
773	 0.123710485230129 
774	 0.124473761947274 
775	 0.124847062095175 
776	 0.124925167471488 
777	 0.125224323221511 
778	 0.125424626948388 
779	 0.125444542004618 
780	 0.125288171281587 
781	 0.125295879271935 
782	 0.125689742901616 
783	 0.125803151864521 
784	 0.125763986965478 
785	 0.126108454202 
786	 0.126261021788321 
787	 0.126133551212308 
788	 0.12618176128907 
789	 0.126627152548257 
790	 0.12754766115534 
791	 0.127493634701549 
792	 0.126888923625978 
793	 0.127499172979426 
794	 0.127830224041278 
795	 0.127488276867572 
796	 0.127259015549398 
797	 0.127244674495768 
798	 0.12748013983938 
799	 0.127608213772345 
800	 0.127666401563983 
801	 0.127987733528871 
802	 0.128244515328853 
803	 0.128315223275923 
804	 0.128333509980642 
805	 0.128308014940591 
806	 0.128237830909522 
807	 0.128048015392572 
808	 0.127861798485117 
809	 0.128020778794985 
810	 0.128403644692326 
811	 0.128928530319075 
812	 0.129451396856931 
813	 0.129811220170123 
814	 0.129833566812717 
815	 0.13026586561163 
816	 0.131089973570686 
817	 0.13171427477029 
818	 0.131652488515611 
819	 0.130897805478581 
820	 0.130536097731609 
821	 0.130721874351906 
822	 0.131511440249329 
823	 0.132017839295272 
824	 0.132045249294778 
825	 0.1316791813641 
826	 0.132001670920741 
827	 0.133185555271337 
828	 0.133118613928518 
829	 0.132197965199439 
830	 0.131228152849721 
831	 0.1315453896682 
832	 0.132751171375099 
833	 0.132771143170437 
834	 0.132723500054248 
835	 0.133051599571257 
836	 0.13352294671169 
837	 0.133908810758218 
838	 0.133973291083049 
839	 0.133665504408812 
840	 0.133192682906163 
841	 0.133030818901705 
842	 0.133483948985687 
843	 0.134405518583271 
844	 0.134112151620754 
845	 0.13352030063158 
846	 0.133790722499971 
847	 0.133954635768035 
848	 0.133998260373601 
849	 0.134510147953278 
850	 0.134675054374805 
851	 0.134259835286403 
852	 0.133980926638102 
853	 0.134158823293621 
854	 0.135006859247045 
855	 0.13559794776721 
856	 0.135713799434636 
857	 0.135373433463557 
858	 0.134943888663422 
859	 0.13461375657506 
860	 0.134442116742676 
861	 0.134360837172873 
862	 0.13431923486029 
863	 0.134600812070871 
864	 0.135077838407491 
865	 0.135328884208663 
866	 0.135671079958463 
867	 0.136112237559491 
868	 0.136240029167672 
869	 0.136277056959068 
870	 0.1364231481092 
871	 0.136556474813439 
872	 0.136822127892647 
873	 0.137550173530076 
874	 0.13800828118556 
875	 0.137841603993926 
876	 0.136557996087872 
877	 0.135986280026592 
878	 0.137192055285736 
879	 0.137522642597938 
880	 0.137349252779318 
881	 0.137902148381631 
882	 0.138013477411069 
883	 0.137601819714144 
884	 0.137336823873604 
885	 0.13784769102979 
886	 0.139176070200455 
887	 0.13892687203295 
888	 0.138269645735702 
889	 0.139060551225129 
890	 0.139222672512867 
891	 0.138609866679852 
892	 0.138362495330995 
893	 0.137719337307756 
894	 0.136771355743161 
895	 0.137921183606794 
896	 0.140322678507955 
897	 0.142517069381945 
898	 0.142507433711733 
899	 0.141208504851085 
900	 0.142337453793761 
901	 0.141586070119482 
902	 0.138813084904389 
903	 0.139543533112007 
904	 0.141404065091896 
905	 0.142193082775732 
906	 0.140573900628262 
907	 0.138590194680475 
908	 0.140202542421026 
909	 0.142804437874178 
910	 0.144912518746155 
911	 0.144103397153708 
912	 0.143488013464384 
913	 0.144499863777397 
914	 0.143607908501912 
915	 0.141680043454703 
916	 0.140292658757896 
917	 0.141803643271938 
918	 0.14461204976416 
919	 0.143116171300654 
920	 0.142296067730604 
921	 0.14328363754876 
922	 0.14230080975194 
923	 0.141373308530844 
924	 0.142097774645674 
925	 0.13881218774216 
926	 0.134829031262855 
927	 0.139615330771532 
928	 0.144626102970777 
929	 0.145954319093406 
930	 0.14066493191086 
931	 0.137335632793798 
932	 0.142287045765956 
933	 0.140487215459586 
934	 0.137227204996603 
935	 0.143118085994947 
936	 0.14572201791986 
937	 0.144650156655147 
938	 0.147219463901679 
939	 0.146519848323789 
940	 0.143249795153818 
941	 0.151427006113443 
942	 0.151522640231882 
943	 0.132751571227649 
944	 0.133454957175653 
945	 0.145273080889529 
946	 0.146904785415697 
947	 0.146945664742092 
948	 0.147588111906677 
949	 0.15078387168052 
950	 0.150235938849262 
951	 0.145319095009051 
952	 0.148751277757289 
953	 0.15127713602868 
954	 0.144817021995861 
955	 0.143461376074621 
956	 0.146518386576458 
957	 0.148748267948667 
958	 0.147347983577127 
959	 0.142724662625843 
960	 0.138055180594207 
961	 0.139145869968633 
962	 0.146962414365913 
963	 0.15206347879287 
964	 0.15070554757809 
965	 0.141376315711006 
966	 0.142039571522918 
967	 0.148038699306674 
968	 0.144213115640996 
969	 0.138949984255751 
970	 0.135699793096077 
971	 0.138360463660927 
972	 0.141727693582329 
973	 0.142972669108787 
974	 0.144114844144241 
975	 0.146336088746994 
976	 0.150336970391419 
977	 0.149906462545651 
978	 0.146147701331664 
979	 0.143926681482614 
980	 0.144319161374062 
981	 0.146096870685874 
982	 0.142368052254166 
983	 0.142601786951475 
984	 0.150363765762017 
985	 0.15352715862571 
986	 0.153190390782847 
987	 0.151831043224 
988	 0.148636353211535 
989	 0.14620650611426 
990	 0.149735908057714 
991	 0.150168866036242 
992	 0.146495429281905 
993	 0.144866366312202 
994	 0.146839158409564 
995	 0.151476696445315 
996	 0.148446610692068 
997	 0.144703900903918 
998	 0.14729872017872 
999	 0.145970750071152 
1000	 0.144507514064664 
1001	 0.152318125309889 
1002	 0.148189605044506 
1003	 0.135798824306732 
1004	 0.146648221144881 
1005	 0.154058114773669 
1006	 0.149074512303883 
1007	 0.145383318972072 
1008	 0.145074307255709 
1009	 0.148525968097945 
1010	 0.149476156321336 
1011	 0.145277840843352 
1012	 0.134330148664239 
1013	 0.134642927431634 
1014	 0.145460961370189 
1015	 0.156143130153057 
1016	 0.152461712244201 
1017	 0.136735578079135 
1018	 0.140518778080515 
1019	 0.146865525868133 
1020	 0.146082344728584 
1021	 0.140093861642847 
1022	 0.139650739896707 
1023	 0.152661857462182 
1024	 0.153846586507879 
1025	 0.144325454087318 
1026	 0.133284066973291 
1027	 0.133274030423195 
1028	 0.14287007571601 
1029	 0.14661341234237 
1030	 0.146489515466807 
1031	 0.144249265490014 
1032	 0.147015641019325 
1033	 0.149150415963398 
1034	 0.147568891176863 
1035	 0.148766319208654 
1036	 0.148571990008156 
1037	 0.14297666669408 
1038	 0.143646197594772 
1039	 0.149055358083641 
1040	 0.152557450744271 
1041	 0.160849566415491 
1042	 0.168822294210358 
1043	 0.158588246314559 
1044	 0.153083639056084 
1045	 0.159558759019375 
1046	 0.17008982281362 
1047	 0.159519909270259 
1048	 0.122560693144902 
1049	 0.133571563362099 
1050	 0.158799057631053 
1051	 0.162075547851857 
1052	 0.166330770758134 
1053	 0.158517372470594 
1054	 0.117747527266664 
1055	 0.121252949880132 
1056	 0.163242387952516 
1057	 0.190545573645515 
1058	 0.178136751921275 
1059	 0.131773248003347 
1060	 0.124562408071773 
1061	 0.134014515761117 
1062	 0.146995885260304 
1063	 0.150744976222642 
1064	 0.142899640330945 
1065	 0.12996406733694 
1066	 0.155646895359377 
1067	 0.180619413273443 
1068	 0.163361596994873 
1069	 0.16477881136016 
1070	 0.182389887533492 
1071	 0.190908798837465 
1072	 0.182680799012414 
1073	 0.160334647297887 
1074	 0.133110535779531 
1075	 0.132201260450912 
