Wavelength	A00258.asd
325	 3.54428722347287E-02 
326	 3.80761165979142E-02 
327	 4.49847422619431E-02 
328	 4.07289374929234E-02 
329	 4.15389371935586E-02 
330	 4.96175211245018E-02 
331	 4.29635078851621E-02 
332	 3.91468132889413E-02 
333	 5.48883512436375E-02 
334	 5.58241172456373E-02 
335	 4.57592638981721E-02 
336	 4.59012081951186E-02 
337	 4.90387658725258E-02 
338	 0.05213969407126 
339	 5.15507815364427E-02 
340	 4.86570410580069E-02 
341	 0.045189568947316 
342	 4.49884513671714E-02 
343	 4.74870599473881E-02 
344	 5.11807626189108E-02 
345	 4.91577936990542E-02 
346	 4.27948659761099E-02 
347	 4.50086818058554E-02 
348	 4.83502029707935E-02 
349	 4.79611881023213E-02 
350	 0.049389880729208 
351	 5.01959373098864E-02 
352	 4.54778615496293E-02 
353	 4.20266967338049E-02 
354	 4.19225001936189E-02 
355	 4.59645185854468E-02 
356	 4.75572922113065E-02 
357	 4.37370951299155E-02 
358	 4.44513670861793E-02 
359	 4.76696478278606E-02 
360	 4.86303662169408E-02 
361	 4.75057191453485E-02 
362	 4.54922139471903E-02 
363	 4.66362164549625E-02 
364	 4.71797719212104E-02 
365	 4.55829879158794E-02 
366	 4.58124670363407E-02 
367	 4.65505057062416E-02 
368	 4.55332776534605E-02 
369	 4.50682291593423E-02 
370	 4.55625672683942E-02 
371	 4.66057051175444E-02 
372	 4.71427081639752E-02 
373	 4.66511105546527E-02 
374	 4.60025469982297E-02 
375	 4.60575398156481E-02 
376	 4.77545247735786E-02 
377	 4.84388726180517E-02 
378	 0.047764569233909 
379	 4.67147227568688E-02 
380	 4.67421745613408E-02 
381	 4.83666233201865E-02 
382	 4.98027335668944E-02 
383	 0.049731398623349 
384	 0.046778274824536 
385	 4.63786382026282E-02 
386	 4.82025953304278E-02 
387	 4.68532945504706E-02 
388	 4.56676101276624E-02 
389	 4.59060818704156E-02 
390	 4.56927093577306E-02 
391	 4.56142326175287E-02 
392	 0.046492119435452 
393	 4.68179156769878E-02 
394	 4.65173708166022E-02 
395	 4.64406567552686E-02 
396	 0.046006247274685 
397	 4.52291778320228E-02 
398	 4.54817016015793E-02 
399	 4.54944522517471E-02 
400	 4.39977969012423E-02 
401	 4.39622641647906E-02 
402	 4.51930728891542E-02 
403	 4.60656403946681E-02 
404	 4.62204503099696E-02 
405	 4.57012264456178E-02 
406	 4.60023463625846E-02 
407	 4.66186098241052E-02 
408	 4.67580311187632E-02 
409	 4.65984269200853E-02 
410	 4.62446440049802E-02 
411	 4.58130336092763E-02 
412	 4.57416861114235E-02 
413	 4.61412182729549E-02 
414	 4.63229088303372E-02 
415	 4.61988590115769E-02 
416	 4.57576619847121E-02 
417	 4.57727221696878E-02 
418	 4.62949292067132E-02 
419	 4.69851308714878E-02 
420	 0.047009798581415 
421	 4.61504976640494E-02 
422	 4.63630979288742E-02 
423	 4.70150039142382E-02 
424	 4.68606225766523E-02 
425	 4.70423356026764E-02 
426	 4.75919973856695E-02 
427	 4.75794826904293E-02 
428	 4.75653697552633E-02 
429	 0.047863698518331 
430	 4.79261086115879E-02 
431	 4.77742512311005E-02 
432	 4.75902502767154E-02 
433	 4.69785802396488E-02 
434	 4.62728769797529E-02 
435	 4.69236486371881E-02 
436	 0.047584569478981 
437	 4.74506512629764E-02 
438	 4.80044904807038E-02 
439	 0.048693149315364 
440	 4.81050197405527E-02 
441	 4.78221865641592E-02 
442	 4.81520719938119E-02 
443	 4.81852713076205E-02 
444	 4.82158080997038E-02 
445	 4.84888697257317E-02 
446	 4.87719641827191E-02 
447	 4.89701515648286E-02 
448	 4.89589485697642E-02 
449	 4.89709025149142E-02 
450	 4.91004242274812E-02 
451	 4.93410197470149E-02 
452	 4.96174713245184E-02 
453	 4.98425595027008E-02 
454	 4.97679581575872E-02 
455	 4.95746492307205E-02 
456	 4.99440032632523E-02 
457	 0.049980462679602 
458	 4.95275728261564E-02 
459	 4.99712349078507E-02 
460	 5.05546865548082E-02 
461	 5.02744155959022E-02 
462	 5.00657071924862E-02 
463	 5.00423574746416E-02 
464	 4.98534094941901E-02 
465	 4.97352558458917E-02 
466	 4.98201867229896E-02 
467	 0.050145760281794 
468	 0.05036694391354 
469	 4.99880476189638E-02 
470	 0.050113696089978 
471	 5.06795582854848E-02 
472	 5.03781866622901E-02 
473	 5.00649449754169E-02 
474	 5.02162406469851E-02 
475	 4.99141093248315E-02 
476	 4.96107708503533E-02 
477	 5.03246284424215E-02 
478	 5.05786041964872E-02 
479	 5.01791601825688E-02 
480	 5.02582513570415E-02 
481	 5.05440150256846E-02 
482	 0.050770875514317 
483	 5.07189492690234E-02 
484	 5.05640413620509E-02 
485	 5.08690542095877E-02 
486	 5.08957540562115E-02 
487	 5.05670130975863E-02 
488	 0.050985279981588 
489	 5.14388691115454E-02 
490	 5.11779436553457E-02 
491	 5.09161804497014E-02 
492	 5.09315066950209E-02 
493	 5.16505608552862E-02 
494	 5.19659818432926E-02 
495	 5.15280599493078E-02 
496	 5.15143955070231E-02 
497	 5.17867211002425E-02 
498	 5.20181832880455E-02 
499	 5.20400965777856E-02 
500	 5.19394652844318E-02 
501	 5.21801112373195E-02 
502	 5.25288591337715E-02 
503	 5.28289378112074E-02 
504	 5.30759632929539E-02 
505	 5.32612879259848E-02 
506	 5.33641822793162E-02 
507	 5.36678841857878E-02 
508	 5.41673780499699E-02 
509	 5.44862930140184E-02 
510	 5.47342980558923E-02 
511	 5.50147998334851E-02 
512	 5.53827649647071E-02 
513	 5.57910196456567E-02 
514	 5.61133036632198E-02 
515	 0.056363068358276 
516	 5.65761594569727E-02 
517	 5.68908592195051E-02 
518	 5.73789659561767E-02 
519	 5.80738200242074E-02 
520	 5.84357044014116E-02 
521	 5.86534900799918E-02 
522	 5.96155876949669E-02 
523	 0.060285049999766 
524	 6.03390667370346E-02 
525	 6.10574733913423E-02 
526	 6.18999735283898E-02 
527	 6.19140210902056E-02 
528	 6.21289872420838E-02 
529	 6.26835895950971E-02 
530	 6.31018420109498E-02 
531	 6.34627445022444E-02 
532	 0.063835726230996 
533	 6.44183604608771E-02 
534	 6.48879231568374E-02 
535	 6.44985512143915E-02 
536	 6.46481191182685E-02 
537	 6.55625134765966E-02 
538	 6.60100545207893E-02 
539	 6.62195539180942E-02 
540	 6.64672144311822E-02 
541	 6.66882871404238E-02 
542	 6.68562613183846E-02 
543	 0.066864896933733 
544	 6.70801971617329E-02 
545	 6.75900093329933E-02 
546	 0.067886697303486 
547	 6.80287438938095E-02 
548	 6.81579009379303E-02 
549	 6.82807960907165E-02 
550	 6.84777687053992E-02 
551	 6.90112260358397E-02 
552	 6.93961206398604E-02 
553	 0.069352697167117 
554	 6.93214639317107E-02 
555	 6.94149737452799E-02 
556	 6.97209190692843E-02 
557	 6.99897166276175E-02 
558	 7.01133259777688E-02 
559	 7.00554299851868E-02 
560	 7.00103252542858E-02 
561	 7.01384235036225E-02 
562	 7.00325352649336E-02 
563	 6.98671968610229E-02 
564	 7.03217262735752E-02 
565	 7.06573747626097E-02 
566	 0.070561147227182 
567	 7.02108408316934E-02 
568	 6.98564326780058E-02 
569	 6.97881634729029E-02 
570	 6.96507317292332E-02 
571	 6.94772242431798E-02 
572	 6.97037346774636E-02 
573	 0.06983246885253 
574	 6.95879294076156E-02 
575	 6.94435231787899E-02 
576	 6.93089795329443E-02 
577	 6.88796697810508E-02 
578	 6.87184456711397E-02 
579	 6.88328896558798E-02 
580	 6.84011328798536E-02 
581	 6.79748116700603E-02 
582	 6.80507332384239E-02 
583	 6.82778757233629E-02 
584	 0.06842716880744 
585	 6.80906599414264E-02 
586	 0.067737718295254 
587	 6.75827777559884E-02 
588	 6.76195230469212E-02 
589	 6.76711182068382E-02 
590	 6.75087587526028E-02 
591	 6.72714349278138E-02 
592	 6.70627184981288E-02 
593	 6.70355301641606E-02 
594	 6.72125870648045E-02 
595	 6.75334903527989E-02 
596	 6.74234999014361E-02 
597	 0.067115848034095 
598	 0.06716170125281 
599	 6.71902535385883E-02 
600	 6.70566777440326E-02 
601	 6.66055831332615E-02 
602	 6.62476817733595E-02 
603	 6.63417718024055E-02 
604	 6.66684168303306E-02 
605	 6.69132157786821E-02 
606	 6.63582295427013E-02 
607	 6.60538799933354E-02 
608	 6.63469245836894E-02 
609	 6.64995057294804E-02 
610	 6.63910043270709E-02 
611	 6.59667781298129E-02 
612	 6.58334786757174E-02 
613	 6.59921252920047E-02 
614	 6.58962097110776E-02 
615	 6.56960720911508E-02 
616	 6.54758405558547E-02 
617	 6.51881979326496E-02 
618	 6.48584961288848E-02 
619	 6.44989669468751E-02 
620	 0.064493959264703 
621	 6.47972034224363E-02 
622	 6.47290194844424E-02 
623	 6.43483029435341E-02 
624	 6.37925704842461E-02 
625	 6.38963127867445E-02 
626	 6.43823830492023E-02 
627	 6.40838200142006E-02 
628	 0.063908382929023 
629	 6.41197530883345E-02 
630	 6.40588078621961E-02 
631	 6.39198269547109E-02 
632	 6.40079414508319E-02 
633	 6.42160493132029E-02 
634	 6.43932946717352E-02 
635	 6.42085872033989E-02 
636	 6.37068535605575E-02 
637	 6.30248288091656E-02 
638	 6.29671631956464E-02 
639	 0.06317221172388 
640	 6.27913234490877E-02 
641	 6.25666073950535E-02 
642	 6.25804122949338E-02 
643	 6.21527945927622E-02 
644	 6.18093209386487E-02 
645	 6.19713803447511E-02 
646	 6.16519606308534E-02 
647	 0.0609296699129 
648	 6.04915536977579E-02 
649	 6.01387062678947E-02 
650	 5.98437744146468E-02 
651	 0.059760850336224 
652	 5.96186150006309E-02 
653	 5.90948483880938E-02 
654	 5.95144559010718E-02 
655	 6.05053671349755E-02 
656	 5.95171629403151E-02 
657	 5.84464498865175E-02 
658	 5.83662783014712E-02 
659	 0.057887681953868 
660	 5.72444316045729E-02 
661	 0.057074175041224 
662	 5.67168081116998E-02 
663	 5.61285694300726E-02 
664	 5.59384678017315E-02 
665	 0.055871766516209 
666	 5.56769487485813E-02 
667	 5.53596846695465E-02 
668	 5.50878574286384E-02 
669	 5.53671466720177E-02 
670	 5.51183071749464E-02 
671	 5.42676702001995E-02 
672	 5.48917462207215E-02 
673	 0.055613853418776 
674	 5.47361873121756E-02 
675	 5.43552372726318E-02 
676	 5.46793215806978E-02 
677	 5.47726022327928E-02 
678	 5.50594668496114E-02 
679	 5.56857263248565E-02 
680	 5.61400898539433E-02 
681	 5.63525277185114E-02 
682	 5.63106348598766E-02 
683	 5.64712003530456E-02 
684	 5.69940937543045E-02 
685	 5.78976728951068E-02 
686	 5.88745426971664E-02 
687	 5.96605504222491E-02 
688	 6.08479726844517E-02 
689	 6.22657344014846E-02 
690	 0.063523187692332 
691	 6.50183785075457E-02 
692	 0.06680450586707 
693	 6.83117991433413E-02 
694	 6.99953241284183E-02 
695	 7.22555163825228E-02 
696	 0.074465301850483 
697	 7.64510412148952E-02 
698	 7.81910810185444E-02 
699	 7.98636241952009E-02 
700	 8.15985539512642E-02 
701	 8.37466113048224E-02 
702	 8.59801527238079E-02 
703	 8.78116929845204E-02 
704	 8.94864644107205E-02 
705	 9.11039594275663E-02 
706	 9.27391478015518E-02 
707	 9.42247250109998E-02 
708	 9.54808029624808E-02 
709	 9.67904886264541E-02 
710	 9.82315298556602E-02 
711	 9.99040061120142E-02 
712	 0.101238824053473 
713	 0.102206046361304 
714	 0.103662262171839 
715	 0.104899792099975 
716	 0.105330538623903 
717	 0.106248923290294 
718	 0.107717384081607 
719	 0.108783330350576 
720	 0.109395288480374 
721	 0.109661315962525 
722	 0.110239464356371 
723	 0.110729198248871 
724	 0.110598660043817 
725	 0.111353323958327 
726	 0.112851196858477 
727	 0.113742374215083 
728	 0.114186073738673 
729	 0.114331104664111 
730	 0.114849055193289 
731	 0.115434801600253 
732	 0.115563457610337 
733	 0.1157796001673 
734	 0.116208024227455 
735	 0.116831643779045 
736	 0.117310337625809 
737	 0.117422223468797 
738	 0.117502691782916 
739	 0.117741880508911 
740	 0.118399180768889 
741	 0.118904778032507 
742	 0.119108228209047 
743	 0.119327598896005 
744	 0.119248921095716 
745	 0.118706338427462 
746	 0.119110798891005 
747	 0.12011317741505 
748	 0.120328625620026 
749	 0.120265345929557 
750	 0.120130944157826 
751	 0.120166950176731 
752	 0.120382165977072 
753	 0.120736347138378 
754	 0.120670741973581 
755	 0.120466630989438 
756	 0.121375787438982 
757	 0.121740892852228 
758	 0.120970636507517 
759	 0.121040679663924 
760	 0.122222881105128 
761	 0.123373836115543 
762	 0.12404911179942 
763	 0.124202586130505 
764	 0.124041919215506 
765	 0.123842969503035 
766	 0.123747500629114 
767	 0.123759757834545 
768	 0.123853915983648 
769	 0.124013058858949 
770	 0.124242901835849 
771	 0.124414774114119 
772	 0.124064904041515 
773	 0.123817669333865 
774	 0.1240715261002 
775	 0.124349283885719 
776	 0.124583898157439 
777	 0.124791044558614 
778	 0.124993551002665 
779	 0.125151030510941 
780	 0.125052494103616 
781	 0.125031578918927 
782	 0.125328391198725 
783	 0.125483593424996 
784	 0.125549489159714 
785	 0.125798876536077 
786	 0.126108712623734 
787	 0.12635363445257 
788	 0.1261211410397 
789	 0.125964034948304 
790	 0.126375528124125 
791	 0.126569051584931 
792	 0.126618502937172 
793	 0.127091759927134 
794	 0.127463869061643 
795	 0.127537996453721 
796	 0.127340525921921 
797	 0.127187894930297 
798	 0.12738360362433 
799	 0.127699053509058 
800	 0.127952287744081 
801	 0.127728620248419 
802	 0.127855527947648 
803	 0.128471153624352 
804	 0.12834790295588 
805	 0.128101698016435 
806	 0.128462303603551 
807	 0.128601583060237 
808	 0.128517096238889 
809	 0.128680767167489 
810	 0.128908793742076 
811	 0.129083440766149 
812	 0.128903206761792 
813	 0.128858339802883 
814	 0.129599935691862 
815	 0.130105233433397 
816	 0.130170671730117 
817	 0.130103554271734 
818	 0.130117246591692 
819	 0.130287751446687 
820	 0.130251084696842 
821	 0.130481297224027 
822	 0.131521292955753 
823	 0.131462600657194 
824	 0.130634746567453 
825	 0.131240489138828 
826	 0.131959507872675 
827	 0.132243972026933 
828	 0.132274154130081 
829	 0.131951281092779 
830	 0.131206128773695 
831	 0.131391993632251 
832	 0.132384986672577 
833	 0.133056729084165 
834	 0.132933961695269 
835	 0.132085311489309 
836	 0.13233351161234 
837	 0.133058940344847 
838	 0.133372579181882 
839	 0.132951440236987 
840	 0.132344002359335 
841	 0.133435445114267 
842	 0.133992641003487 
843	 0.133291014490981 
844	 0.133184865266467 
845	 0.133396587940667 
846	 0.133453449246558 
847	 0.133670869128835 
848	 0.134058246396953 
849	 0.134622785367696 
850	 0.134396651161958 
851	 0.133350138901936 
852	 0.133883436699159 
853	 0.134731279108188 
854	 0.134375043148459 
855	 0.134263184723663 
856	 0.134428177681562 
857	 0.134212498981561 
858	 0.134244865504361 
859	 0.134496256380319 
860	 0.133595811359972 
861	 0.133200365638319 
862	 0.134743722020818 
863	 0.134674232594187 
864	 0.133736768787495 
865	 0.135346683416738 
866	 0.136445276708814 
867	 0.136172560509434 
868	 0.135752265236604 
869	 0.135567101629183 
870	 0.135866373060392 
871	 0.136195274296473 
872	 0.136584065256939 
873	 0.137284692373908 
874	 0.137548543394906 
875	 0.137182873457969 
876	 0.136370232868787 
877	 0.136118293092057 
878	 0.136934686525515 
879	 0.136624965288074 
880	 0.136216725448548 
881	 0.137875843629448 
882	 0.138297229281666 
883	 0.13705549414471 
884	 0.1358236041495 
885	 0.135707841607116 
886	 0.137195818257337 
887	 0.138767319854218 
888	 0.139566882263068 
889	 0.138814118628089 
890	 0.139000808510832 
891	 0.13999371646639 
892	 0.139328937995617 
893	 0.138542780499287 
894	 0.138347064361982 
895	 0.138166577917751 
896	 0.138840659031925 
897	 0.141139859217362 
898	 0.141235352005171 
899	 0.139796736424285 
900	 0.140840115328556 
901	 0.14048524148717 
902	 0.138449568282355 
903	 0.139057192612691 
904	 0.140338195900965 
905	 0.14066131799194 
906	 0.140703239324246 
907	 0.140894800696869 
908	 0.141935094439515 
909	 0.140895424779073 
910	 0.13840398692487 
911	 0.140238734648455 
912	 0.142103478437501 
913	 0.14179353844366 
914	 0.142643258834088 
915	 0.143768571595645 
916	 0.143745396335776 
917	 0.143973924695217 
918	 0.144112542301946 
919	 0.142354764655135 
920	 0.141263176698799 
921	 0.141468177868791 
922	 0.140681263082945 
923	 0.140808522717638 
924	 0.143273511276303 
925	 0.142751715263522 
926	 0.140551316330728 
927	 0.141704429383942 
928	 0.141975897171133 
929	 0.140381588512138 
930	 0.139464391194157 
931	 0.140647694117846 
932	 0.14438672090283 
933	 0.143990624232183 
934	 0.139923041351001 
935	 0.135241289862186 
936	 0.137395232998893 
937	 0.143641904884852 
938	 0.142325049074664 
939	 0.14069216640653 
940	 0.141054848553335 
941	 0.143647092363386 
942	 0.143820684357342 
943	 0.139746242292875 
944	 0.147156494657994 
945	 0.156302212747697 
946	 0.149384718832729 
947	 0.143772121707464 
948	 0.144087169067921 
949	 0.150141173680213 
950	 0.150831400704514 
951	 0.143805801351605 
952	 0.145464146979518 
953	 0.149884176933072 
954	 0.150450094080168 
955	 0.147176998441659 
956	 0.142898332137657 
957	 0.142706968156338 
958	 0.142987756674099 
959	 0.142435980408886 
960	 0.139445725127539 
961	 0.139861168408784 
962	 0.144882720362288 
963	 0.144731053914234 
964	 0.143767953451986 
965	 0.146548774487879 
966	 0.148297271782667 
967	 0.14662586889877 
968	 0.138173396458586 
969	 0.134193907244638 
970	 0.136977087868542 
971	 0.141813677387327 
972	 0.144067461910652 
973	 0.141945396205265 
974	 0.141633661919326 
975	 0.143087455953077 
976	 0.145310500166308 
977	 0.145317587357142 
978	 0.14313624576624 
979	 0.139721721158376 
980	 0.143059835326523 
981	 0.151453752655908 
982	 0.149676363643542 
983	 0.148147544966213 
984	 0.151487127507335 
985	 0.150133189759043 
986	 0.147198980176168 
987	 0.146596472912283 
988	 0.143334235428488 
989	 0.139620699272284 
990	 0.14139777276831 
991	 0.142994045287851 
992	 0.144104980740663 
993	 0.150506348489827 
994	 0.153729966595843 
995	 0.149913018150479 
996	 0.143192792587278 
997	 0.140131596356992 
998	 0.145841140344615 
999	 0.146718492613132 
1000	 0.143670871028014 
1001	 0.14253552328276 
1002	 0.140548764852478 
1003	 0.139394028964557 
1004	 0.146761079869499 
1005	 0.1508718041048 
1006	 0.147032512744232 
1007	 0.137806655177657 
1008	 0.135724127039098 
1009	 0.147862253819972 
1010	 0.150748185846768 
1011	 0.145063766571996 
1012	 0.136649991643358 
1013	 0.135713082938828 
1014	 0.140987190337527 
1015	 0.142548146946145 
1016	 0.147945164353077 
1017	 0.156502817565768 
1018	 0.157435623928727 
1019	 0.154677564175478 
1020	 0.151380326233412 
1021	 0.151564444459332 
1022	 0.153945196294363 
1023	 0.155871401798558 
1024	 0.148145348866845 
1025	 0.138090055769821 
1026	 0.140032481641598 
1027	 0.146914463475727 
1028	 0.152473507234563 
1029	 0.143192940084053 
1030	 0.139750977112832 
1031	 0.146100387046925 
1032	 0.143093886881264 
1033	 0.141071948889339 
1034	 0.146548609011532 
1035	 0.155444946981812 
1036	 0.158633681194607 
1037	 0.148797052533197 
1038	 0.14645762011709 
1039	 0.149428813412381 
1040	 0.146805920437208 
1041	 0.15541149609078 
1042	 0.167703020913273 
1043	 0.151548325497092 
1044	 0.142370973069605 
1045	 0.150823925677742 
1046	 0.159690460289179 
1047	 0.158395779768042 
1048	 0.143195885011854 
1049	 0.138274592890574 
1050	 0.134165284777253 
1051	 0.12199673237848 
1052	 0.133326798533189 
1053	 0.154308831347135 
1054	 0.156004223913406 
1055	 0.156660876161223 
1056	 0.160460954778529 
1057	 0.169644422983138 
1058	 0.154810855781473 
1059	 0.119920007645798 
1060	 0.127676434351713 
1061	 0.134536761779164 
1062	 0.126769064607474 
1063	 0.143898710600403 
1064	 0.151275190285211 
1065	 0.131849858280582 
1066	 0.156952383124122 
1067	 0.181079136121721 
1068	 0.154415443652214 
1069	 0.156393314243733 
1070	 0.176193891799567 
1071	 0.168897494766863 
1072	 0.136841492126184 
1073	 0.101358979613397 
1074	 0.110331196211091 
1075	 0.135405841687312 
