Wavelength	A00284.asd
325	 3.50524564060532E-02 
326	 3.67147033899153E-02 
327	 3.76641536505224E-02 
328	 3.79231784069306E-02 
329	 3.85314732227495E-02 
330	 3.89024668639678E-02 
331	 3.31433219791703E-02 
332	 2.93833875091529E-02 
333	 3.51852902519245E-02 
334	 3.58693785942351E-02 
335	 0.032656037490383 
336	 3.39480072939481E-02 
337	 3.62586697154835E-02 
338	 3.84796066882931E-02 
339	 4.16157719880381E-02 
340	 4.02853456183344E-02 
341	 3.16055771250788E-02 
342	 3.29098612573092E-02 
343	 0.040473807523008 
344	 4.32505830576063E-02 
345	 4.07885731952926E-02 
346	 3.51255641050827E-02 
347	 3.50229288081986E-02 
348	 3.61766216251816E-02 
349	 3.56889286270944E-02 
350	 3.66530049083777E-02 
351	 3.69667913689328E-02 
352	 3.27274295752867E-02 
353	 3.00918510663847E-02 
354	 3.07956196410726E-02 
355	 3.51094574045653E-02 
356	 3.69579002739827E-02 
357	 3.37044157295812E-02 
358	 3.54046123200545E-02 
359	 3.88057252512578E-02 
360	 3.72959835393424E-02 
361	 3.66870866882313E-02 
362	 3.75613502272947E-02 
363	 3.70465744261715E-02 
364	 0.036315055108455 
365	 3.60009459617589E-02 
366	 3.60562498619211E-02 
367	 3.57127655845069E-02 
368	 3.39599600993983E-02 
369	 3.36724868923023E-02 
370	 3.47789957122322E-02 
371	 0.034582950642188 
372	 3.46359025053675E-02 
373	 3.56183869544212E-02 
374	 3.60662179149646E-02 
375	 3.67859508437191E-02 
376	 3.90307569829393E-02 
377	 3.82016801372147E-02 
378	 3.47231068248405E-02 
379	 3.34039712991616E-02 
380	 3.34392039483458E-02 
381	 3.42577286114787E-02 
382	 3.43531299704024E-02 
383	 3.45561853228718E-02 
384	 3.61551766239726E-02 
385	 3.73985923113642E-02 
386	 3.77853522123794E-02 
387	 3.74351500627993E-02 
388	 3.69149086157115E-02 
389	 3.63199963313332E-02 
390	 3.40228597894844E-02 
391	 3.26865067777904E-02 
392	 0.035340948841647 
393	 3.59684274654264E-02 
394	 0.034396517642789 
395	 0.034069096127213 
396	 3.39463754116156E-02 
397	 3.37316755488594E-02 
398	 3.42595190181555E-02 
399	 3.41535550323855E-02 
400	 3.21361272344689E-02 
401	 3.21337719806826E-02 
402	 3.37229139128324E-02 
403	 3.41886776275789E-02 
404	 3.43122714595502E-02 
405	 0.034388044033101 
406	 0.03431400553753 
407	 0.034411692641844 
408	 3.50489487667722E-02 
409	 0.034467145088177 
410	 3.31218613780962E-02 
411	 3.33122668325115E-02 
412	 3.41136755208919E-02 
413	 3.48689880018351E-02 
414	 0.034503367484217 
415	 3.36498014234552E-02 
416	 3.32433093883677E-02 
417	 3.36942480705897E-02 
418	 3.46029071736487E-02 
419	 3.44206168926047E-02 
420	 3.40397036286605E-02 
421	 3.39780553907401E-02 
422	 3.42200667466044E-02 
423	 0.034548834116181 
424	 0.034667096009169 
425	 3.43268749138692E-02 
426	 3.38590237721972E-02 
427	 3.47407244659034E-02 
428	 3.53388512708998E-02 
429	 3.47353258465244E-02 
430	 3.47693632138684E-02 
431	 3.51297129623169E-02 
432	 3.49259617094006E-02 
433	 3.41423304455693E-02 
434	 3.32319861131624E-02 
435	 3.37122286294867E-02 
436	 3.43486061630841E-02 
437	 3.43681723322625E-02 
438	 3.48484469364564E-02 
439	 3.53460580937724E-02 
440	 3.47604222061075E-02 
441	 3.45064780798573E-02 
442	 0.034811135537374 
443	 3.46328890619436E-02 
444	 3.44736357893317E-02 
445	 3.47427040442981E-02 
446	 3.50720035979664E-02 
447	 3.52780134886705E-02 
448	 3.50784933610387E-02 
449	 3.50063626206961E-02 
450	 3.52403111827724E-02 
451	 3.56508034010424E-02 
452	 3.59490110540952E-02 
453	 3.58749612554229E-02 
454	 3.58171949385106E-02 
455	 3.58332197267859E-02 
456	 3.58365591238379E-02 
457	 3.58509676857965E-02 
458	 3.59040011937483E-02 
459	 3.61647403647881E-02 
460	 3.62088199583985E-02 
461	 3.55594601972642E-02 
462	 3.57069795777757E-02 
463	 0.03638101203067 
464	 3.55976127923296E-02 
465	 3.49876059124059E-02 
466	 3.53492975296353E-02 
467	 3.58939173956403E-02 
468	 3.62679805522243E-02 
469	 3.61049888286947E-02 
470	 3.60113734256712E-02 
471	 3.61228542451875E-02 
472	 3.63257215529737E-02 
473	 3.62710886377849E-02 
474	 3.58251977369386E-02 
475	 3.58288374757593E-02 
476	 3.61014193448464E-02 
477	 3.61341864141694E-02 
478	 3.60003657117709E-02 
479	 3.57774069198977E-02 
480	 3.56959908893946E-02 
481	 3.58185427699931E-02 
482	 3.61555648241489E-02 
483	 3.62667309572366E-02 
484	 3.62422430933436E-02 
485	 3.65503114285077E-02 
486	 3.64795719931169E-02 
487	 3.60014456350529E-02 
488	 3.64401856075455E-02 
489	 3.68059906288808E-02 
490	 3.60806918489247E-02 
491	 3.54286871287177E-02 
492	 0.035267484250547 
493	 3.60720443311702E-02 
494	 0.036823758700313 
495	 3.70404646904267E-02 
496	 3.69918569666755E-02 
497	 3.68508037745864E-02 
498	 3.68048421337844E-02 
499	 3.69634834671958E-02 
500	 3.72401182400659E-02 
501	 3.71923402324435E-02 
502	 0.037309243520974 
503	 3.78134749278458E-02 
504	 3.79486163174581E-02 
505	 0.03805617236697 
506	 3.88749320953572E-02 
507	 3.94798552084969E-02 
508	 0.039693481571845 
509	 0.039953478260375 
510	 4.02361224553819E-02 
511	 4.05221309854757E-02 
512	 0.040877538334024 
513	 4.12868582371882E-02 
514	 4.16997809669082E-02 
515	 4.20432667766856E-02 
516	 4.23549268819728E-02 
517	 4.30012764364662E-02 
518	 4.36835451972054E-02 
519	 4.40620900952229E-02 
520	 4.44871739509239E-02 
521	 4.51187965856008E-02 
522	 4.62324741524843E-02 
523	 4.71694725883983E-02 
524	 4.77143935404917E-02 
525	 4.87289627345866E-02 
526	 4.96744403705152E-02 
527	 4.96675291652675E-02 
528	 4.98500072364399E-02 
529	 5.04155624752659E-02 
530	 5.08970148636257E-02 
531	 5.14239911937463E-02 
532	 5.20694924933991E-02 
533	 5.27184491121455E-02 
534	 5.32036784124958E-02 
535	 5.32136392559785E-02 
536	 5.34578235003094E-02 
537	 5.40692180250142E-02 
538	 5.44491981030009E-02 
539	 5.47805642109205E-02 
540	 5.52535818088944E-02 
541	 5.56674310791488E-02 
542	 5.59130575894986E-02 
543	 5.57263796312607E-02 
544	 5.59886393424104E-02 
545	 5.69027255169001E-02 
546	 5.71964266038709E-02 
547	 5.71008153792665E-02 
548	 5.70743741067963E-02 
549	 5.73483459207733E-02 
550	 5.79254937157963E-02 
551	 5.85942500132781E-02 
552	 5.90050404341765E-02 
553	 5.89549759599002E-02 
554	 0.058798575378318 
555	 5.87439611370163E-02 
556	 5.90574848922423E-02 
557	 5.94134974933051E-02 
558	 5.96472023132917E-02 
559	 5.96292645691423E-02 
560	 5.94064178140722E-02 
561	 5.90727693952929E-02 
562	 5.91823949289102E-02 
563	 5.95416462169958E-02 
564	 5.93976369948386E-02 
565	 5.90566188200679E-02 
566	 5.86917441649375E-02 
567	 0.058638819563012 
568	 5.85639113088513E-02 
569	 0.058007181183759 
570	 5.76698254651517E-02 
571	 5.76527517969875E-02 
572	 5.76743170508881E-02 
573	 5.75849613880041E-02 
574	 5.72908968781548E-02 
575	 5.69285196516663E-02 
576	 5.65776105961394E-02 
577	 5.63522475278249E-02 
578	 5.59957313006279E-02 
579	 5.55124244210808E-02 
580	 5.52853846860049E-02 
581	 5.51055447785565E-02 
582	 5.48029004359563E-02 
583	 5.48577789956153E-02 
584	 5.50910169526359E-02 
585	 5.48657421186435E-02 
586	 0.054450525302587 
587	 5.40181726833901E-02 
588	 5.39712088907179E-02 
589	 5.40393091638221E-02 
590	 5.38209562824951E-02 
591	 5.35543668078717E-02 
592	 5.33070606148222E-02 
593	 5.30632772592766E-02 
594	 5.29744668997892E-02 
595	 5.30966472197925E-02 
596	 5.31070731305303E-02 
597	 5.30383105039299E-02 
598	 5.30476682733118E-02 
599	 5.28647964949484E-02 
600	 5.24930305809005E-02 
601	 5.23004107290378E-02 
602	 5.22201783934744E-02 
603	 5.21812779605122E-02 
604	 5.22622047899614E-02 
605	 5.23091842128466E-02 
606	 5.18692633443236E-02 
607	 5.16711564652826E-02 
608	 5.19090964587724E-02 
609	 5.18059657136334E-02 
610	 5.14706893127184E-02 
611	 5.11327703343556E-02 
612	 5.08941125660868E-02 
613	 5.07024526113157E-02 
614	 5.02002876692011E-02 
615	 4.99574155811384E-02 
616	 5.02140029952187E-02 
617	 4.99169309247755E-02 
618	 4.92190260444118E-02 
619	 4.85786598125864E-02 
620	 4.86595865172345E-02 
621	 4.93352875615033E-02 
622	 0.049092442727815 
623	 4.85172252118985E-02 
624	 4.82096884048716E-02 
625	 4.82706303412732E-02 
626	 0.04849193783985 
627	 4.82271800617472E-02 
628	 4.81574493339781E-02 
629	 4.84186564799489E-02 
630	 4.81118100527897E-02 
631	 4.77119873151931E-02 
632	 4.78907087231158E-02 
633	 4.80496802677944E-02 
634	 0.04803770966611 
635	 4.78489162476064E-02 
636	 0.047740416185542 
637	 4.77912550107512E-02 
638	 4.72983059476233E-02 
639	 4.65518499407515E-02 
640	 0.04620612533428 
641	 4.61433228338717E-02 
642	 4.61456388757214E-02 
643	 4.54016365194871E-02 
644	 4.46039038433881E-02 
645	 4.43416565134953E-02 
646	 4.36985832731003E-02 
647	 4.29049412066145E-02 
648	 4.30100731542997E-02 
649	 4.31297019603989E-02 
650	 4.28935069980816E-02 
651	 4.23814610597359E-02 
652	 4.19280154846795E-02 
653	 4.19115702740316E-02 
654	 4.22240618613458E-02 
655	 0.042530745895773 
656	 4.17435967863623E-02 
657	 4.10652011264168E-02 
658	 4.11195520376743E-02 
659	 4.05983153005989E-02 
660	 3.99428696641096E-02 
661	 4.01492929443762E-02 
662	 3.96061758328536E-02 
663	 3.82936942522192E-02 
664	 0.038136146142351 
665	 3.84075506071209E-02 
666	 3.84099820441497E-02 
667	 3.78839567705265E-02 
668	 3.72017818814134E-02 
669	 3.74718287116215E-02 
670	 3.73796962733269E-02 
671	 3.67324146857406E-02 
672	 3.73426642008867E-02 
673	 3.81330426601976E-02 
674	 3.77533647815215E-02 
675	 3.74943111467697E-02 
676	 3.75473020216606E-02 
677	 3.75390301827268E-02 
678	 3.76470998501306E-02 
679	 3.79463934167743E-02 
680	 3.83244278654963E-02 
681	 3.85798864426003E-02 
682	 3.84051702679435E-02 
683	 3.86913731513565E-02 
684	 3.95717441972775E-02 
685	 4.04665868744082E-02 
686	 4.14525701089844E-02 
687	 4.25785858667879E-02 
688	 0.043828092580089 
689	 0.045131596183961 
690	 4.65131890653606E-02 
691	 4.85685802945077E-02 
692	 5.12862478504347E-02 
693	 0.053362935830062 
694	 5.55278498542638E-02 
695	 5.84914177862944E-02 
696	 6.15580394693243E-02 
697	 0.064581396495845 
698	 6.77208771887601E-02 
699	 7.07089162031784E-02 
700	 7.34189669941273E-02 
701	 7.63015183158692E-02 
702	 7.93429463003179E-02 
703	 8.24533125166042E-02 
704	 8.55476898105938E-02 
705	 0.088578945777337 
706	 9.14209669127329E-02 
707	 0.09404303042889 
708	 9.64624528031794E-02 
709	 9.90011729764025E-02 
710	 0.101641619500747 
711	 0.104282418316078 
712	 0.106856582890101 
713	 0.109294209313229 
714	 0.111520223652438 
715	 0.113617169886547 
716	 0.115773715217394 
717	 0.117829322339809 
718	 0.119817380478375 
719	 0.121714982227014 
720	 0.123282630325074 
721	 0.124499051217952 
722	 0.125895239002941 
723	 0.127250840481325 
724	 0.128158233785082 
725	 0.129485668710426 
726	 0.131171225731064 
727	 0.132731875744924 
728	 0.133890337578367 
729	 0.134573465828498 
730	 0.135453543225089 
731	 0.136422601095329 
732	 0.137228207672549 
733	 0.137726468414746 
734	 0.138140875791815 
735	 0.139294306716437 
736	 0.140437845127811 
737	 0.141024516260592 
738	 0.141240932163334 
739	 0.14148286810409 
740	 0.142443475783935 
741	 0.143093944462965 
742	 0.143243999399328 
743	 0.143571070641687 
744	 0.143971371071642 
745	 0.144352394564995 
746	 0.144877476739058 
747	 0.145428248384033 
748	 0.145687211823564 
749	 0.145881220269844 
750	 0.146059512575853 
751	 0.145954701312181 
752	 0.146132729601362 
753	 0.147133191859765 
754	 0.147243119169902 
755	 0.146717093157688 
756	 0.147383120781497 
757	 0.147797715027522 
758	 0.147464472630435 
759	 0.147833749130398 
760	 0.149421954395457 
761	 0.151422488481974 
762	 0.151541173422623 
763	 0.150486464995433 
764	 0.150870516235976 
765	 0.151412989217827 
766	 0.151607235171203 
767	 0.151531997252423 
768	 0.151265894097777 
769	 0.150843125840095 
770	 0.150822417371934 
771	 0.151190116710281 
772	 0.151230424002793 
773	 0.15164240084014 
774	 0.152718759846655 
775	 0.152716439749688 
776	 0.152250873400744 
777	 0.152888546499458 
778	 0.153423394066523 
779	 0.153525601235951 
780	 0.153386190732678 
781	 0.153278567269514 
782	 0.153426656520411 
783	 0.153739570383016 
784	 0.154160971526596 
785	 0.154653651812766 
786	 0.154784823497939 
787	 0.154525976143929 
788	 0.154495303427247 
789	 0.154722281248939 
790	 0.155174459978396 
791	 0.155497058052823 
792	 0.155608775041854 
793	 0.155482935568221 
794	 0.155507486854512 
795	 0.155778817518275 
796	 0.155953216291134 
797	 0.155973272362904 
798	 0.155811080187959 
799	 0.155502614095695 
800	 0.15530207894578 
801	 0.155839162171334 
802	 0.156439734477356 
803	 0.156747494873672 
804	 0.156480808266599 
805	 0.156311190830322 
806	 0.156938078064503 
807	 0.157232652470525 
808	 0.157210081448724 
809	 0.157690568704346 
810	 0.157735389241788 
811	 0.157127664717528 
812	 0.15715356939287 
813	 0.157817321927474 
814	 0.158937792159398 
815	 0.159540673324308 
816	 0.159612903934562 
817	 0.160292079843463 
818	 0.160048016427418 
819	 0.15872383810031 
820	 0.15893961347745 
821	 0.160269884474748 
822	 0.161933147778902 
823	 0.162215878521093 
824	 0.161336615653553 
825	 0.161165224779501 
826	 0.161482410066019 
827	 0.162207450954194 
828	 0.16317977034915 
829	 0.16341677670698 
830	 0.161887791282619 
831	 0.162100578995841 
832	 0.163801940428808 
833	 0.163954261633801 
834	 0.163674121931005 
835	 0.163559326632148 
836	 0.164438589328976 
837	 0.165119619370145 
838	 0.16425442472032 
839	 0.163935354847724 
840	 0.164266671279892 
841	 0.164072143771306 
842	 0.164540261814047 
843	 0.165740046484182 
844	 0.165037044354679 
845	 0.164198216954313 
846	 0.165339245397546 
847	 0.165552021409174 
848	 0.164940833986539 
849	 0.165683084919961 
850	 0.165903086210134 
851	 0.165111018479232 
852	 0.165143417771176 
853	 0.165443749291911 
854	 0.165285390304929 
855	 0.165261315361436 
856	 0.16557369170496 
857	 0.166575857975992 
858	 0.166855518906699 
859	 0.166206198835582 
860	 0.166340793052255 
861	 0.166742747606385 
862	 0.166798415114963 
863	 0.166067833167107 
864	 0.165470521731083 
865	 0.167458637349828 
866	 0.168587059434366 
867	 0.167993957985451 
868	 0.167877864004413 
869	 0.167904512745756 
870	 0.167841406217137 
871	 0.168865261061644 
872	 0.170188767825356 
873	 0.169987517173954 
874	 0.169816494316201 
875	 0.170022886508306 
876	 0.169965581363192 
877	 0.169969826761152 
878	 0.170250764957148 
879	 0.170497417701637 
880	 0.170870948240777 
881	 0.171722893467813 
882	 0.171349744163342 
883	 0.170301110114924 
884	 0.172293234157797 
885	 0.173754274133742 
886	 0.172867221121767 
887	 0.172169712057136 
888	 0.172128296334191 
889	 0.172950027294091 
890	 0.1742082771115 
891	 0.175089853237308 
892	 0.173434519894092 
893	 0.172212841034276 
894	 0.172803229171346 
895	 0.17363259633766 
896	 0.174537391020284 
897	 0.175372821840915 
898	 0.175022930040845 
899	 0.174457291134523 
900	 0.176865152598356 
901	 0.177115335039567 
902	 0.1746541506607 
903	 0.174882976927222 
904	 0.176302641370206 
905	 0.177413682955859 
906	 0.176702820731974 
907	 0.17576009353302 
908	 0.177905143768539 
909	 0.178259847149652 
910	 0.176567825771659 
911	 0.177579322074212 
912	 0.17895045786369 
913	 0.17941136429742 
914	 0.180469113904287 
915	 0.180511515530088 
916	 0.17767318376921 
917	 0.178259632706402 
918	 0.18089996322866 
919	 0.177907971689337 
920	 0.177322057795472 
921	 0.180597731242033 
922	 0.179940967354896 
923	 0.178377344045624 
924	 0.17878436845575 
925	 0.177979285368317 
926	 0.176808874948581 
927	 0.178264936893461 
928	 0.179943471426465 
929	 0.179731204052289 
930	 0.171512909141767 
931	 0.167481051668383 
932	 0.176426926858797 
933	 0.176400227981806 
934	 0.173825495692485 
935	 0.182493480425057 
936	 0.184085443563017 
937	 0.17892258773944 
938	 0.179332274662693 
939	 0.177902480257483 
940	 0.174342236817997 
941	 0.177110861539212 
942	 0.179547211262116 
943	 0.177069876789159 
944	 0.174704662850247 
945	 0.17577513075537 
946	 0.184135761542694 
947	 0.187007617458091 
948	 0.183706338372739 
949	 0.184783905563645 
950	 0.18231941880617 
951	 0.17556561934295 
952	 0.179134277283257 
953	 0.18234154645726 
954	 0.175982148830953 
955	 0.178517521082339 
956	 0.185790625270269 
957	 0.185494575428986 
958	 0.178967105999045 
959	 0.17009721368201 
960	 0.168366990400691 
961	 0.176371769135857 
962	 0.19098043049494 
963	 0.192352650236868 
964	 0.185491127826916 
965	 0.177286653546829 
966	 0.174283992340948 
967	 0.174882118447706 
968	 0.173237786571442 
969	 0.169831638383306 
970	 0.16674411992925 
971	 0.17178614212947 
972	 0.175849583855677 
973	 0.174664252143056 
974	 0.175874801723547 
975	 0.177125748745885 
976	 0.175254785127819 
977	 0.173880623336018 
978	 0.17362924058221 
979	 0.174199974083839 
980	 0.175581450859622 
981	 0.178153499914754 
982	 0.184509872223446 
983	 0.185762693563915 
984	 0.179179176920449 
985	 0.180197132421955 
986	 0.184990515322793 
987	 0.187391242421803 
988	 0.179963946773328 
989	 0.170563350921993 
990	 0.17773303251503 
991	 0.179421031548264 
992	 0.173110355923654 
993	 0.173229193986021 
994	 0.178766283922817 
995	 0.186958009312644 
996	 0.185803315601311 
997	 0.18040344464237 
998	 0.177301296558735 
999	 0.178975023501712 
1000	 0.18314045950285 
1001	 0.185040204040315 
1002	 0.179848658892458 
1003	 0.171313595658589 
1004	 0.176382080945475 
1005	 0.180787188466339 
1006	 0.178733038958479 
1007	 0.172441836889858 
1008	 0.170618305424511 
1009	 0.17837448231589 
1010	 0.179900312739917 
1011	 0.178301764768805 
1012	 0.18060382826583 
1013	 0.181988391846583 
1014	 0.182036492476296 
1015	 0.182164690740787 
1016	 0.182280415357884 
1017	 0.182859188130247 
1018	 0.186550262526145 
1019	 0.184133277583366 
1020	 0.173529329213958 
1021	 0.175432502189938 
1022	 0.182651066664969 
1023	 0.186025196628962 
1024	 0.187196787789551 
1025	 0.185644723423721 
1026	 0.18056900603912 
1027	 0.179323904819784 
1028	 0.182188514053707 
1029	 0.183982912336129 
1030	 0.182630614399301 
1031	 0.178391775009796 
1032	 0.176482642150508 
1033	 0.176940539635692 
1034	 0.180899319146077 
1035	 0.196692225349444 
1036	 0.207787100798281 
1037	 0.198255214594527 
1038	 0.1877208060011 
1039	 0.182145398265998 
1040	 0.184416823232736 
1041	 0.188104856577649 
1042	 0.189678265158522 
1043	 0.185465276382704 
1044	 0.178994338873208 
1045	 0.174979726413282 
1046	 0.186481793129055 
1047	 0.180855887222332 
1048	 0.149448504537108 
1049	 0.176271250747589 
1050	 0.204467732283554 
1051	 0.18198744370817 
1052	 0.180576994128374 
1053	 0.192921684280122 
1054	 0.190485079275035 
1055	 0.187398549095994 
1056	 0.18777416293619 
1057	 0.195375969262284 
1058	 0.184808796897388 
1059	 0.161768577575092 
1060	 0.190112548191649 
1061	 0.193261502572443 
1062	 0.154735596809709 
1063	 0.182166113716732 
1064	 0.21521629809901 
1065	 0.208557178135192 
1066	 0.206433427120459 
1067	 0.207388252288729 
1068	 0.206007257655651 
1069	 0.212678848298363 
1070	 0.211883166766811 
1071	 0.176748436237282 
1072	 0.161570591893756 
1073	 0.163108101056051 
1074	 0.137050562146595 
1075	 0.149356328051905 
