Wavelength	A00235.asd
325	 3.67008787937942E-02 
326	 3.32646263286187E-02 
327	 3.81326659441808E-02 
328	 3.73543948499519E-02 
329	 4.00356427210972E-02 
330	 4.62547562687561E-02 
331	 3.88375668153564E-02 
332	 3.30557220352718E-02 
333	 4.36576759270398E-02 
334	 4.70870840277305E-02 
335	 4.31165124353115E-02 
336	 4.00959352597934E-02 
337	 3.92870813989453E-02 
338	 4.10771745225368E-02 
339	 0.044247163121926 
340	 4.47399134756239E-02 
341	 4.02182643441439E-02 
342	 0.041215973736941 
343	 4.56028536903047E-02 
344	 4.70168967482758E-02 
345	 4.38608419101656E-02 
346	 0.038591223031667 
347	 4.22968591530968E-02 
348	 4.70497321267509E-02 
349	 4.73445957009589E-02 
350	 4.51053340846229E-02 
351	 4.26192306779038E-02 
352	 4.28170418942483E-02 
353	 4.42969817897646E-02 
354	 4.59661488877878E-02 
355	 4.55046904104447E-02 
356	 4.45630041068301E-02 
357	 4.42382396420359E-02 
358	 4.42598709985086E-02 
359	 4.52364863049679E-02 
360	 4.81661398097489E-02 
361	 4.76476234961921E-02 
362	 4.43467259889738E-02 
363	 4.52211889680348E-02 
364	 4.54008519094587E-02 
365	 0.042995324555209 
366	 4.36038548406811E-02 
367	 4.52346861575489E-02 
368	 4.45404588225248E-02 
369	 4.41056793298511E-02 
370	 4.43775135624054E-02 
371	 4.47413778413538E-02 
372	 4.56473766078608E-02 
373	 4.68262140014124E-02 
374	 0.044631977065976 
375	 4.27575387762777E-02 
376	 4.65051060874047E-02 
377	 4.78535850496168E-02 
378	 4.61356790940208E-02 
379	 0.045856920378093 
380	 4.55368589302712E-02 
381	 4.46531581124668E-02 
382	 4.41580889798762E-02 
383	 4.43200998418259E-02 
384	 4.53534762532626E-02 
385	 4.68712040568196E-02 
386	 4.78400454512894E-02 
387	 0.045821900666871 
388	 4.42614100252875E-02 
389	 4.43963720846248E-02 
390	 0.043133244085196 
391	 4.24734419000579E-02 
392	 4.48960365908237E-02 
393	 4.55962252343228E-02 
394	 0.044434091491964 
395	 4.40507138765135E-02 
396	 4.43443661792597E-02 
397	 4.49594734147724E-02 
398	 4.42043858060212E-02 
399	 4.30063049956732E-02 
400	 4.23997820539641E-02 
401	 4.28847516642658E-02 
402	 4.38865257695512E-02 
403	 4.37678109595529E-02 
404	 4.39471149125771E-02 
405	 4.48414857464587E-02 
406	 4.51855708103639E-02 
407	 4.52326882751741E-02 
408	 4.54313416169388E-02 
409	 4.53781130427928E-02 
410	 4.49976698768328E-02 
411	 4.41072273062055E-02 
412	 4.41188312262044E-02 
413	 4.53448132134754E-02 
414	 4.52066034199388E-02 
415	 4.45443315808939E-02 
416	 0.044754682307709 
417	 4.48575419946045E-02 
418	 4.48339189656455E-02 
419	 4.53523690211077E-02 
420	 4.56419096210157E-02 
421	 4.53701899366175E-02 
422	 4.53739681434229E-02 
423	 4.55495011343303E-02 
424	 4.56036066508425E-02 
425	 4.56646559519442E-02 
426	 4.58022951162618E-02 
427	 4.61706357730707E-02 
428	 0.04650905377554 
429	 4.66202506590584E-02 
430	 4.64580216784542E-02 
431	 4.61787483458645E-02 
432	 4.60675510503875E-02 
433	 4.55428773736139E-02 
434	 4.48449764161397E-02 
435	 4.52913183163453E-02 
436	 4.58723292018385E-02 
437	 4.59457717385427E-02 
438	 4.62720595788867E-02 
439	 0.046639625427344 
440	 4.64833534767545E-02 
441	 0.046279091539524 
442	 4.62091122970617E-02 
443	 4.63158390395429E-02 
444	 4.65906079991168E-02 
445	 4.69906581835886E-02 
446	 4.71778270321138E-02 
447	 4.71618645838729E-02 
448	 4.71007164148134E-02 
449	 4.70083097259554E-02 
450	 4.69936124510878E-02 
451	 4.74966758704376E-02 
452	 4.79263077640793E-02 
453	 0.047703083658467 
454	 4.74374906772914E-02 
455	 4.73741568792813E-02 
456	 4.78698705189998E-02 
457	 4.80573110585929E-02 
458	 4.76793296668556E-02 
459	 4.76281673730875E-02 
460	 4.76082212997917E-02 
461	 4.72061098185415E-02 
462	 4.75186005093191E-02 
463	 4.82828140126556E-02 
464	 4.79257676699689E-02 
465	 4.74957715576363E-02 
466	 4.75457023144175E-02 
467	 4.78787234288496E-02 
468	 4.82135247014556E-02 
469	 4.81782296829237E-02 
470	 4.80576508838633E-02 
471	 4.80120767338231E-02 
472	 4.82916213565165E-02 
473	 4.86357204255077E-02 
474	 4.88378376044839E-02 
475	 4.87326834247648E-02 
476	 4.84492125037906E-02 
477	 0.048247246861123 
478	 4.80119747973503E-02 
479	 4.78615014344974E-02 
480	 4.83633247310198E-02 
481	 4.88171218197796E-02 
482	 0.048682082978428 
483	 4.86577397462092E-02 
484	 4.88066069507299E-02 
485	 4.90119242532099E-02 
486	 4.89970574143847E-02 
487	 0.048794095907667 
488	 4.92514168972232E-02 
489	 4.95526866913067E-02 
490	 4.88752346989005E-02 
491	 4.80393994161669E-02 
492	 4.75866689227551E-02 
493	 4.85001757421812E-02 
494	 4.93178837652062E-02 
495	 4.93906041442276E-02 
496	 4.91919102159681E-02 
497	 4.90750120143679E-02 
498	 4.94292697608551E-02 
499	 4.97880855580126E-02 
500	 4.99701771358598E-02 
501	 4.97643539172655E-02 
502	 4.97957321155053E-02 
503	 5.03472023669463E-02 
504	 5.04335505355727E-02 
505	 5.02789694397489E-02 
506	 5.04618262561964E-02 
507	 5.06864126626157E-02 
508	 5.09547222885798E-02 
509	 5.16100895542421E-02 
510	 5.21260765333724E-02 
511	 5.21244805655231E-02 
512	 5.23400454411917E-02 
513	 5.27876022079739E-02 
514	 5.31987726150572E-02 
515	 5.36289419497494E-02 
516	 5.40653425281208E-02 
517	 5.44106223048851E-02 
518	 5.47579706207344E-02 
519	 5.52033755432714E-02 
520	 5.55025430108215E-02 
521	 0.055762920546906 
522	 5.64086309116864E-02 
523	 5.70431519276961E-02 
524	 5.75451696931011E-02 
525	 5.84465172826597E-02 
526	 5.92529241306586E-02 
527	 0.059201001800484 
528	 5.92399656716844E-02 
529	 5.95910139535697E-02 
530	 6.00568420123538E-02 
531	 6.05501535283769E-02 
532	 6.10095878834496E-02 
533	 6.14944294927581E-02 
534	 6.18841297979165E-02 
535	 6.19086671891402E-02 
536	 6.21418080832856E-02 
537	 6.26734715526009E-02 
538	 6.29692674909925E-02 
539	 6.31536044951433E-02 
540	 6.33694376844439E-02 
541	 6.35795253052784E-02 
542	 6.37520319758914E-02 
543	 6.37785868699511E-02 
544	 6.39629512674153E-02 
545	 6.43885223529832E-02 
546	 6.46874160544751E-02 
547	 6.48976453676202E-02 
548	 6.51150309574902E-02 
549	 6.54165494082283E-02 
550	 6.57995590617298E-02 
551	 6.61974969783192E-02 
552	 6.64992246479151E-02 
553	 0.066630819189999 
554	 6.66181981090789E-02 
555	 6.66186219994637E-02 
556	 6.69098247312124E-02 
557	 6.71516242299673E-02 
558	 6.72501020102851E-02 
559	 6.73726592740272E-02 
560	 0.06735853551054 
561	 6.70927000649634E-02 
562	 0.067099806722357 
563	 6.73458561526409E-02 
564	 6.75418995667263E-02 
565	 6.73812235711799E-02 
566	 6.68168604985167E-02 
567	 6.65092870046891E-02 
568	 6.64050856378664E-02 
569	 6.63477546533354E-02 
570	 6.64495051948709E-02 
571	 6.66476493000294E-02 
572	 6.67310087875101E-02 
573	 6.65787472264967E-02 
574	 6.61945088234696E-02 
575	 6.63152859498904E-02 
576	 6.65461509622398E-02 
577	 0.065975738715809 
578	 6.54263332400366E-02 
579	 6.51478977431397E-02 
580	 6.49543577145145E-02 
581	 0.064909273804167 
582	 6.50413633566088E-02 
583	 6.49565543161382E-02 
584	 6.47410570291702E-02 
585	 6.48147335406338E-02 
586	 6.49514317471042E-02 
587	 6.50079539684255E-02 
588	 6.46971334416463E-02 
589	 6.43165139806396E-02 
590	 0.064292004703405 
591	 6.38867804533336E-02 
592	 6.32945239166447E-02 
593	 6.36725910469187E-02 
594	 6.40852647029273E-02 
595	 0.064013539250854 
596	 6.40433559564924E-02 
597	 6.41651096097107E-02 
598	 6.42378398865171E-02 
599	 0.06427742111016 
600	 6.42347675378983E-02 
601	 0.063918516195235 
602	 6.35678923541423E-02 
603	 6.33941505607643E-02 
604	 6.31614537467558E-02 
605	 6.29323559755267E-02 
606	 6.29682554700821E-02 
607	 6.30191443756892E-02 
608	 6.29960442534014E-02 
609	 6.30917535077155E-02 
610	 6.30149127403959E-02 
611	 6.23985695719725E-02 
612	 6.20315121024219E-02 
613	 6.19984255151043E-02 
614	 6.18443510714011E-02 
615	 6.17152717110858E-02 
616	 6.16741900781178E-02 
617	 6.15612358660812E-02 
618	 6.13209137329986E-02 
619	 6.08729584848066E-02 
620	 6.06768722662248E-02 
621	 6.08164996165679E-02 
622	 6.10206722050302E-02 
623	 6.09679319116564E-02 
624	 6.04374067924885E-02 
625	 6.04278754054753E-02 
626	 6.07061134121173E-02 
627	 6.00879116114673E-02 
628	 5.98089412444053E-02 
629	 6.02520724106558E-02 
630	 6.05811806461653E-02 
631	 6.05714129633334E-02 
632	 6.00597245248551E-02 
633	 6.01068004281146E-02 
634	 6.05734183412735E-02 
635	 6.01008302697789E-02 
636	 5.95429443984835E-02 
637	 5.94119533754461E-02 
638	 5.94706042161461E-02 
639	 5.95103090750889E-02 
640	 5.92192197921416E-02 
641	 5.88901901598065E-02 
642	 5.85886607592277E-02 
643	 5.81107036196268E-02 
644	 5.78036822601661E-02 
645	 5.79337104653131E-02 
646	 5.77905910648191E-02 
647	 5.73870200136293E-02 
648	 5.71466481424134E-02 
649	 5.68361302521866E-02 
650	 5.64354017480711E-02 
651	 5.62683043322929E-02 
652	 5.61962899934778E-02 
653	 5.60227228868701E-02 
654	 5.60049810047426E-02 
655	 5.60750855077582E-02 
656	 5.58374148343076E-02 
657	 5.54002444438701E-02 
658	 5.48869032483883E-02 
659	 5.44432254349353E-02 
660	 5.41155134651587E-02 
661	 0.053999037720866 
662	 5.32336385571545E-02 
663	 5.20213596660825E-02 
664	 5.22988104307493E-02 
665	 5.28413981296303E-02 
666	 5.25808105039018E-02 
667	 5.20380104095526E-02 
668	 5.15297038561886E-02 
669	 5.16887099918717E-02 
670	 5.14146757850806E-02 
671	 5.05805927590177E-02 
672	 5.09415085964619E-02 
673	 5.15447155781316E-02 
674	 0.051177918599812 
675	 5.11368725278989E-02 
676	 5.14153604395881E-02 
677	 5.10604524689788E-02 
678	 5.08303116537948E-02 
679	 0.051122217761627 
680	 5.16361903309067E-02 
681	 5.21468011981978E-02 
682	 5.23609281643105E-02 
683	 5.27591816769995E-02 
684	 5.33874970407594E-02 
685	 5.38195507082064E-02 
686	 5.44881187193944E-02 
687	 5.57330138220953E-02 
688	 5.67428238437448E-02 
689	 5.75774721807092E-02 
690	 5.88790663051773E-02 
691	 6.05369710330798E-02 
692	 6.24598516603083E-02 
693	 6.41305030357703E-02 
694	 6.59792253946401E-02 
695	 0.068364665600268 
696	 0.070378802602401 
697	 7.21071307200323E-02 
698	 7.43922934847706E-02 
699	 7.65305557821694E-02 
700	 7.82384006132492E-02 
701	 0.080228167846011 
702	 8.24306770622181E-02 
703	 8.46451164542739E-02 
704	 8.66678433431402E-02 
705	 8.84626849750096E-02 
706	 9.01044487996853E-02 
707	 9.14572328672589E-02 
708	 9.25249842679813E-02 
709	 9.41058316512346E-02 
710	 0.095920580828111 
711	 0.097252532902412 
712	 9.85631321564077E-02 
713	 9.99429094699723E-02 
714	 0.101245898449162 
715	 0.102357812481015 
716	 0.103237257271579 
717	 0.104061975955846 
718	 0.105042920187162 
719	 0.106531446609187 
720	 0.107736907317957 
721	 0.108375264419845 
722	 0.108853429802879 
723	 0.109316401065643 
724	 0.109846760207227 
725	 0.110823129034894 
726	 0.111987408424743 
727	 0.112543830698567 
728	 0.112831256785308 
729	 0.113066673182463 
730	 0.113498890959799 
731	 0.114008491601387 
732	 0.114385483703668 
733	 0.114734472000144 
734	 0.11509910829298 
735	 0.115551467216859 
736	 0.115843337047085 
737	 0.115877637464644 
738	 0.116477899356899 
739	 0.117279532067427 
740	 0.117381021900981 
741	 0.117548271235748 
742	 0.117917853349205 
743	 0.118039060528534 
744	 0.11810311447712 
745	 0.118273222165262 
746	 0.118314918817632 
747	 0.118348374995731 
748	 0.118760734111634 
749	 0.11914109697909 
750	 0.119330844721322 
751	 0.119369960497154 
752	 0.119454984501792 
753	 0.119774881253896 
754	 0.119895757078334 
755	 0.119866769007229 
756	 0.120154659892873 
757	 0.12007669278143 
758	 0.119456178077795 
759	 0.119767862584669 
760	 0.121314944760569 
761	 0.122749747506937 
762	 0.123082279888292 
763	 0.122723341458314 
764	 0.123042909383614 
765	 0.123092795244526 
766	 0.122684700192071 
767	 0.122517783665536 
768	 0.122543106392422 
769	 0.122662795290538 
770	 0.12289112812172 
771	 0.123127043097741 
772	 0.123047769790908 
773	 0.122897866083952 
774	 0.122860929130343 
775	 0.122942317675611 
776	 0.1231775083979 
777	 0.123630247235787 
778	 0.12401967751352 
779	 0.12422204312643 
780	 0.124161724802612 
781	 0.124185432762909 
782	 0.124529258130439 
783	 0.124620305369136 
784	 0.124478963576364 
785	 0.124339495956429 
786	 0.124276798600444 
787	 0.124367682418712 
788	 0.124739064265686 
789	 0.125147033234286 
790	 0.125352030324326 
791	 0.125425590620478 
792	 0.125455565599105 
793	 0.12561098661693 
794	 0.125861390808525 
795	 0.126094378848942 
796	 0.125765502152569 
797	 0.125526408841271 
798	 0.126011747528688 
799	 0.126285855192868 
800	 0.126237689171069 
801	 0.126022205927414 
802	 0.126194361359519 
803	 0.126794851072357 
804	 0.126617426057636 
805	 0.126336040760011 
806	 0.126722427045439 
807	 0.126383803610571 
808	 0.125723402263922 
809	 0.126791799655354 
810	 0.127447769220935 
811	 0.126939580551591 
812	 0.126890283314335 
813	 0.127454625600736 
814	 0.128612392340905 
815	 0.129010796973495 
816	 0.128696649183964 
817	 0.129197522169379 
818	 0.129300646387217 
819	 0.128768876249743 
820	 0.129215068705893 
821	 0.129964888945234 
822	 0.130092855179834 
823	 0.130236177007235 
824	 0.130374654072041 
825	 0.130102274575859 
826	 0.129718062160119 
827	 0.129509420216865 
828	 0.130500392781544 
829	 0.131183376861976 
830	 0.129716541164345 
831	 0.129299847970948 
832	 0.130121506170917 
833	 0.130593979329963 
834	 0.130733670111527 
835	 0.130617950192992 
836	 0.131011422163632 
837	 0.131406108044786 
838	 0.13118672187676 
839	 0.131251043242275 
840	 0.131547397128597 
841	 0.131283964558506 
842	 0.131475429458318 
843	 0.132310618983961 
844	 0.132222797748499 
845	 0.131829966403968 
846	 0.131958452635595 
847	 0.132084496016474 
848	 0.132178599740325 
849	 0.132509881754598 
850	 0.132430954753294 
851	 0.131890716779379 
852	 0.132255327314763 
853	 0.13285639236759 
854	 0.132867817091325 
855	 0.1328379257061 
856	 0.132857265224235 
857	 0.132899378317543 
858	 0.132921269114614 
859	 0.13283848939321 
860	 0.132219275066381 
861	 0.13204063207131 
862	 0.133137950990005 
863	 0.13365490193121 
864	 0.133553456846719 
865	 0.133556451862964 
866	 0.134086570765378 
867	 0.134971385554135 
868	 0.134553319001476 
869	 0.134085717626369 
870	 0.134590518841197 
871	 0.135154701470744 
872	 0.135498640480429 
873	 0.135353755219899 
874	 0.135507294836126 
875	 0.135865856220178 
876	 0.134889202579474 
877	 0.134271921393156 
878	 0.135185227365681 
879	 0.136746036788927 
880	 0.137909332531819 
881	 0.137272894081448 
882	 0.136111571808317 
883	 0.135179301749165 
884	 0.135647490365253 
885	 0.136217923688794 
886	 0.136087262358865 
887	 0.135141752174688 
888	 0.134958255540098 
889	 0.137510170196595 
890	 0.138847102445975 
891	 0.138410347575114 
892	 0.137850247663845 
893	 0.136213564094383 
894	 0.133850497664668 
895	 0.13502483071263 
896	 0.137593739343731 
897	 0.138502034978308 
898	 0.138118928105709 
899	 0.137733607349199 
900	 0.140783102232863 
901	 0.140754794653974 
902	 0.13711154801915 
903	 0.137649394155312 
904	 0.138655513330116 
905	 0.137379176682694 
906	 0.138010238284656 
907	 0.139412024635064 
908	 0.138508896992876 
909	 0.138403585705874 
910	 0.139363159666351 
911	 0.138588479877876 
912	 0.139151097090317 
913	 0.142132964647597 
914	 0.142396380270971 
915	 0.141507024039009 
916	 0.142022289402325 
917	 0.142686173986726 
918	 0.142399387474618 
919	 0.138238899749119 
920	 0.138057606404345 
921	 0.14252881446645 
922	 0.139270957958282 
923	 0.136339172308741 
924	 0.140724937386215 
925	 0.139783824390616 
926	 0.135479689428219 
927	 0.136903169616127 
928	 0.139540945532548 
929	 0.141063001450428 
930	 0.137322014469914 
931	 0.134263221788979 
932	 0.136822605387447 
933	 0.139560838984162 
934	 0.140685548558738 
935	 0.139065145186057 
936	 0.137591533434583 
937	 0.138216030135444 
938	 0.144367656455775 
939	 0.144406183130514 
940	 0.138076324617721 
941	 0.142712857229347 
942	 0.144263606160293 
943	 0.134083632983229 
944	 0.133465879407523 
945	 0.13883647907568 
946	 0.139932617660474 
947	 0.1449621705077 
948	 0.152317742366982 
949	 0.152384789264384 
950	 0.146888117305265 
951	 0.138921126899023 
952	 0.140034306318304 
953	 0.142548083762483 
954	 0.13933724835169 
955	 0.140242171946882 
956	 0.143540683668487 
957	 0.143544998067088 
958	 0.142206662858116 
959	 0.140272063896743 
960	 0.137592846542558 
961	 0.139959118619906 
962	 0.14796935385724 
963	 0.150085577838914 
964	 0.148541899355938 
965	 0.146374153919552 
966	 0.142471937338754 
967	 0.138417843315593 
968	 0.136893483529854 
969	 0.137962739169513 
970	 0.140452289981838 
971	 0.140299746559232 
972	 0.138576412655726 
973	 0.136411588944821 
974	 0.135636059801521 
975	 0.139611671939673 
976	 0.150431927674321 
977	 0.148152657543187 
978	 0.138112792912588 
979	 0.140305196226361 
980	 0.144062540251865 
981	 0.14575606788182 
982	 0.143400957153156 
983	 0.142057783496342 
984	 0.14433257861885 
985	 0.147220636199102 
986	 0.149560015985075 
987	 0.150384068838424 
988	 0.149077707088174 
989	 0.146756327464031 
990	 0.145903759415431 
991	 0.142711515852232 
992	 0.13816482120517 
993	 0.13929092687074 
994	 0.141898445097158 
995	 0.143338207774901 
996	 0.142060027486586 
997	 0.140711586317863 
998	 0.141910065987785 
999	 0.142930296940896 
1000	 0.143548705367214 
1001	 0.144347479808743 
1002	 0.137673098776052 
1003	 0.128038244691851 
1004	 0.136351353785736 
1005	 0.146882940602112 
1006	 0.150811636004477 
1007	 0.13924413300218 
1008	 0.13272894683668 
1009	 0.145257419530994 
1010	 0.150249603412414 
1011	 0.147084987895048 
1012	 0.140120027693099 
1013	 0.137524858628209 
1014	 0.139173181472609 
1015	 0.139161703236344 
1016	 0.139148643932315 
1017	 0.139925365102774 
1018	 0.143631272106932 
1019	 0.144820654346178 
1020	 0.141424493587125 
1021	 0.140574056735712 
1022	 0.141653447405163 
1023	 0.143354592443355 
1024	 0.146766969733135 
1025	 0.147915832306266 
1026	 0.140356963922508 
1027	 0.142613570514425 
1028	 0.150860035114671 
1029	 0.137209076643625 
1030	 0.13530767855661 
1031	 0.149754656123368 
1032	 0.143764007627256 
1033	 0.139880476821571 
1034	 0.149998274940054 
1035	 0.148650507500181 
1036	 0.144077336445715 
1037	 0.146546348538143 
1038	 0.147957545270775 
1039	 0.147518958757297 
1040	 0.146315010052727 
1041	 0.146943936483722 
1042	 0.148002204272197 
1043	 0.142979152512149 
1044	 0.14146480555681 
1045	 0.145426527810382 
1046	 0.148068707038511 
1047	 0.137962852516083 
1048	 0.114709936861416 
1049	 0.126024949919442 
1050	 0.143039336987112 
1051	 0.137275696581161 
1052	 0.133371680402314 
1053	 0.133431042467363 
1054	 0.135188609999023 
1055	 0.148385603960643 
1056	 0.167004366088533 
1057	 0.174857598623914 
1058	 0.169059594189745 
1059	 0.150994134014242 
1060	 0.136461290188352 
1061	 0.124442775966155 
1062	 0.116298182882466 
1063	 0.129513332577686 
1064	 0.140794500250402 
1065	 0.13734342958919 
1066	 0.162063945578936 
1067	 0.183404110618174 
1068	 0.166181121885792 
1069	 0.140313233621584 
1070	 0.12474875567744 
1071	 0.139554238037926 
1072	 0.1366003578808 
1073	 0.116663887697397 
1074	 0.109103696291159 
1075	 0.125251582203883 
