Wavelength	A00275.asd
325	 3.44467348043772E-02 
326	 3.74741348762683E-02 
327	 4.29794491485192E-02 
328	 4.03048129379258E-02 
329	 3.98530539861804E-02 
330	 4.38996344447272E-02 
331	 0.043307984795806 
332	 4.15782161380877E-02 
333	 4.25494398081239E-02 
334	 4.20635189263103E-02 
335	 4.17659097814857E-02 
336	 4.79074309897454E-02 
337	 4.88013121947572E-02 
338	 4.29460394321753E-02 
339	 4.13537288049967E-02 
340	 4.06712484426981E-02 
341	 3.83613704261742E-02 
342	 4.31644014166992E-02 
343	 0.04976738874473 
344	 4.67084780095878E-02 
345	 4.21234917132355E-02 
346	 3.89877021770073E-02 
347	 3.89209876199832E-02 
348	 4.08804548511514E-02 
349	 4.36846544567342E-02 
350	 4.49855705265954E-02 
351	 4.44239541344574E-02 
352	 4.19812063739511E-02 
353	 3.94659962687183E-02 
354	 3.84166920937246E-02 
355	 4.21958933249364E-02 
356	 4.45820931343513E-02 
357	 4.24812798526193E-02 
358	 4.33019683906493E-02 
359	 4.53080705443667E-02 
360	 4.46515486000624E-02 
361	 4.28219250499477E-02 
362	 4.12984621336686E-02 
363	 4.38653271773014E-02 
364	 0.044838463767166 
365	 4.18844094854089E-02 
366	 4.07409112295966E-02 
367	 4.12405750876459E-02 
368	 4.23287084908631E-02 
369	 4.28250066995702E-02 
370	 4.24410312848003E-02 
371	 4.12836838108337E-02 
372	 4.12348541028513E-02 
373	 4.28628773454143E-02 
374	 4.19998904082589E-02 
375	 4.10303278835678E-02 
376	 4.36795419219981E-02 
377	 4.40926158395251E-02 
378	 4.18298672890617E-02 
379	 3.97667159752941E-02 
380	 4.03309614464063E-02 
381	 4.38660953611575E-02 
382	 4.35566879726563E-02 
383	 0.042097870793194 
384	 4.38660347589875E-02 
385	 4.43621478431504E-02 
386	 4.31773555383576E-02 
387	 4.22624042858102E-02 
388	 4.23324390742998E-02 
389	 4.31792371700561E-02 
390	 4.11282381529442E-02 
391	 3.93734812453912E-02 
392	 4.18064118611012E-02 
393	 4.28887423136915E-02 
394	 4.21661892298021E-02 
395	 4.18434811143927E-02 
396	 4.21717442934584E-02 
397	 4.29828147995612E-02 
398	 4.29126656637928E-02 
399	 0.041745118791887 
400	 3.94855220717638E-02 
401	 3.95055441768383E-02 
402	 4.11720270507472E-02 
403	 4.15607517420824E-02 
404	 4.13115967192123E-02 
405	 4.08385970177095E-02 
406	 4.11451205144145E-02 
407	 0.041912086939973 
408	 4.26113554242083E-02 
409	 4.22006691212505E-02 
410	 4.10908237953162E-02 
411	 4.10522047526067E-02 
412	 4.14458841708301E-02 
413	 4.18433966951509E-02 
414	 4.15908552859503E-02 
415	 4.11033264942751E-02 
416	 4.09953683936012E-02 
417	 4.07999045202065E-02 
418	 4.07076445041993E-02 
419	 4.17684493156437E-02 
420	 4.21079245438362E-02 
421	 4.10326578442706E-02 
422	 4.14124741724296E-02 
423	 4.24097827997188E-02 
424	 4.23573755653392E-02 
425	 4.22188639954743E-02 
426	 4.22605101725118E-02 
427	 4.26136704667651E-02 
428	 0.042796026613739 
429	 4.25593625724215E-02 
430	 4.26755781502397E-02 
431	 4.28563618488438E-02 
432	 4.24737565536963E-02 
433	 4.18447093428653E-02 
434	 4.13548596063356E-02 
435	 4.20058411131436E-02 
436	 4.24727734425173E-02 
437	 4.19966349657365E-02 
438	 4.22809283046851E-02 
439	 4.28563906744454E-02 
440	 4.23828216904359E-02 
441	 4.23170319821831E-02 
442	 4.28528254638574E-02 
443	 4.28979759676992E-02 
444	 4.26854955441203E-02 
445	 4.24980582422847E-02 
446	 4.30656374091173E-02 
447	 0.043884111739483 
448	 4.35417099959689E-02 
449	 4.33831691240609E-02 
450	 4.37278778935854E-02 
451	 4.37764689930192E-02 
452	 0.043709350350666 
453	 4.37352543396599E-02 
454	 4.35547884726094E-02 
455	 4.33539958262888E-02 
456	 4.37829794354564E-02 
457	 4.41986750355181E-02 
458	 4.43648418900152E-02 
459	 4.47055064106636E-02 
460	 4.48031529066693E-02 
461	 4.41600467446797E-02 
462	 4.37896507050027E-02 
463	 4.37809217669788E-02 
464	 4.35485364292307E-02 
465	 4.35618742671054E-02 
466	 4.39930187502406E-02 
467	 4.43342055336535E-02 
468	 0.044366618766168 
469	 4.38719265876154E-02 
470	 4.39899252219086E-02 
471	 4.46590038099383E-02 
472	 4.45165524743679E-02 
473	 4.42853548910604E-02 
474	 0.044387403380262 
475	 4.42226128706331E-02 
476	 4.41167102492649E-02 
477	 4.48039666140624E-02 
478	 4.48830564286869E-02 
479	 4.42689657853208E-02 
480	 4.43971436061002E-02 
481	 4.49184300447464E-02 
482	 4.54344508065096E-02 
483	 4.49529765142898E-02 
484	 0.044138707193343 
485	 4.51130497420707E-02 
486	 4.53526074555892E-02 
487	 4.43905210794799E-02 
488	 4.49876674589993E-02 
489	 4.57543191960507E-02 
490	 4.51796644281546E-02 
491	 4.46361618300755E-02 
492	 4.45485857850901E-02 
493	 4.53516114240111E-02 
494	 4.59323703358987E-02 
495	 4.58491454211003E-02 
496	 4.58225908396412E-02 
497	 4.59204450575592E-02 
498	 4.61369372355776E-02 
499	 4.63971430921639E-02 
500	 4.66104989083636E-02 
501	 4.65383577793912E-02 
502	 4.66128748954401E-02 
503	 4.70435801643907E-02 
504	 4.72647449819114E-02 
505	 4.73625611688363E-02 
506	 4.75896663455511E-02 
507	 4.80349404076237E-02 
508	 4.86171253597362E-02 
509	 4.89365860303117E-02 
510	 4.89916911789433E-02 
511	 4.88624841706567E-02 
512	 4.93703524149849E-02 
513	 5.02112806623922E-02 
514	 0.050317540706373 
515	 5.05710221661664E-02 
516	 0.051195112585661 
517	 5.15630229693695E-02 
518	 5.20614656880435E-02 
519	 5.31020076959605E-02 
520	 5.37760857163255E-02 
521	 5.40655999364869E-02 
522	 5.44413526533873E-02 
523	 5.49149897647969E-02 
524	 5.55052127436003E-02 
525	 5.61720110022629E-02 
526	 5.67537481438619E-02 
527	 5.70293509061467E-02 
528	 5.74856493409999E-02 
529	 5.81169380402109E-02 
530	 5.84338575629966E-02 
531	 5.87855556565117E-02 
532	 5.93936492445807E-02 
533	 6.00464869196477E-02 
534	 6.05371098759844E-02 
535	 6.05040102241843E-02 
536	 6.07124110042057E-02 
537	 6.12973458479802E-02 
538	 6.15892247541277E-02 
539	 6.18095526253616E-02 
540	 6.21940489441387E-02 
541	 6.26070045439268E-02 
542	 6.28909318461743E-02 
543	 6.26450292595474E-02 
544	 6.27014132017759E-02 
545	 6.33186595576159E-02 
546	 6.36777238220124E-02 
547	 6.38202048906175E-02 
548	 0.063904002735166 
549	 6.41859934303076E-02 
550	 6.46474033577774E-02 
551	 6.49725014351961E-02 
552	 6.52297868285354E-02 
553	 6.54669402639082E-02 
554	 6.57461740914627E-02 
555	 6.59895566175745E-02 
556	 6.60257646123264E-02 
557	 6.61646647502665E-02 
558	 0.066412230475624 
559	 6.63065366236171E-02 
560	 6.61353621350158E-02 
561	 6.61755798332911E-02 
562	 6.62372606836711E-02 
563	 6.62872080296546E-02 
564	 6.63348652239445E-02 
565	 6.63702090787967E-02 
566	 6.63538241289056E-02 
567	 6.61271362044672E-02 
568	 6.57677462828493E-02 
569	 6.53928960485409E-02 
570	 6.53075378376211E-02 
571	 0.065476261961092 
572	 6.55546543688278E-02 
573	 0.065263818692181 
574	 6.45614845962276E-02 
575	 6.46805446232932E-02 
576	 6.51215931866975E-02 
577	 6.46553007045869E-02 
578	 6.42136793116476E-02 
579	 6.40177197032254E-02 
580	 6.36580074418297E-02 
581	 6.34851548301105E-02 
582	 6.37757860759902E-02 
583	 6.38856811918882E-02 
584	 6.38113655560221E-02 
585	 6.39058828973262E-02 
586	 6.38760649991701E-02 
587	 6.36204101108992E-02 
588	 6.32742596884724E-02 
589	 6.29768848032655E-02 
590	 6.28942258651199E-02 
591	 0.062634358833271 
592	 6.22647950974303E-02 
593	 6.22734303311364E-02 
594	 6.24573218305926E-02 
595	 6.26672243933886E-02 
596	 6.27353392548658E-02 
597	 6.27103819481493E-02 
598	 6.27416576660866E-02 
599	 0.062622860541926 
600	 6.23236644837102E-02 
601	 6.19541102450673E-02 
602	 6.17508910309347E-02 
603	 6.19025073752233E-02 
604	 6.21871193900835E-02 
605	 0.062349753901104 
606	 6.18524672507678E-02 
607	 6.14643471248218E-02 
608	 6.14888759349404E-02 
609	 0.061657711311237 
610	 6.16465158438574E-02 
611	 6.10945326225888E-02 
612	 6.07897573020638E-02 
613	 6.07979378700725E-02 
614	 6.05960455257781E-02 
615	 6.04933946590598E-02 
616	 0.060597044181099 
617	 6.01920219675796E-02 
618	 5.96308423833474E-02 
619	 0.059665580504485 
620	 5.98812797168701E-02 
621	 6.00515659852752E-02 
622	 5.98071474618367E-02 
623	 5.93591548960733E-02 
624	 5.89506874643689E-02 
625	 5.90056590433154E-02 
626	 5.93174110382328E-02 
627	 0.059098771787368 
628	 5.90657930537915E-02 
629	 5.94094360361087E-02 
630	 5.95505243060128E-02 
631	 5.93980581336611E-02 
632	 5.89204232866903E-02 
633	 5.91831931722097E-02 
634	 0.05993951377291 
635	 5.95445765048486E-02 
636	 5.88618913353561E-02 
637	 5.84378057512569E-02 
638	 5.82906734934386E-02 
639	 0.058122351571672 
640	 5.73483013080506E-02 
641	 5.70418597181035E-02 
642	 5.73107535466625E-02 
643	 5.70403624726648E-02 
644	 5.66578585767323E-02 
645	 5.65594793384203E-02 
646	 5.65103585203213E-02 
647	 5.63148465784536E-02 
648	 5.55055178789999E-02 
649	 5.50635820467669E-02 
650	 5.52262108800976E-02 
651	 5.47816964219508E-02 
652	 5.42141814600718E-02 
653	 0.054204059421826 
654	 5.42794265795642E-02 
655	 5.42752915231673E-02 
656	 5.40620461750623E-02 
657	 5.37092246599701E-02 
658	 5.32959799500638E-02 
659	 5.28662844191959E-02 
660	 5.24898272950193E-02 
661	 5.23038843431053E-02 
662	 5.16598301810221E-02 
663	 5.06660573299123E-02 
664	 5.05697530427432E-02 
665	 5.08097765799118E-02 
666	 5.08144062925055E-02 
667	 4.99467912161992E-02 
668	 4.87022270229056E-02 
669	 4.85101695064499E-02 
670	 4.85974798376833E-02 
671	 4.87187341714015E-02 
672	 4.90783296793284E-02 
673	 4.93288219038506E-02 
674	 4.90898835050639E-02 
675	 4.90463250579101E-02 
676	 0.049183808766976 
677	 4.88791222236267E-02 
678	 4.88549024572892E-02 
679	 4.94193033288412E-02 
680	 4.97392574267972E-02 
681	 4.99733056416392E-02 
682	 5.05395363183189E-02 
683	 5.10595643576304E-02 
684	 5.15478087529996E-02 
685	 5.25120315832903E-02 
686	 5.36799659943675E-02 
687	 5.47735857681266E-02 
688	 5.58189101149549E-02 
689	 5.69026853075013E-02 
690	 5.84083500677572E-02 
691	 6.00361416342876E-02 
692	 0.061785530905794 
693	 6.39359636204375E-02 
694	 6.63234361156743E-02 
695	 6.86645902106578E-02 
696	 7.11465873754237E-02 
697	 0.073656742257903 
698	 7.58915946215675E-02 
699	 7.81293264158943E-02 
700	 8.04719433361887E-02 
701	 8.28928083301812E-02 
702	 8.53004488506493E-02 
703	 8.75844657498252E-02 
704	 8.97862858232095E-02 
705	 9.19353008247873E-02 
706	 9.40201933648103E-02 
707	 9.59774720797525E-02 
708	 9.77783105863416E-02 
709	 9.95231489984621E-02 
710	 0.101371450448687 
711	 0.10364792068919 
712	 0.105340802953663 
713	 0.106388168566144 
714	 0.108107790860488 
715	 0.109913114561205 
716	 0.11129440207627 
717	 0.112318295015188 
718	 0.113350261374709 
719	 0.115427600362716 
720	 0.116815866369725 
721	 0.117158286904619 
722	 0.118125888190554 
723	 0.119271607086419 
724	 0.119916572722802 
725	 0.12063744586577 
726	 0.121610186057321 
727	 0.123230378331169 
728	 0.124245800606139 
729	 0.124151165017925 
730	 0.124276742397239 
731	 0.124820104967906 
732	 0.125802232170181 
733	 0.126409234137931 
734	 0.126632392461775 
735	 0.127066503939346 
736	 0.127850657744649 
737	 0.128925118832427 
738	 0.128999687385767 
739	 0.128698064480736 
740	 0.12952922137361 
741	 0.130256392403327 
742	 0.130530834558192 
743	 0.130618717081134 
744	 0.130568093369183 
745	 0.130468007688196 
746	 0.130949575455037 
747	 0.131717285253207 
748	 0.131788247041701 
749	 0.132013480618637 
750	 0.132503144661033 
751	 0.132124001245743 
752	 0.131858760799904 
753	 0.13275652852532 
754	 0.133142435738646 
755	 0.133019475569431 
756	 0.133493877641263 
757	 0.133635363303327 
758	 0.133161962899606 
759	 0.133418425451949 
760	 0.134749255499936 
761	 0.136200203535323 
762	 0.136393024199039 
763	 0.135842654611921 
764	 0.136359017534948 
765	 0.136677275540086 
766	 0.136452947508991 
767	 0.136332426322574 
768	 0.136323374545359 
769	 0.13637859367569 
770	 0.136693088398278 
771	 0.137068672636619 
772	 0.136558866814339 
773	 0.136394553882414 
774	 0.137270490888562 
775	 0.137506500662948 
776	 0.137440431658103 
777	 0.138158810772284 
778	 0.138434309930657 
779	 0.138104419018568 
780	 0.138087605347077 
781	 0.138253216321336 
782	 0.138477213163313 
783	 0.138732971382454 
784	 0.139071066392014 
785	 0.139685730365328 
786	 0.139811089690707 
787	 0.139332259564831 
788	 0.138993982619839 
789	 0.139102815003635 
790	 0.139853466718327 
791	 0.140466972073326 
792	 0.140764087588816 
793	 0.140700940015062 
794	 0.140854605905132 
795	 0.141276790897186 
796	 0.140962975902752 
797	 0.140621897443884 
798	 0.14098572801417 
799	 0.141301368097668 
800	 0.141443045820665 
801	 0.141443946290418 
802	 0.141673329395451 
803	 0.14214021976041 
804	 0.141994196208008 
805	 0.141696882188648 
806	 0.141807291575242 
807	 0.142051258260758 
808	 0.142373588635437 
809	 0.142782653666901 
810	 0.143141158557829 
811	 0.143346482342649 
812	 0.143213826882813 
813	 0.143170110547496 
814	 0.143783366406753 
815	 0.144610268632211 
816	 0.145264232425316 
817	 0.145030302708762 
818	 0.144707249274853 
819	 0.144769705741121 
820	 0.145586007248846 
821	 0.146326889655827 
822	 0.14600608704296 
823	 0.145904473345021 
824	 0.146129384320877 
825	 0.146048317977532 
826	 0.146195785608331 
827	 0.146731483407678 
828	 0.14722960898565 
829	 0.147286240002739 
830	 0.146529020580362 
831	 0.146699191302813 
832	 0.147648847034383 
833	 0.147811782567919 
834	 0.147676128972983 
835	 0.147581956079895 
836	 0.148391134528447 
837	 0.149076611344379 
838	 0.148454866017694 
839	 0.147900955516149 
840	 0.147706367710809 
841	 0.147728432819569 
842	 0.148040284312799 
843	 0.1485407852864 
844	 0.148531027213362 
845	 0.148545943617941 
846	 0.149211406898893 
847	 0.149451500953022 
848	 0.149275092223356 
849	 0.149433927602738 
850	 0.149219451332526 
851	 0.148645466918053 
852	 0.14944572208256 
853	 0.150369114303824 
854	 0.149999288597992 
855	 0.150258891387167 
856	 0.150856039520505 
857	 0.15010846164171 
858	 0.149425898377398 
859	 0.14927299255609 
860	 0.149281146018761 
861	 0.149617894461926 
862	 0.150368860037914 
863	 0.150182677513422 
864	 0.149884568219376 
865	 0.15217325696457 
866	 0.153219145134689 
867	 0.152115137072333 
868	 0.151341001054986 
869	 0.151384632992558 
870	 0.152404807356838 
871	 0.152708440775698 
872	 0.152589307720897 
873	 0.153208389520396 
874	 0.153433278089253 
875	 0.153120916473888 
876	 0.15300207542358 
877	 0.153539201541182 
878	 0.154760964607473 
879	 0.15409401536133 
880	 0.152932798249906 
881	 0.154099267354721 
882	 0.154728063819393 
883	 0.154360901475861 
884	 0.154193390875086 
885	 0.154319857346663 
886	 0.154686086767245 
887	 0.154203148863906 
888	 0.154148727448804 
889	 0.156259875528344 
890	 0.156329419839058 
891	 0.15464329854077 
892	 0.155416138476896 
893	 0.156302769182199 
894	 0.156259149284953 
895	 0.155623329432178 
896	 0.155976997846725 
897	 0.158849578319463 
898	 0.159065045296652 
899	 0.157393374802412 
900	 0.158728026058379 
901	 0.159662227092594 
902	 0.159243677146975 
903	 0.15825668088338 
904	 0.157633245716498 
905	 0.158044569685043 
906	 0.158776455935986 
907	 0.159424652915138 
908	 0.159471994507447 
909	 0.160016517751676 
910	 0.161073891710163 
911	 0.161506340351377 
912	 0.161220748749114 
913	 0.160511754913852 
914	 0.16152831094555 
915	 0.163033132182946 
916	 0.163247649049428 
917	 0.16281072074848 
918	 0.161662355124152 
919	 0.158744692927192 
920	 0.158896756986249 
921	 0.162327911964803 
922	 0.160451165847672 
923	 0.158196607314005 
924	 0.160060991138749 
925	 0.160466523677296 
926	 0.159274167009461 
927	 0.158162921826717 
928	 0.158920437576845 
929	 0.161280233599179 
930	 0.159692466989941 
931	 0.157623649695233 
932	 0.157799659808358 
933	 0.156092298645906 
934	 0.155997008432339 
935	 0.162728089720418 
936	 0.166215904954125 
937	 0.164995731006193 
938	 0.162542416255422 
939	 0.158518907092339 
940	 0.155107738395847 
941	 0.161715609577839 
942	 0.164423475945825 
943	 0.155204508904674 
944	 0.158763722922063 
945	 0.166604144028165 
946	 0.160499513323647 
947	 0.161130411493597 
948	 0.168998005725146 
949	 0.168795516181175 
950	 0.166415735181611 
951	 0.164634980999103 
952	 0.164721868651573 
953	 0.16327092876585 
954	 0.158094944085979 
955	 0.161373092150883 
956	 0.168092414559337 
957	 0.165911097840729 
958	 0.16419692770507 
959	 0.163110253040982 
960	 0.152678333257297 
961	 0.155319178358011 
962	 0.174967059632554 
963	 0.172083438490611 
964	 0.162014305506141 
965	 0.161740018487044 
966	 0.159881057370156 
967	 0.157818688109103 
968	 0.161752482814147 
969	 0.161401697557168 
970	 0.156540149079215 
971	 0.157648817130338 
972	 0.160360573844377 
973	 0.162161354941783 
974	 0.163645584971165 
975	 0.164930479469842 
976	 0.166113734644344 
977	 0.167428925963439 
978	 0.16707967204345 
979	 0.160788270569778 
980	 0.159639145124694 
981	 0.164167760000926 
982	 0.163244378425631 
983	 0.162393849143865 
984	 0.164216605012345 
985	 0.164491523399932 
986	 0.165784848764308 
987	 0.170415498116538 
988	 0.166675442982235 
989	 0.159865747937313 
990	 0.164840108940272 
991	 0.166546155654313 
992	 0.163060811529995 
993	 0.163627340771022 
994	 0.165582870065507 
995	 0.167091135432336 
996	 0.166061754691127 
997	 0.163047398734086 
998	 0.159352445073731 
999	 0.159716556417045 
1000	 0.162962417569679 
1001	 0.165598481633081 
1002	 0.16384386447854 
1003	 0.160140087593453 
1004	 0.167107384360668 
1005	 0.167743369445582 
1006	 0.159199684771736 
1007	 0.164837802220082 
1008	 0.170970558125696 
1009	 0.166591762700065 
1010	 0.161580829140064 
1011	 0.158450435188844 
1012	 0.158937309508459 
1013	 0.160906143624788 
1014	 0.162663491744725 
1015	 0.162005955677027 
1016	 0.159206061493082 
1017	 0.155988226677056 
1018	 0.158270212207855 
1019	 0.162114211602898 
1020	 0.165179238963783 
1021	 0.167042906026139 
1022	 0.171138299362165 
1023	 0.179438272877093 
1024	 0.17656031305131 
1025	 0.165707309916329 
1026	 0.15645299285712 
1027	 0.161689021725371 
1028	 0.174950032136195 
1029	 0.165487316126211 
1030	 0.159288692408968 
1031	 0.162801480897246 
1032	 0.16066308382417 
1033	 0.160932427599721 
1034	 0.167913022477531 
1035	 0.174312184879431 
1036	 0.176709149931911 
1037	 0.173068373508984 
1038	 0.171188891857196 
1039	 0.171808688274067 
1040	 0.173209152066277 
1041	 0.176504544766207 
1042	 0.180944184679023 
1043	 0.184672435314326 
1044	 0.190099217862149 
1045	 0.194387832528318 
1046	 0.186882927758396 
1047	 0.167963683122882 
1048	 0.144226739191917 
1049	 0.159777199342754 
1050	 0.175276480904867 
1051	 0.156462606190788 
1052	 0.165807986746564 
1053	 0.18652194695563 
1054	 0.178426994716275 
1055	 0.176362251523324 
1056	 0.184951298284934 
1057	 0.198776144956713 
1058	 0.17965906560277 
1059	 0.136643837469097 
1060	 0.167946651324942 
1061	 0.18616708363232 
1062	 0.16384409615414 
1063	 0.174724520649081 
1064	 0.179655003290413 
1065	 0.157502420737687 
1066	 0.18701539791464 
1067	 0.210623709995018 
1068	 0.166009165813358 
1069	 0.146711187023429 
1070	 0.161824687092817 
1071	 0.191283830038578 
1072	 0.201716625298051 
1073	 0.182904756874131 
1074	 0.12886461486373 
1075	 0.134480191823338 
