Wavelength	A00262.asd
325	 3.80814623918322E-02 
326	 4.06656743331612E-02 
327	 4.37343118540836E-02 
328	 4.42387558512611E-02 
329	 4.24819234235679E-02 
330	 3.92478938228714E-02 
331	 3.62952338325093E-02 
332	 3.77273481306181E-02 
333	 0.046570989144583 
334	 4.90196111286305E-02 
335	 4.61496293016583E-02 
336	 4.58054603566261E-02 
337	 4.64033809660602E-02 
338	 0.046921027855239 
339	 4.44568154883648E-02 
340	 4.09619162684994E-02 
341	 3.84319675703512E-02 
342	 3.93923940236305E-02 
343	 0.042564524572551 
344	 4.53335804846588E-02 
345	 4.56756219997615E-02 
346	 4.39531686936367E-02 
347	 0.043899926294051 
348	 4.51054345942374E-02 
349	 4.67577131725587E-02 
350	 4.52933350187358E-02 
351	 4.26241434395391E-02 
352	 0.042411006763563 
353	 4.09140450953364E-02 
354	 3.86160495589689E-02 
355	 4.06497709102695E-02 
356	 4.19392988322453E-02 
357	 4.00271336483113E-02 
358	 4.15092678027192E-02 
359	 4.41179205687723E-02 
360	 4.33980482908749E-02 
361	 4.24232621430005E-02 
362	 4.23148853854338E-02 
363	 4.44107539089478E-02 
364	 4.48722875366986E-02 
365	 4.23046067101476E-02 
366	 4.17559747711858E-02 
367	 4.23514859299708E-02 
368	 4.22000587489464E-02 
369	 0.042839102411359 
370	 4.38336837218879E-02 
371	 4.28670113209651E-02 
372	 4.11698006248994E-02 
373	 3.97042792668404E-02 
374	 3.96296660804271E-02 
375	 4.09457946735911E-02 
376	 4.33837418365673E-02 
377	 4.35027365799152E-02 
378	 4.15129855098667E-02 
379	 4.07972406233978E-02 
380	 4.17138247123749E-02 
381	 4.39026981398372E-02 
382	 4.34509725473987E-02 
383	 4.23178596003646E-02 
384	 4.35511893717897E-02 
385	 4.45909000912022E-02 
386	 4.44462976722367E-02 
387	 4.19019724155333E-02 
388	 4.11442718520722E-02 
389	 4.32952183697023E-02 
390	 4.26654209995368E-02 
391	 4.18873139757593E-02 
392	 4.44569338856051E-02 
393	 0.043931934982245 
394	 4.09532793153796E-02 
395	 4.12030223646082E-02 
396	 4.21296335898839E-02 
397	 4.23971326621373E-02 
398	 4.11361449145385E-02 
399	 3.95426558904632E-02 
400	 3.88230953458751E-02 
401	 0.039224093390875 
402	 4.02862189658892E-02 
403	 4.09852365410443E-02 
404	 4.11269136072007E-02 
405	 4.08084261350694E-02 
406	 4.13213149199691E-02 
407	 4.19924597393966E-02 
408	 4.18649268584514E-02 
409	 4.13832585179554E-02 
410	 4.08396458212786E-02 
411	 4.06583509035739E-02 
412	 4.08604832005333E-02 
413	 4.13410588142148E-02 
414	 4.14483388899925E-02 
415	 4.12941509056118E-02 
416	 4.11141185722619E-02 
417	 4.11247127795176E-02 
418	 4.12521258162836E-02 
419	 4.10326643398091E-02 
420	 4.09527994847229E-02 
421	 4.12449252663834E-02 
422	 4.15443831361761E-02 
423	 4.17976738241309E-02 
424	 4.20014435989805E-02 
425	 0.042112754011099 
426	 4.22148665078367E-02 
427	 4.26634251367543E-02 
428	 4.29703893137713E-02 
429	 4.28270175704225E-02 
430	 4.25206049631638E-02 
431	 4.22307360965392E-02 
432	 4.21973372797798E-02 
433	 0.041702984246117 
434	 4.10363031629414E-02 
435	 4.19350332637439E-02 
436	 4.25942700690484E-02 
437	 4.19719374511668E-02 
438	 4.22875716624365E-02 
439	 4.30327547235771E-02 
440	 4.26926919668036E-02 
441	 4.24111541541813E-02 
442	 0.042485938137821 
443	 4.26784488287372E-02 
444	 4.27439540489319E-02 
445	 4.25375447995149E-02 
446	 0.042726235027145 
447	 0.043086456808348 
448	 4.28216305349862E-02 
449	 4.29036701714088E-02 
450	 4.34999292423073E-02 
451	 4.37349173734886E-02 
452	 4.37859148282435E-02 
453	 4.38700287395957E-02 
454	 4.37515388085264E-02 
455	 4.36011278350423E-02 
456	 4.40230370857615E-02 
457	 4.41981109899074E-02 
458	 0.043918018150689 
459	 4.41333104204021E-02 
460	 4.44261432272907E-02 
461	 4.42233517146727E-02 
462	 4.39664932986845E-02 
463	 4.37605581959531E-02 
464	 4.35726647436065E-02 
465	 4.34914266511821E-02 
466	 4.35753474725944E-02 
467	 4.38619125797358E-02 
468	 0.044163888892498 
469	 4.42175452611709E-02 
470	 4.42320474775899E-02 
471	 4.42210672259913E-02 
472	 4.39887164325612E-02 
473	 4.39623202363581E-02 
474	 4.43268438855964E-02 
475	 4.41815139371264E-02 
476	 0.043908852692096 
477	 0.044425034911397 
478	 4.43871662706002E-02 
479	 4.37723066247829E-02 
480	 4.41542702543576E-02 
481	 4.48178732168978E-02 
482	 4.51099422758817E-02 
483	 4.47232363066382E-02 
484	 4.41693601191218E-02 
485	 4.48895308337539E-02 
486	 4.50477447569377E-02 
487	 4.43194274328003E-02 
488	 0.04486575879603 
489	 4.53215300859625E-02 
490	 4.42853034159406E-02 
491	 4.39046593152178E-02 
492	 4.43994481789255E-02 
493	 4.53059181415999E-02 
494	 4.55525865785341E-02 
495	 4.49052224328156E-02 
496	 4.53671465312947E-02 
497	 4.61147928668867E-02 
498	 4.58503816270705E-02 
499	 4.57898013700598E-02 
500	 0.046036905666965 
501	 4.58235133321599E-02 
502	 0.045979911610842 
503	 4.68237290304966E-02 
504	 4.66779447296735E-02 
505	 4.62292320474231E-02 
506	 4.69784220513276E-02 
507	 4.74834556005301E-02 
508	 4.75345462648131E-02 
509	 4.80001367826447E-02 
510	 4.85523632106632E-02 
511	 4.89060295759047E-02 
512	 4.90565898105835E-02 
513	 4.92123766698272E-02 
514	 4.98491487212569E-02 
515	 5.05972653704907E-02 
516	 5.12463375036443E-02 
517	 5.14583508545558E-02 
518	 5.17401154899865E-02 
519	 5.26210518316293E-02 
520	 5.31686920626337E-02 
521	 0.053439441573247 
522	 5.41469926774077E-02 
523	 5.47653893335325E-02 
524	 5.51268895641711E-02 
525	 5.57912358986158E-02 
526	 5.64723384571972E-02 
527	 5.66840108744285E-02 
528	 5.70054304762061E-02 
529	 5.75353452154579E-02 
530	 5.80793042912271E-02 
531	 5.85629496878821E-02 
532	 5.89557075359279E-02 
533	 5.95087556363202E-02 
534	 6.00015897810253E-02 
535	 5.99098014121166E-02 
536	 6.00111390113437E-02 
537	 0.060486469652729 
538	 6.08480453629914E-02 
539	 6.12787410121651E-02 
540	 6.19379075053479E-02 
541	 6.21849279743814E-02 
542	 6.20828662429629E-02 
543	 6.20993093771567E-02 
544	 6.23450487343293E-02 
545	 6.28490057546663E-02 
546	 6.33606659529838E-02 
547	 6.37127641769927E-02 
548	 6.37319327605609E-02 
549	 6.38331076997806E-02 
550	 0.064144726924756 
551	 6.47132235344794E-02 
552	 6.51529037008751E-02 
553	 0.065233068085054 
554	 6.52972788551925E-02 
555	 6.53642832663365E-02 
556	 6.53616812268597E-02 
557	 6.54217644757223E-02 
558	 6.55829452898368E-02 
559	 6.58300638710906E-02 
560	 6.59177568271429E-02 
561	 6.56580234159966E-02 
562	 6.55850319013427E-02 
563	 6.57308056277494E-02 
564	 6.59430018714224E-02 
565	 6.59120669252269E-02 
566	 6.55640196612366E-02 
567	 6.54079547696306E-02 
568	 6.53582286880282E-02 
569	 6.52420664079278E-02 
570	 6.50639408830949E-02 
571	 6.49114597540957E-02 
572	 6.51362100372944E-02 
573	 6.51104698564247E-02 
574	 6.45289094361863E-02 
575	 6.43109941703498E-02 
576	 6.42881159598795E-02 
577	 0.063907190337898 
578	 0.063607757425441 
579	 6.34877382456275E-02 
580	 6.33506193414327E-02 
581	 6.32128872006874E-02 
582	 6.30995489529849E-02 
583	 6.30776175685774E-02 
584	 6.31389401459277E-02 
585	 6.32613246156599E-02 
586	 6.32925294724063E-02 
587	 6.31309441577749E-02 
588	 0.062653703771388 
589	 6.21548072344564E-02 
590	 6.20358161779859E-02 
591	 0.061989174828297 
592	 6.19860742490623E-02 
593	 6.22153004166873E-02 
594	 6.23717244856447E-02 
595	 0.062266784631887 
596	 6.19393813035008E-02 
597	 0.061715721407613 
598	 6.21772379109903E-02 
599	 6.22355000455702E-02 
600	 6.17542423493554E-02 
601	 6.17709929595682E-02 
602	 0.06184535141659 
603	 6.15796769297981E-02 
604	 6.14357112854337E-02 
605	 6.13825007433967E-02 
606	 6.10780839113802E-02 
607	 6.10766473911316E-02 
608	 6.14560717375956E-02 
609	 6.12756799953984E-02 
610	 6.07815365029277E-02 
611	 6.03958179020013E-02 
612	 0.060378228289964 
613	 6.06085058720637E-02 
614	 6.04197734058907E-02 
615	 6.02137004041429E-02 
616	 6.01950167733174E-02 
617	 5.99595344105879E-02 
618	 5.95479877115635E-02 
619	 5.90832299746449E-02 
620	 5.90248684610049E-02 
621	 5.93418047062331E-02 
622	 5.92808089174769E-02 
623	 0.058878333447825 
624	 5.82613915163594E-02 
625	 5.83647033214342E-02 
626	 5.89226520313251E-02 
627	 5.87689550013025E-02 
628	 5.86197140341643E-02 
629	 5.87028049662456E-02 
630	 0.058708118363878 
631	 5.86083459140406E-02 
632	 5.84053205394797E-02 
633	 5.84468620863901E-02 
634	 5.86549713396647E-02 
635	 5.85001795438276E-02 
636	 5.82450363871029E-02 
637	 5.80674692550664E-02 
638	 5.81097318206987E-02 
639	 5.80674316860739E-02 
640	 5.73426445420488E-02 
641	 5.69402146534013E-02 
642	 5.69564232708951E-02 
643	 5.62863437075401E-02 
644	 5.55894955207858E-02 
645	 5.54569045040858E-02 
646	 5.54048022373618E-02 
647	 5.53060312966446E-02 
648	 5.51212214878779E-02 
649	 5.46695826429308E-02 
650	 5.40382473577314E-02 
651	 5.41076030753538E-02 
652	 5.43350920481835E-02 
653	 5.39989288939315E-02 
654	 5.39958760322167E-02 
655	 5.42305482067467E-02 
656	 5.35918498337821E-02 
657	 5.30231328301198E-02 
658	 5.29871919670482E-02 
659	 5.22867089813255E-02 
660	 0.05146634718392 
661	 5.16479899245999E-02 
662	 5.13088667130746E-02 
663	 5.03023492969812E-02 
664	 0.049904237374031 
665	 4.99809678653166E-02 
666	 0.050300055393789 
667	 4.98570901084899E-02 
668	 4.89563808495092E-02 
669	 4.88034163097559E-02 
670	 4.86204656360917E-02 
671	 4.82674508907765E-02 
672	 4.84983770773944E-02 
673	 4.88381119336736E-02 
674	 0.048695673067319 
675	 4.85550605995195E-02 
676	 4.84980149134333E-02 
677	 4.83418513372748E-02 
678	 4.86027277804114E-02 
679	 4.94465581714553E-02 
680	 4.99049054337199E-02 
681	 5.01183480987156E-02 
682	 5.05093782896362E-02 
683	 5.09082004297546E-02 
684	 5.13634722399284E-02 
685	 0.052224703263202 
686	 5.32156202152621E-02 
687	 5.40735517974033E-02 
688	 5.50174576742837E-02 
689	 5.61124196955788E-02 
690	 5.75120391623941E-02 
691	 5.95620519966143E-02 
692	 6.21465405583989E-02 
693	 6.39269037831443E-02 
694	 6.58128596204413E-02 
695	 0.068682354876297 
696	 0.071058890156246 
697	 7.29403718904125E-02 
698	 7.51831298269711E-02 
699	 7.75839807456095E-02 
700	 8.00066045185968E-02 
701	 8.23033187464518E-02 
702	 8.45972411687523E-02 
703	 0.087095064186952 
704	 8.92371389074072E-02 
705	 9.10750452250959E-02 
706	 9.31585983859497E-02 
707	 9.53821731641058E-02 
708	 9.75907523919364E-02 
709	 9.90223724460503E-02 
710	 0.100317917073834 
711	 0.102893898246812 
712	 0.105116699814216 
713	 0.106596304327045 
714	 0.108139877718788 
715	 0.109568209408705 
716	 0.110774197264348 
717	 0.11198826758953 
718	 0.113388886930422 
719	 0.115138394845039 
720	 0.116591359819081 
721	 0.117523447307864 
722	 0.118448879076531 
723	 0.119199654712494 
724	 0.119462115668768 
725	 0.120456675584082 
726	 0.122000523442325 
727	 0.122892235210697 
728	 0.123290389795831 
729	 0.123365337117738 
730	 0.123775699728237 
731	 0.124547607443254 
732	 0.125580304626215 
733	 0.126321137022203 
734	 0.126693821990278 
735	 0.126859346873037 
736	 0.127209328226738 
737	 0.127939432261258 
738	 0.128321619640643 
739	 0.128535727838203 
740	 0.129123065566415 
741	 0.129607816983359 
742	 0.129842482487195 
743	 0.129821473938055 
744	 0.12999120651583 
745	 0.130672784923795 
746	 0.130988308164329 
747	 0.131005419350627 
748	 0.131270519690836 
749	 0.131567288121844 
750	 0.131841589452761 
751	 0.132133224417918 
752	 0.132491927542819 
753	 0.132951692895452 
754	 0.133101112431422 
755	 0.133019475569431 
756	 0.133198890058656 
757	 0.13322968723095 
758	 0.133053822834803 
759	 0.133873207336609 
760	 0.135599343430171 
761	 0.135694587053024 
762	 0.13565013346974 
763	 0.135967955754105 
764	 0.136351907424792 
765	 0.136912518777361 
766	 0.137459610086082 
767	 0.136915108781127 
768	 0.136229267688523 
769	 0.1365768361533 
770	 0.136837016534622 
771	 0.13676999931122 
772	 0.136470126848624 
773	 0.136475211965974 
774	 0.137074805036236 
775	 0.137406313297769 
776	 0.137517086554527 
777	 0.137743450146126 
778	 0.137875835082745 
779	 0.137911293374634 
780	 0.138074612089922 
781	 0.138203314874583 
782	 0.138209013294755 
783	 0.138625021919757 
784	 0.139236650293139 
785	 0.139431307440715 
786	 0.139432830449753 
787	 0.139384501366739 
788	 0.13958235244649 
789	 0.139998130779984 
790	 0.140550884761716 
791	 0.140849372469131 
792	 0.140878965408655 
793	 0.140777753777171 
794	 0.140904278566117 
795	 0.141223783588984 
796	 0.140720550147885 
797	 0.14029167587128 
798	 0.140826564222258 
799	 0.140984808364413 
800	 0.140790960280582 
801	 0.140997016241963 
802	 0.141506774756607 
803	 0.142123719628778 
804	 0.141911570632392 
805	 0.141641805008153 
806	 0.142173190593685 
807	 0.142223398538633 
808	 0.141947284291026 
809	 0.142591930869504 
810	 0.143047614089679 
811	 0.142896346516875 
812	 0.142710644105691 
813	 0.142962802966669 
814	 0.144159827143497 
815	 0.144552759731516 
816	 0.144272511605828 
817	 0.14549799612436 
818	 0.145631869815833 
819	 0.144163436092914 
820	 0.144781040688671 
821	 0.146001966990751 
822	 0.145788158040919 
823	 0.145778923510165 
824	 0.146234397646586 
825	 0.146912088926595 
826	 0.14732484997243 
827	 0.147304083015088 
828	 0.147344206914902 
829	 0.147127094719325 
830	 0.146281668661302 
831	 0.146889489922357 
832	 0.148432506835777 
833	 0.148079890325465 
834	 0.14780340900377 
835	 0.148329496450908 
836	 0.148754813152232 
837	 0.14881679006499 
838	 0.14833894889969 
839	 0.148313622305973 
840	 0.148716717106171 
841	 0.148731895180222 
842	 0.149182334051468 
843	 0.150136659466049 
844	 0.150002433473778 
845	 0.149361065351351 
846	 0.149037417705049 
847	 0.149330532828715 
848	 0.14997757265018 
849	 0.150005990115793 
850	 0.149925853435444 
851	 0.149958577524389 
852	 0.150207760445776 
853	 0.150326350615755 
854	 0.149989826600842 
855	 0.150383770223502 
856	 0.151070530697908 
857	 0.150387429262153 
858	 0.14961920635894 
859	 0.14933260510351 
860	 0.149954923944059 
861	 0.15063316209675 
862	 0.150582136520314 
863	 0.150902597469461 
864	 0.151507522484378 
865	 0.151711568838004 
866	 0.151981094618533 
867	 0.15228819914164 
868	 0.151736978333944 
869	 0.151504258882473 
870	 0.15245568687661 
871	 0.153112204002759 
872	 0.153367578881477 
873	 0.153479358761143 
874	 0.153906901381655 
875	 0.154462505982682 
876	 0.153696791181211 
877	 0.15300810314061 
878	 0.153396436340469 
879	 0.154210506232682 
880	 0.155143918990826 
881	 0.155893311529712 
882	 0.155233427680071 
883	 0.153770191348421 
884	 0.154702904127848 
885	 0.1563353671092 
886	 0.157422841238988 
887	 0.156597511307643 
888	 0.155635013406593 
889	 0.157007267820826 
890	 0.157230323616208 
891	 0.156352815636886 
892	 0.157321288678366 
893	 0.15753831134951 
894	 0.156343207017802 
895	 0.15772853557645 
896	 0.159565259751626 
897	 0.159063619137443 
898	 0.159256537496006 
899	 0.160364840344963 
900	 0.161487446034992 
901	 0.161189741287234 
902	 0.159407731726399 
903	 0.157999834917049 
904	 0.158072472528999 
905	 0.159940875637276 
906	 0.158573583669504 
907	 0.15618258627029 
908	 0.158075210140916 
909	 0.159304702823401 
910	 0.159029549289465 
911	 0.15977920210327 
912	 0.160795965659187 
913	 0.161450702906959 
914	 0.160484245795885 
915	 0.15989947381817 
916	 0.162108837866126 
917	 0.162779722158029 
918	 0.161491220181227 
919	 0.159273782518295 
920	 0.1596412106112 
921	 0.162581232899889 
922	 0.16073045410122 
923	 0.158457409474151 
924	 0.159731550216911 
925	 0.159391034821559 
926	 0.157882867132867 
927	 0.158085178334098 
928	 0.15865487778919 
929	 0.159135819155794 
930	 0.159499496830502 
931	 0.159184507180771 
932	 0.157827840095107 
933	 0.155920232872322 
934	 0.157439583464167 
935	 0.166863673028589 
936	 0.167224390845715 
937	 0.160028119426027 
938	 0.160125185836508 
939	 0.159774038762689 
940	 0.158314476323874 
941	 0.163556269097715 
942	 0.165121134570319 
943	 0.157236817219486 
944	 0.159859970089181 
945	 0.167071794907289 
946	 0.165603267079519 
947	 0.163353085127815 
948	 0.163315745929792 
949	 0.169020442458343 
950	 0.171417951049144 
951	 0.167645584510276 
952	 0.166331950461523 
953	 0.164175463055168 
954	 0.158489341297966 
955	 0.159054803828001 
956	 0.16357424575656 
957	 0.165337177762474 
958	 0.162574921073389 
959	 0.157376103396675 
960	 0.157576691150226 
961	 0.161553525966653 
962	 0.167270847211187 
963	 0.170400596485937 
964	 0.169394466199299 
965	 0.163782911411277 
966	 0.1620456275682 
967	 0.162664304627717 
968	 0.159336099291138 
969	 0.158152236260905 
970	 0.15995541869645 
971	 0.161279253582055 
972	 0.162992148432524 
973	 0.165094623859874 
974	 0.164076129380307 
975	 0.164838948815406 
976	 0.172277309507174 
977	 0.172736121061799 
978	 0.167582152646751 
979	 0.165581314484296 
980	 0.16386299008194 
981	 0.162691007639992 
982	 0.165548516380305 
983	 0.166070686257749 
984	 0.162020787517561 
985	 0.162756908608162 
986	 0.166188284195188 
987	 0.168992110260377 
988	 0.169978579062524 
989	 0.169098798132424 
990	 0.167021729867916 
991	 0.163750541158023 
992	 0.160613383272375 
993	 0.160988498328421 
994	 0.165424229635668 
995	 0.171820972999717 
996	 0.167465108380557 
997	 0.16223143297631 
998	 0.166046684345293 
999	 0.165171433130083 
1000	 0.163984336061408 
1001	 0.173935667958186 
1002	 0.168942440877062 
1003	 0.152734090330881 
1004	 0.160907073963385 
1005	 0.169686360168727 
1006	 0.168713248032486 
1007	 0.15690569719702 
1008	 0.153271859860714 
1009	 0.16957958422697 
1010	 0.175490787517133 
1011	 0.171536799490042 
1012	 0.164442474808994 
1013	 0.161395252010893 
1014	 0.163385021445068 
1015	 0.167853110679138 
1016	 0.167737785633601 
1017	 0.163606078291614 
1018	 0.168948518457828 
1019	 0.173719397620756 
1020	 0.17206293827387 
1021	 0.164239786014213 
1022	 0.160896787910423 
1023	 0.170371043038153 
1024	 0.17153719154109 
1025	 0.166735398137257 
1026	 0.165738420873938 
1027	 0.170287561835122 
1028	 0.17656193663683 
1029	 0.171937470328324 
1030	 0.162619360107209 
1031	 0.154836945334535 
1032	 0.16506530189332 
1033	 0.170455252435871 
1034	 0.160595363583621 
1035	 0.172493529078008 
1036	 0.186927298367466 
1037	 0.181943234366859 
1038	 0.172040065644842 
1039	 0.165753633366387 
1040	 0.172500059288694 
1041	 0.179536429322518 
1042	 0.181994105874685 
1043	 0.176553009184542 
1044	 0.175938773702192 
1045	 0.181839252983537 
1046	 0.179774617189176 
1047	 0.168619425332508 
1048	 0.151864476422544 
1049	 0.158307148997607 
1050	 0.171501525452214 
1051	 0.174446964733462 
1052	 0.177100265018461 
1053	 0.176407674175156 
1054	 0.166687428491484 
1055	 0.161347907926281 
1056	 0.169731346463823 
1057	 0.207807911694731 
1058	 0.198862991768665 
1059	 0.144757579528016 
1060	 0.167146095549272 
1061	 0.184216626355369 
1062	 0.167467589834706 
1063	 0.167533618641203 
1064	 0.174206679331653 
1065	 0.17994478437292 
1066	 0.20601985854711 
1067	 0.217257004578776 
1068	 0.180280965128418 
1069	 0.177620817974024 
1070	 0.198681736576505 
1071	 0.195784204451935 
1072	 0.179073806495092 
1073	 0.158480799019427 
1074	 0.152964268510052 
1075	 0.147084036922407 
