Wavelength	A00273.asd
325	 3.89528339075152E-02 
326	 4.22363539143448E-02 
327	 4.11890868900413E-02 
328	 4.17306033390738E-02 
329	 4.10121716100768E-02 
330	 3.82439327997966E-02 
331	 3.32321648571037E-02 
332	 3.26340606671647E-02 
333	 4.19168682836359E-02 
334	 4.22467180272048E-02 
335	 3.65868991330019E-02 
336	 3.88932812926855E-02 
337	 0.041957850412566 
338	 4.35853634785999E-02 
339	 4.49008009290638E-02 
340	 4.31771353860055E-02 
341	 3.73724351108281E-02 
342	 4.15815831302105E-02 
343	 5.01624690531592E-02 
344	 0.049571322081703 
345	 4.50265013995793E-02 
346	 4.01524532985736E-02 
347	 4.33048525732018E-02 
348	 4.56899583473666E-02 
349	 4.21170647770887E-02 
350	 4.16840384528862E-02 
351	 4.28039709852298E-02 
352	 0.041186181880418 
353	 3.96017568405873E-02 
354	 3.91802036590703E-02 
355	 4.15230911468944E-02 
356	 0.042752103452125 
357	 4.10740129337632E-02 
358	 4.20537398138942E-02 
359	 0.044157680406129 
360	 4.41442738315971E-02 
361	 4.38707023635649E-02 
362	 4.37899603443273E-02 
363	 4.40694075856572E-02 
364	 4.34444749289375E-02 
365	 4.16359786314347E-02 
366	 4.13948664549013E-02 
367	 4.17444346708212E-02 
368	 4.10069894842561E-02 
369	 4.09945355952537E-02 
370	 4.17885405894608E-02 
371	 4.23049457411875E-02 
372	 4.26928506194455E-02 
373	 4.29148219085679E-02 
374	 4.22631663908249E-02 
375	 4.18843663977757E-02 
376	 4.33445589837958E-02 
377	 4.34041682760261E-02 
378	 4.19115018429411E-02 
379	 4.08036682978982E-02 
380	 4.10065228036776E-02 
381	 4.27298297400804E-02 
382	 4.39462439651091E-02 
383	 4.40373468526032E-02 
384	 4.25494343773017E-02 
385	 0.043505811509001 
386	 4.59004650470314E-02 
387	 4.36333976129814E-02 
388	 0.041922445005944 
389	 4.25759460268248E-02 
390	 4.11690342801672E-02 
391	 4.02418624447557E-02 
392	 4.29934497161632E-02 
393	 4.25726673209215E-02 
394	 3.97491361694997E-02 
395	 4.10936743922177E-02 
396	 4.20460458234155E-02 
397	 4.10069497243788E-02 
398	 4.02426842486214E-02 
399	 3.99844154390891E-02 
400	 4.02154955219024E-02 
401	 4.03470526708542E-02 
402	 4.04715645856979E-02 
403	 4.12188277166892E-02 
404	 4.16952827463155E-02 
405	 4.16432351154593E-02 
406	 4.20108282121953E-02 
407	 4.23860303810346E-02 
408	 4.21738236766767E-02 
409	 4.19694975967753E-02 
410	 4.17615629555115E-02 
411	 4.09656315111263E-02 
412	 0.040836373877492 
413	 4.17033322435915E-02 
414	 4.16731915137105E-02 
415	 4.11271578965259E-02 
416	 4.07995517724628E-02 
417	 4.06011317065111E-02 
418	 4.06575921874049E-02 
419	 4.14144077610996E-02 
420	 4.18404818992024E-02 
421	 4.15072275935047E-02 
422	 4.17282694395047E-02 
423	 4.21995922002812E-02 
424	 4.22673728458013E-02 
425	 4.24068080606461E-02 
426	 4.26236903930758E-02 
427	 4.25042299367057E-02 
428	 4.24292749389558E-02 
429	 0.042610482478864 
430	 4.26463960991728E-02 
431	 4.24924851314711E-02 
432	 4.21749910079902E-02 
433	 4.18170082324313E-02 
434	 0.041597088467737 
435	 0.041958399328375 
436	 4.22543631977208E-02 
437	 4.21105538241112E-02 
438	 4.23302542044119E-02 
439	 4.26655202447205E-02 
440	 4.24474256707759E-02 
441	 4.23232579003953E-02 
442	 4.24278187764305E-02 
443	 4.24046048160516E-02 
444	 4.25264117441411E-02 
445	 0.042983133249889 
446	 4.32725463767606E-02 
447	 4.33671517991573E-02 
448	 4.34374817065074E-02 
449	 4.32682711984304E-02 
450	 4.29673581013191E-02 
451	 4.33179795397203E-02 
452	 4.39309556226827E-02 
453	 4.43514030081117E-02 
454	 4.42122902802414E-02 
455	 4.37623524459429E-02 
456	 0.043927298180473 
457	 4.39497327429941E-02 
458	 4.36594805485332E-02 
459	 4.39251647387124E-02 
460	 4.42680111919927E-02 
461	 4.40567434572683E-02 
462	 4.38888685036747E-02 
463	 4.38191628856251E-02 
464	 4.34991173686666E-02 
465	 4.35621200053853E-02 
466	 4.42316308695651E-02 
467	 4.46532811610349E-02 
468	 4.45660760526524E-02 
469	 4.37547082051662E-02 
470	 4.37912543245845E-02 
471	 4.46926567654076E-02 
472	 4.49372083671759E-02 
473	 4.48999973862207E-02 
474	 0.044804594589823 
475	 4.44325992248889E-02 
476	 4.41308229986795E-02 
477	 4.45501660219569E-02 
478	 0.044530353792112 
479	 4.40210338977851E-02 
480	 4.43023251217755E-02 
481	 4.48381931122579E-02 
482	 4.51271947279534E-02 
483	 4.48074039307086E-02 
484	 4.43353927522299E-02 
485	 4.50456002579852E-02 
486	 4.51634762016457E-02 
487	 4.44160511138267E-02 
488	 4.51009905347948E-02 
489	 4.57005732265447E-02 
490	 4.46589590316822E-02 
491	 4.42995599722004E-02 
492	 4.48231886140418E-02 
493	 4.55355038301958E-02 
494	 4.60775240678488E-02 
495	 4.62112169912065E-02 
496	 4.58348128230613E-02 
497	 4.55247101904526E-02 
498	 4.60124896132148E-02 
499	 4.64234497231799E-02 
500	 4.65551572721736E-02 
501	 4.65094655903209E-02 
502	 4.66079923648276E-02 
503	 4.69989590225226E-02 
504	 4.71571000379945E-02 
505	 4.72120364878952E-02 
506	 0.047479528148693 
507	 4.79244147524712E-02 
508	 4.84704742654795E-02 
509	 0.04886904782217 
510	 4.91306624148879E-02 
511	 4.92866875923729E-02 
512	 4.94863291045918E-02 
513	 4.98136468851127E-02 
514	 5.04172977405776E-02 
515	 5.08800051598916E-02 
516	 5.11015603075906E-02 
517	 5.14417495555632E-02 
518	 5.20641074644112E-02 
519	 5.30638017653556E-02 
520	 5.35696790173072E-02 
521	 5.36915699170397E-02 
522	 5.41963414137181E-02 
523	 5.49393338581008E-02 
524	 5.58254204678983E-02 
525	 5.66346779266525E-02 
526	 5.71253726414917E-02 
527	 5.69992257604211E-02 
528	 5.71838849565789E-02 
529	 5.77934638681893E-02 
530	 5.82659876335039E-02 
531	 5.87493085995322E-02 
532	 5.93189879525777E-02 
533	 5.97357122853753E-02 
534	 6.00374822146647E-02 
535	 6.03755787952431E-02 
536	 6.06206350330233E-02 
537	 6.08219996435015E-02 
538	 6.13523713423571E-02 
539	 6.19570355858085E-02 
540	 6.23558688577247E-02 
541	 6.23993376199537E-02 
542	 6.22843044977173E-02 
543	 6.25766193350674E-02 
544	 6.30065288779306E-02 
545	 6.34395841599226E-02 
546	 6.37751611710834E-02 
547	 0.064004537014184 
548	 6.41343896280518E-02 
549	 6.44240427938174E-02 
550	 6.48689535406166E-02 
551	 6.52276258967662E-02 
552	 0.065494815720666 
553	 6.56358258101487E-02 
554	 6.53828757090091E-02 
555	 6.51426553263426E-02 
556	 6.57361673794844E-02 
557	 6.61598721302476E-02 
558	 6.61531569127825E-02 
559	 6.61737804043383E-02 
560	 6.62198345331084E-02 
561	 6.62754595366374E-02 
562	 6.63465599468991E-02 
563	 6.64029504613824E-02 
564	 6.63825077368358E-02 
565	 6.62824515646994E-02 
566	 6.61007397092178E-02 
567	 6.58477520464962E-02 
568	 0.065572523749667 
569	 6.53322350239451E-02 
570	 6.52031205243799E-02 
571	 6.52156399242603E-02 
572	 6.54468575101806E-02 
573	 6.54219828874103E-02 
574	 0.064921607027731 
575	 6.47674218656767E-02 
576	 6.47948248339921E-02 
577	 0.064481412246165 
578	 6.42704026938858E-02 
579	 6.41913043125509E-02 
580	 6.37516323212398E-02 
581	 6.33210041621456E-02 
582	 6.32432115834946E-02 
583	 6.34568075025482E-02 
584	 6.37563207686313E-02 
585	 6.36836266696108E-02 
586	 6.35265826749152E-02 
587	 6.33615364852477E-02 
588	 0.062953359193626 
589	 6.25122027563298E-02 
590	 6.23424476839119E-02 
591	 6.22867508265364E-02 
592	 6.22933870456784E-02 
593	 6.23013267803764E-02 
594	 6.24629185285729E-02 
595	 6.28165533826059E-02 
596	 0.062966373360313 
597	 6.28839020733802E-02 
598	 6.26099065473281E-02 
599	 6.24704884224661E-02 
600	 6.24939573077015E-02 
601	 0.062245647764236 
602	 0.062011364863829 
603	 6.20539960295896E-02 
604	 6.22754384599208E-02 
605	 6.24596561401113E-02 
606	 0.062103534197029 
607	 6.18229221381067E-02 
608	 6.18274932185305E-02 
609	 6.17534525364304E-02 
610	 6.14963841016054E-02 
611	 6.09744646268704E-02 
612	 6.06554433391232E-02 
613	 6.06437576640536E-02 
614	 6.08741717438019E-02 
615	 6.09223324268857E-02 
616	 6.05605344457106E-02 
617	 6.03616770038816E-02 
618	 6.01610490019874E-02 
619	 5.94999911929705E-02 
620	 5.91704539528793E-02 
621	 5.92979156577477E-02 
622	 5.93097661007984E-02 
623	 5.92249704797185E-02 
624	 5.90942341890323E-02 
625	 5.91739662404058E-02 
626	 5.93490842309613E-02 
627	 5.91353852361798E-02 
628	 5.92564329837377E-02 
629	 0.059819465186579 
630	 5.96567770741809E-02 
631	 5.91841021596601E-02 
632	 5.90441600389004E-02 
633	 5.92198667161517E-02 
634	 5.94595465522105E-02 
635	 5.89062549646815E-02 
636	 5.84639975477067E-02 
637	 5.86047461615653E-02 
638	 0.058432229252306 
639	 5.81069848401851E-02 
640	 5.81549895041967E-02 
641	 0.057796469141912 
642	 5.70388437733655E-02 
643	 5.69882313441731E-02 
644	 5.69686237862349E-02 
645	 5.64043890248437E-02 
646	 5.63130027334004E-02 
647	 5.65057613744216E-02 
648	 5.60300700613813E-02 
649	 5.53558736579095E-02 
650	 5.47390856891155E-02 
651	 5.44327234695107E-02 
652	 5.44302020304855E-02 
653	 5.46814001697566E-02 
654	 5.47526259494852E-02 
655	 0.054508951064475 
656	 5.39813413462412E-02 
657	 5.34699398621979E-02 
658	 5.31601897297819E-02 
659	 5.27312974204654E-02 
660	 5.23399591537027E-02 
661	 5.23494521404087E-02 
662	 5.17679078180508E-02 
663	 5.06088929411325E-02 
664	 5.01650292132449E-02 
665	 5.01425532288898E-02 
666	 5.02143950557108E-02 
667	 4.99144112283921E-02 
668	 4.94647040150348E-02 
669	 4.97640491821211E-02 
670	 4.93965506216502E-02 
671	 4.82213984012692E-02 
672	 4.85353873945408E-02 
673	 4.93519648009856E-02 
674	 4.93495620547158E-02 
675	 4.91579417008358E-02 
676	 4.89765015246776E-02 
677	 4.89895660187195E-02 
678	 4.91278105422878E-02 
679	 4.93687309648901E-02 
680	 4.98316462865341E-02 
681	 5.02831363969906E-02 
682	 5.03285372780484E-02 
683	 5.07875109215344E-02 
684	 5.17244671528462E-02 
685	 5.24039893482841E-02 
686	 5.31900600517256E-02 
687	 5.43769353410651E-02 
688	 5.55144316248673E-02 
689	 5.66542008983006E-02 
690	 5.82918568522119E-02 
691	 6.01903364834304E-02 
692	 6.22564696534736E-02 
693	 6.42440969229959E-02 
694	 6.62733257445806E-02 
695	 6.84076184870781E-02 
696	 7.09089526036755E-02 
697	 7.35849621012096E-02 
698	 7.59012909655531E-02 
699	 7.80380660494789E-02 
700	 8.01359456873201E-02 
701	 8.28357313298764E-02 
702	 8.56786406742847E-02 
703	 8.79571082988773E-02 
704	 8.99389289920717E-02 
705	 9.17772871087693E-02 
706	 9.36522426411087E-02 
707	 9.55393198115356E-02 
708	 9.74368871032668E-02 
709	 9.94334015310525E-02 
710	 0.101527601394034 
711	 0.103760540232177 
712	 0.105522755269625 
713	 0.106815774739356 
714	 0.108679022584744 
715	 0.110435367128981 
716	 0.111511641886814 
717	 0.112505197282294 
718	 0.113630213787089 
719	 0.114929326348486 
720	 0.116248631477807 
721	 0.117408585881124 
722	 0.118305743984097 
723	 0.118945785345568 
724	 0.119249225973784 
725	 0.120513618588302 
726	 0.122328525579533 
727	 0.122736080465452 
728	 0.122981484347869 
729	 0.123669665791848 
730	 0.12435991777017 
731	 0.125053948779593 
732	 0.125816708217489 
733	 0.126301986170335 
734	 0.126614431070014 
735	 0.127352680002867 
736	 0.128057568527223 
737	 0.128415997452662 
738	 0.128726352321223 
739	 0.129114433089656 
740	 0.129751203775128 
741	 0.130092518684384 
742	 0.130084165910968 
743	 0.130305064123285 
744	 0.130523002073927 
745	 0.130558320320627 
746	 0.130857143064478 
747	 0.131346913091823 
748	 0.131676758465398 
749	 0.132047850035894 
750	 0.13242228501626 
751	 0.132266837438823 
752	 0.132097633361984 
753	 0.132480233753821 
754	 0.132912598853987 
755	 0.133317439066318 
756	 0.133884003582711 
757	 0.133960816332279 
758	 0.133380481880373 
759	 0.133536902697027 
760	 0.134957271174857 
761	 0.137052516455824 
762	 0.136935044063643 
763	 0.135371785798259 
764	 0.135354156948204 
765	 0.135993561061792 
766	 0.136706040216656 
767	 0.136572263235661 
768	 0.136229627725687 
769	 0.136477073811145 
770	 0.136655935047262 
771	 0.13670699752301 
772	 0.137000196538837 
773	 0.137258408666576 
774	 0.137304117214578 
775	 0.137277829993656 
776	 0.137404825392746 
777	 0.138070296995599 
778	 0.138399443738614 
779	 0.138277099411103 
780	 0.138457921580432 
781	 0.138757651555169 
782	 0.139010302419714 
783	 0.13926222455881 
784	 0.139394018725069 
785	 0.139120793184844 
786	 0.139097434984044 
787	 0.139416499914339 
788	 0.139271930610334 
789	 0.139299304455512 
790	 0.14004852617427 
791	 0.140338495414524 
792	 0.140223642667114 
793	 0.140378090481293 
794	 0.140649897227264 
795	 0.140959073897533 
796	 0.141086960519157 
797	 0.141106143529585 
798	 0.141113656058244 
799	 0.141195592022466 
800	 0.141360417449707 
801	 0.141585288145269 
802	 0.141721446085392 
803	 0.141713022322544 
804	 0.141572572762882 
805	 0.141773278232695 
806	 0.14274301389314 
807	 0.142779235356794 
808	 0.14221464252946 
809	 0.143184122652497 
810	 0.143539402830316 
811	 0.142587492518072 
812	 0.14222650288619 
813	 0.14255631801069 
814	 0.143472134943407 
815	 0.14425489167904 
816	 0.144730413484905 
817	 0.145263887060494 
818	 0.14527033708359 
819	 0.144721476189625 
820	 0.144689870599822 
821	 0.145173956785228 
822	 0.146047018167572 
823	 0.146386643447632 
824	 0.146204061755042 
825	 0.146268364785098 
826	 0.146352480690406 
827	 0.146418833810947 
828	 0.146701033732541 
829	 0.146970476023339 
830	 0.146935418646265 
831	 0.146996210635271 
832	 0.147183343297156 
833	 0.14728940641199 
834	 0.147511427604163 
835	 0.147893475467642 
836	 0.148204269764619 
837	 0.148444791145258 
838	 0.148634629594695 
839	 0.14848511258108 
840	 0.148134797514695 
841	 0.148020827159841 
842	 0.148539601850659 
843	 0.149571808732741 
844	 0.149378636926195 
845	 0.148698149192391 
846	 0.148535937535665 
847	 0.148837614236582 
848	 0.149393351290017 
849	 0.149639870107437 
850	 0.14957544825746 
851	 0.149273552242847 
852	 0.149270610147257 
853	 0.149368325698269 
854	 0.149340523329745 
855	 0.150009519251178 
856	 0.150928548001451 
857	 0.150635835045269 
858	 0.150378864350921 
859	 0.150423949396123 
860	 0.149685343276475 
861	 0.149509272667622 
862	 0.151012963562917 
863	 0.150728056037734 
864	 0.149565473765568 
865	 0.151370335817245 
866	 0.15194024494533 
867	 0.15063302070566 
868	 0.151574042533819 
869	 0.152707275215693 
870	 0.152346002076008 
871	 0.152170426372725 
872	 0.15243958451517 
873	 0.153181343923731 
874	 0.153489578212722 
875	 0.153082181859499 
876	 0.151932974645525 
877	 0.152032515472532 
878	 0.154322373658208 
879	 0.154275769697043 
880	 0.15319456264478 
881	 0.154240961142174 
882	 0.154432248480372 
883	 0.153572921763384 
884	 0.15376958100195 
885	 0.154151109062196 
886	 0.154297217804048 
887	 0.154721113359468 
888	 0.155664287678315 
889	 0.157328491717006 
890	 0.157109825801083 
891	 0.15536477076593 
892	 0.15531046609063 
893	 0.155115423833877 
894	 0.154232141780875 
895	 0.154273200959817 
896	 0.155644780790939 
897	 0.158357615529457 
898	 0.157942685441207 
899	 0.156029426223703 
900	 0.159451046325392 
901	 0.160369184124203 
902	 0.157529643510024 
903	 0.157294474161386 
904	 0.158321695356033 
905	 0.159311974169574 
906	 0.159809335239297 
907	 0.159644454043602 
908	 0.158712749395021 
909	 0.15824319230827 
910	 0.158626294927312 
911	 0.15961308471725 
912	 0.160434151781088 
913	 0.160716507450045 
914	 0.161469275682803 
915	 0.162007353092784 
916	 0.161442953366989 
917	 0.161442812921902 
918	 0.161652404441749 
919	 0.159908295059214 
920	 0.159584944500926 
921	 0.16104331825906 
922	 0.159401877268923 
923	 0.158181979198908 
924	 0.160345727418653 
925	 0.159506633931326 
926	 0.156810674619498 
927	 0.157181458996243 
928	 0.159126010508913 
929	 0.16132061818066 
930	 0.1593853465527 
931	 0.156693396025022 
932	 0.155986272982535 
933	 0.153594566226994 
934	 0.152254580124344 
935	 0.156251922958587 
936	 0.162017385047255 
937	 0.165997188300057 
938	 0.162846357950108 
939	 0.156650285829845 
940	 0.151469219129146 
941	 0.1584952851626 
942	 0.162314941024394 
943	 0.153693516902088 
944	 0.156541336163763 
945	 0.165559023908565 
946	 0.167657182355514 
947	 0.166703148288363 
948	 0.165356631147087 
949	 0.16999944849807 
950	 0.171997919846847 
951	 0.168259458716299 
952	 0.164176445067558 
953	 0.160980311264119 
954	 0.159547170962975 
955	 0.161066107391308 
956	 0.164023649344191 
957	 0.165741110447466 
958	 0.163022006943007 
959	 0.157436109148499 
960	 0.155622157040075 
961	 0.160168813784182 
962	 0.169602882677699 
963	 0.170652876282691 
964	 0.168377066335326 
965	 0.168361902525569 
966	 0.165291295047091 
967	 0.160864176335292 
968	 0.159639276175813 
969	 0.158316071681612 
970	 0.157233388879018 
971	 0.161336662526211 
972	 0.163594592787285 
973	 0.160805892667229 
974	 0.158403388599553 
975	 0.15983042314939 
976	 0.16732752876054 
977	 0.166803056898775 
978	 0.160601731798948 
979	 0.159968676506494 
980	 0.159148241258083 
981	 0.157917257204683 
982	 0.161250892608938 
983	 0.162855973150739 
984	 0.160482866837948 
985	 0.163721457915872 
986	 0.167384353723916 
987	 0.165350586894778 
988	 0.161821559462596 
989	 0.159397862203388 
990	 0.161601275599744 
991	 0.163062957736926 
992	 0.162512899976398 
993	 0.161503475265605 
994	 0.161955423615766 
995	 0.16406761841302 
996	 0.162511717952387 
997	 0.161733643855951 
998	 0.165791910166752 
999	 0.165117206702947 
1000	 0.162982248946006 
1001	 0.167750430986643 
1002	 0.168708979326431 
1003	 0.165464687620924 
1004	 0.16623278889537 
1005	 0.167988442268608 
1006	 0.167906850146952 
1007	 0.157097673475594 
1008	 0.152389163623057 
1009	 0.164455241037056 
1010	 0.165942927256783 
1011	 0.160108862702122 
1012	 0.156646721774777 
1013	 0.157832661555328 
1014	 0.163590004733694 
1015	 0.173129097127505 
1016	 0.16980196570708 
1017	 0.154971959639593 
1018	 0.158138279346261 
1019	 0.164705091780926 
1020	 0.166360197416204 
1021	 0.165196323919812 
1022	 0.166475952826545 
1023	 0.174052558916316 
1024	 0.174878556923877 
1025	 0.170157432317225 
1026	 0.165605694998165 
1027	 0.163814265423864 
1028	 0.165339938235801 
1029	 0.169849429961557 
1030	 0.166267096636222 
1031	 0.155383046271065 
1032	 0.159531246832241 
1033	 0.166878822098719 
1034	 0.170351031540451 
1035	 0.182806721931282 
1036	 0.185898219437345 
1037	 0.162623462180191 
1038	 0.149440726841438 
1039	 0.152053260475345 
1040	 0.166315326259094 
1041	 0.171066474441495 
1042	 0.167826730067162 
1043	 0.180729391210919 
1044	 0.183162005384788 
1045	 0.172113859308422 
1046	 0.182359840968654 
1047	 0.177571555526689 
1048	 0.145068938167516 
1049	 0.157225162655729 
1050	 0.17595375428976 
1051	 0.162861698333845 
1052	 0.150245108863666 
1053	 0.149320006968942 
1054	 0.168011330206922 
1055	 0.167134121216662 
1056	 0.157840907073142 
1057	 0.189019658717174 
1058	 0.197812960885404 
1059	 0.176921773031613 
1060	 0.183047304252806 
1061	 0.171763529219457 
1062	 0.137449354112498 
1063	 0.170187574096823 
1064	 0.189982037241682 
1065	 0.148401587423361 
1066	 0.154555447470313 
1067	 0.18043489148801 
1068	 0.185879522028682 
1069	 0.177972693740288 
1070	 0.165207959056346 
1071	 0.161937484090522 
1072	 0.15261542971062 
1073	 0.140430439005019 
1074	 0.140248075250059 
1075	 0.150691680904454 
