Wavelength	A00274.asd
325	 3.85009305706538E-02 
326	 0.037823396998673 
327	 4.15976067558532E-02 
328	 4.34463372966251E-02 
329	 4.46032778469696E-02 
330	 4.48735939159035E-02 
331	 4.05386809569247E-02 
332	 3.89702635129388E-02 
333	 4.67440222932613E-02 
334	 4.91926449135607E-02 
335	 4.65849510257746E-02 
336	 4.52147776806492E-02 
337	 4.49134468672539E-02 
338	 4.53197415434421E-02 
339	 4.42987520382745E-02 
340	 4.19425886121873E-02 
341	 3.89992102817714E-02 
342	 4.18664684773776E-02 
343	 4.78088118021141E-02 
344	 5.09898637677671E-02 
345	 4.83285467169861E-02 
346	 4.18206358829845E-02 
347	 4.23421803650133E-02 
348	 4.44789735063546E-02 
349	 4.43981978261151E-02 
350	 4.37359802722211E-02 
351	 4.30921351598981E-02 
352	 4.31810802056243E-02 
353	 4.18571278951865E-02 
354	 4.00573205199623E-02 
355	 4.32109395623081E-02 
356	 4.53695926692491E-02 
357	 4.34190121834048E-02 
358	 4.31239817271529E-02 
359	 4.40030220782822E-02 
360	 0.044329899660096 
361	 4.27183978456203E-02 
362	 4.05456233678305E-02 
363	 4.37477081728898E-02 
364	 4.53121415514242E-02 
365	 4.23106822738651E-02 
366	 4.16922618444656E-02 
367	 4.22999738786644E-02 
368	 4.16176292875338E-02 
369	 4.19915854186334E-02 
370	 4.31393448013237E-02 
371	 4.21866543835633E-02 
372	 4.25575194200438E-02 
373	 4.53737099651522E-02 
374	 4.46873787876972E-02 
375	 4.26705421234553E-02 
376	 0.043089498237516 
377	 4.36745338549132E-02 
378	 4.36644189770204E-02 
379	 0.042211638366796 
380	 0.04127667856966 
381	 4.18203914698083E-02 
382	 4.29841749219956E-02 
383	 4.34804281871638E-02 
384	 4.18120771868584E-02 
385	 4.15063539999533E-02 
386	 4.26172203643126E-02 
387	 4.25635306645771E-02 
388	 4.20441463269031E-02 
389	 4.15316592522512E-02 
390	 4.19247777784827E-02 
391	 4.26828815631233E-02 
392	 4.30802058391074E-02 
393	 4.23275291925643E-02 
394	 4.12045065472426E-02 
395	 4.25729310929791E-02 
396	 0.042844538687935 
397	 4.10878164129273E-02 
398	 4.09570800171122E-02 
399	 4.10068333809935E-02 
400	 3.95738705868587E-02 
401	 3.97415114883294E-02 
402	 4.11173809206921E-02 
403	 4.15327005427131E-02 
404	 4.14534302123691E-02 
405	 4.11801173974782E-02 
406	 4.15294513493965E-02 
407	 4.18712021524313E-02 
408	 4.13600574478603E-02 
409	 4.10855635078094E-02 
410	 4.10862523053943E-02 
411	 4.05768679200082E-02 
412	 4.08182510964032E-02 
413	 4.20975480613648E-02 
414	 4.23619951035464E-02 
415	 4.19167578356357E-02 
416	 4.14235566268033E-02 
417	 4.14557102794615E-02 
418	 0.041927236747545 
419	 0.042086292346424 
420	 4.20178845091229E-02 
421	 4.17742451441845E-02 
422	 4.13394222000344E-02 
423	 4.12349621357362E-02 
424	 4.21941697121225E-02 
425	 4.26564103645149E-02 
426	 0.042457715220709 
427	 0.042655340002881 
428	 4.27312842202735E-02 
429	 4.24211239361027E-02 
430	 4.23833648797982E-02 
431	 4.25830089441693E-02 
432	 4.28558596491335E-02 
433	 4.22072337844194E-02 
434	 4.10829894035408E-02 
435	 4.20508648124834E-02 
436	 4.28053404445018E-02 
437	 4.19950583502054E-02 
438	 4.23039696150477E-02 
439	 4.30835840391911E-02 
440	 4.24027556200145E-02 
441	 4.22344608415413E-02 
442	 4.28682016644528E-02 
443	 4.29174818986203E-02 
444	 4.27780938157419E-02 
445	 4.28182857941807E-02 
446	 4.30796938476075E-02 
447	 4.33636679695691E-02 
448	 4.31882440246017E-02 
449	 4.31210582312163E-02 
450	 4.33207482209958E-02 
451	 4.35349893363856E-02 
452	 4.36828571964971E-02 
453	 0.043708352920952 
454	 4.38246677820969E-02 
455	 4.40001557255706E-02 
456	 4.40740405990701E-02 
457	 4.38328152345732E-02 
458	 0.043366317102093 
459	 4.37467235548727E-02 
460	 4.42058991332716E-02 
461	 4.37636331967408E-02 
462	 4.37681506744455E-02 
463	 4.41787166844808E-02 
464	 4.38944148732962E-02 
465	 4.35805265952552E-02 
466	 4.36058804734367E-02 
467	 4.39748983507452E-02 
468	 4.44021868353319E-02 
469	 4.44799567237781E-02 
470	 4.45056002015726E-02 
471	 4.45448771042957E-02 
472	 4.45715353953894E-02 
473	 4.44713197890395E-02 
474	 4.42143267768747E-02 
475	 4.41368457168495E-02 
476	 4.42631809405586E-02 
477	 4.45762306963177E-02 
478	 0.044475017492696 
479	 0.044062921573985 
480	 4.45767183650401E-02 
481	 4.51533317980524E-02 
482	 4.50891888691847E-02 
483	 4.49244314629729E-02 
484	 4.48270864084765E-02 
485	 4.50150161428222E-02 
486	 4.49059899705408E-02 
487	 4.44964535455931E-02 
488	 4.49805336620765E-02 
489	 4.55240983562956E-02 
490	 4.52353561062708E-02 
491	 4.45035214177754E-02 
492	 4.39720407516262E-02 
493	 4.52152409774015E-02 
494	 4.60119195836131E-02 
495	 0.045556493529788 
496	 4.55235570749507E-02 
497	 4.57470228743606E-02 
498	 4.58056383155572E-02 
499	 4.61455999034123E-02 
500	 4.66510765975193E-02 
501	 4.66062717821647E-02 
502	 4.64848696824943E-02 
503	 0.046587970018486 
504	 4.67825377289515E-02 
505	 0.047158239501334 
506	 4.79149701489023E-02 
507	 0.048264097318621 
508	 4.81519437860324E-02 
509	 4.83403729474072E-02 
510	 4.87235805129263E-02 
511	 4.91915546124392E-02 
512	 4.96708780940615E-02 
513	 5.01268477453785E-02 
514	 5.05168161215903E-02 
515	 5.09627906692789E-02 
516	 5.15177130194752E-02 
517	 5.22154668228374E-02 
518	 0.052793463776245 
519	 5.29862649748916E-02 
520	 5.31338501669915E-02 
521	 5.34582719133888E-02 
522	 5.43452797009319E-02 
523	 5.51605420455306E-02 
524	 0.055661546716468 
525	 5.64415231683767E-02 
526	 5.71038173292209E-02 
527	 5.70001468309182E-02 
528	 5.73149516465442E-02 
529	 5.81186610493558E-02 
530	 5.85362783437869E-02 
531	 5.88121106159326E-02 
532	 5.91497281276983E-02 
533	 5.98869406512984E-02 
534	 6.06298319962193E-02 
535	 6.04979436591363E-02 
536	 6.04949522881023E-02 
537	 6.09159520455193E-02 
538	 6.14631432592863E-02 
539	 6.20388232121285E-02 
540	 6.25377866060534E-02 
541	 6.26729074152669E-02 
542	 6.26010510772615E-02 
543	 0.06286980786355 
544	 6.32053523801465E-02 
545	 6.34948624287976E-02 
546	 6.37582099047633E-02 
547	 6.39543951358773E-02 
548	 6.40320625877235E-02 
549	 0.064219413702346 
550	 6.46001452049546E-02 
551	 6.52791242381022E-02 
552	 6.57626100381022E-02 
553	 6.57485131049842E-02 
554	 6.55623884856316E-02 
555	 6.54687807967061E-02 
556	 6.58647084616995E-02 
557	 6.61249544701098E-02 
558	 6.61030104051383E-02 
559	 6.61577020015132E-02 
560	 6.63047794725862E-02 
561	 6.65231562508269E-02 
562	 6.65112514556357E-02 
563	 6.62922471712716E-02 
564	 6.60414607976592E-02 
565	 6.59797737303165E-02 
566	 6.61255000907689E-02 
567	 6.58851343523775E-02 
568	 6.55546512642348E-02 
569	 6.55746557580902E-02 
570	 6.54501889724701E-02 
571	 6.52320933657627E-02 
572	 6.55485754190104E-02 
573	 6.56652064548241E-02 
574	 6.51982247297021E-02 
575	 6.49798006156346E-02 
576	 6.49255198974732E-02 
577	 6.46834175211818E-02 
578	 6.42079459001272E-02 
579	 0.063624224528537 
580	 6.35181031511639E-02 
581	 6.36027904986498E-02 
582	 6.36039724885687E-02 
583	 6.36786780909193E-02 
584	 6.37586631000096E-02 
585	 6.36361362394906E-02 
586	 6.34485050619956E-02 
587	 6.32480331654484E-02 
588	 6.29884435329679E-02 
589	 6.27568279783277E-02 
590	 6.26716149723967E-02 
591	 6.24387135146483E-02 
592	 6.21230508854023E-02 
593	 6.21092213814934E-02 
594	 6.23280354294012E-02 
595	 6.26959132139771E-02 
596	 6.29188830164155E-02 
597	 6.29504954881824E-02 
598	 6.28112868185928E-02 
599	 6.24503292476688E-02 
600	 0.061992007387801 
601	 6.19573750952656E-02 
602	 6.20344082979665E-02 
603	 6.19483838516105E-02 
604	 6.21566435672093E-02 
605	 6.24042930729255E-02 
606	 6.17870866479421E-02 
607	 6.15288268184698E-02 
608	 6.19824733518773E-02 
609	 6.20526734751297E-02 
610	 6.17058363276455E-02 
611	 6.10414638951994E-02 
612	 6.08110618839484E-02 
613	 6.09663329687318E-02 
614	 6.06022110976845E-02 
615	 0.060321888940622 
616	 6.04241193486582E-02 
617	 6.01701715789117E-02 
618	 5.97795953550989E-02 
619	 0.05978556198456 
620	 5.99732494681786E-02 
621	 6.01650711588917E-02 
622	 5.99119949173523E-02 
623	 5.95107016242189E-02 
624	 5.92643490345913E-02 
625	 5.93273036658681E-02 
626	 5.95003086332495E-02 
627	 5.91563684687581E-02 
628	 5.89721068058871E-02 
629	 5.91432116173345E-02 
630	 5.91053430134428E-02 
631	 5.89581231551694E-02 
632	 5.88869602652921E-02 
633	 5.90483291719069E-02 
634	 0.059298873977862 
635	 5.90479662360667E-02 
636	 5.87764682325606E-02 
637	 5.87476416568088E-02 
638	 5.86167487408633E-02 
639	 5.83630568965199E-02 
640	 5.80277350175472E-02 
641	 5.76857845566086E-02 
642	 0.05736574636293 
643	 0.056964063683607 
644	 5.68273892412986E-02 
645	 5.71804767174623E-02 
646	 5.68030592828991E-02 
647	 5.58335243908278E-02 
648	 5.52112717177427E-02 
649	 5.48735114989955E-02 
650	 5.48308575668465E-02 
651	 5.50287669172559E-02 
652	 5.51047625189109E-02 
653	 5.46556113294825E-02 
654	 0.054287134686363 
655	 5.40494781265382E-02 
656	 5.35616865544827E-02 
657	 5.32625199227824E-02 
658	 5.33307476536663E-02 
659	 5.30573888867694E-02 
660	 5.26236894872421E-02 
661	 5.24937971423135E-02 
662	 5.17611002696913E-02 
663	 5.05610267511837E-02 
664	 0.050567286261697 
665	 5.07715814091029E-02 
666	 5.02948756420948E-02 
667	 4.95487114907989E-02 
668	 4.89246271335022E-02 
669	 4.92911274765992E-02 
670	 4.91884833607031E-02 
671	 4.83383810595819E-02 
672	 4.84955026405043E-02 
673	 4.90289246558354E-02 
674	 4.90659952431281E-02 
675	 4.88271348469165E-02 
676	 4.85920676978022E-02 
677	 4.90949400610816E-02 
678	 4.95716005553118E-02 
679	 4.96569214339252E-02 
680	 4.99733745008828E-02 
681	 5.03377089464843E-02 
682	 5.03232711045119E-02 
683	 5.08684049307911E-02 
684	 5.19899722914351E-02 
685	 5.26362561441618E-02 
686	 5.33894866144271E-02 
687	 5.47155956282958E-02 
688	 5.57317883209796E-02 
689	 5.66586175454503E-02 
690	 0.05856098814265 
691	 6.02973954273876E-02 
692	 0.061717698459088 
693	 6.37568753457975E-02 
694	 6.61531233480188E-02 
695	 6.84799738405573E-02 
696	 7.08792263528152E-02 
697	 7.33332125463913E-02 
698	 7.58742706975411E-02 
699	 7.82455745499443E-02 
700	 8.03417822296649E-02 
701	 8.26547861231523E-02 
702	 8.51686705092216E-02 
703	 8.77837953725812E-02 
704	 9.02156103497065E-02 
705	 9.23871955831612E-02 
706	 0.094240418778084 
707	 9.60879301193744E-02 
708	 9.80741630385644E-02 
709	 9.94908776793647E-02 
710	 0.100800343386428 
711	 0.10304946373896 
712	 0.105140628163204 
713	 0.106782195644884 
714	 0.10843107589897 
715	 0.109865236425132 
716	 0.110965003324011 
717	 0.112343954324975 
718	 0.1141062771734 
719	 0.115908461839825 
720	 0.116965662924313 
721	 0.117266272082232 
722	 0.118212945133634 
723	 0.119271187640956 
724	 0.119684426220041 
725	 0.120489204001127 
726	 0.121681715935163 
727	 0.122748204616762 
728	 0.123339303266752 
729	 0.123383193592861 
730	 0.123766082245472 
731	 0.124507220918477 
732	 0.125468606322755 
733	 0.126020334368119 
734	 0.126241257665122 
735	 0.126917035588793 
736	 0.127617092721323 
737	 0.1280541198975 
738	 0.128565141146572 
739	 0.129104652462438 
740	 0.129500519427649 
741	 0.129889429567477 
742	 0.130235131751755 
743	 0.130228714189765 
744	 0.130133447817057 
745	 0.130203788760205 
746	 0.130637748420743 
747	 0.131222181286361 
748	 0.131357259986871 
749	 0.131597220316199 
750	 0.13206324794788 
751	 0.132279626904239 
752	 0.132482906234582 
753	 0.132937766840562 
754	 0.1331292811269 
755	 0.133082389090422 
756	 0.133193053917851 
757	 0.133154377108795 
758	 0.132928305020514 
759	 0.133387577530494 
760	 0.134934183401916 
761	 0.136644815452435 
762	 0.136022871567677 
763	 0.134386242986149 
764	 0.135559012077742 
765	 0.136851165979218 
766	 0.137215441549493 
767	 0.136952228352016 
768	 0.136506359147838 
769	 0.136313850563305 
770	 0.136404952653479 
771	 0.136636531766127 
772	 0.136324389966267 
773	 0.136403881354037 
774	 0.137348246639009 
775	 0.13744354219882 
776	 0.137162425722428 
777	 0.137826714368609 
778	 0.13821216485601 
779	 0.138107162898461 
780	 0.138207788773543 
781	 0.13844486827369 
782	 0.138753748652549 
783	 0.139225443804579 
784	 0.139610841663624 
785	 0.13937941341996 
786	 0.139034812182043 
787	 0.138870624580396 
788	 0.139308100812665 
789	 0.139883504310804 
790	 0.14013706340598 
791	 0.140287796692252 
792	 0.140378619170493 
793	 0.140455341116925 
794	 0.14029183376104 
795	 0.140023822718644 
796	 0.140741449252878 
797	 0.141460555098138 
798	 0.141189316414341 
799	 0.14114004381904 
800	 0.14132030077685 
801	 0.141016288296701 
802	 0.141132189788522 
803	 0.141801987584513 
804	 0.141636289515728 
805	 0.141488950826282 
806	 0.142307088046123 
807	 0.142091136479653 
808	 0.141131887564962 
809	 0.141362842907097 
810	 0.14220261357088 
811	 0.143178449744463 
812	 0.142744784272135 
813	 0.142193726034256 
814	 0.143365909767886 
815	 0.144268216912128 
816	 0.144559498912703 
817	 0.145021382602481 
818	 0.14482885889352 
819	 0.144056192919117 
820	 0.144953525408167 
821	 0.146203787660081 
822	 0.14607543606266 
823	 0.145660245876797 
824	 0.145479196668398 
825	 0.146280862894651 
826	 0.14681356963468 
827	 0.146697071472177 
828	 0.147249426893088 
829	 0.147560924643014 
830	 0.146464803641298 
831	 0.14628933580086 
832	 0.147097490235823 
833	 0.147504155088631 
834	 0.147815071641238 
835	 0.148106325424169 
836	 0.148287197047296 
837	 0.14845421955479 
838	 0.148702333139544 
839	 0.148325607870313 
840	 0.147657146239727 
841	 0.14804247504667 
842	 0.148484188258128 
843	 0.148566713745554 
844	 0.14849763488087 
845	 0.148603355560624 
846	 0.149195379959361 
847	 0.149342199171802 
848	 0.149018779653984 
849	 0.148664862574609 
850	 0.148799247995556 
851	 0.149541969079052 
852	 0.150066937838963 
853	 0.15018859517144 
854	 0.149851926753489 
855	 0.15024792111611 
856	 0.15092729244334 
857	 0.150101262477311 
858	 0.149537728302204 
859	 0.149810988896956 
860	 0.150558405183288 
861	 0.150968867046924 
862	 0.150367186024108 
863	 0.150140909393491 
864	 0.150365077788104 
865	 0.150497723056063 
866	 0.151156694765133 
867	 0.152239408520362 
868	 0.152470498610601 
869	 0.152190698341811 
870	 0.151854024956636 
871	 0.152607354339222 
872	 0.15367109407093 
873	 0.153168591036544 
874	 0.153058449343774 
875	 0.153483407906881 
876	 0.152379228218977 
877	 0.151717322444074 
878	 0.152818146359695 
879	 0.154247235316939 
880	 0.155364712306522 
881	 0.15553946326462 
882	 0.154774408367152 
883	 0.15358975273934 
884	 0.153597419342462 
885	 0.154048558575492 
886	 0.154505483683765 
887	 0.155052807291293 
888	 0.155728048810683 
889	 0.15658214082236 
890	 0.15706745081672 
891	 0.1571489520795 
892	 0.157342722715658 
893	 0.156448195266339 
894	 0.154494134412463 
895	 0.155186436792738 
896	 0.15721560120697 
897	 0.158528289872941 
898	 0.158552183319985 
899	 0.157962571944635 
900	 0.159088600983147 
901	 0.158559039739997 
902	 0.156366959615983 
903	 0.157301016234502 
904	 0.159415092738525 
905	 0.160836961389276 
906	 0.160095000061727 
907	 0.158466402273531 
908	 0.158602262233139 
909	 0.160177987615036 
910	 0.162058087395358 
911	 0.160291336033634 
912	 0.158209129084812 
913	 0.158107555741167 
914	 0.160919009767262 
915	 0.163966169486186 
916	 0.163945643762341 
917	 0.162338858008549 
918	 0.160287733428524 
919	 0.159467022911361 
920	 0.160596683175878 
921	 0.162760238496626 
922	 0.159968541025891 
923	 0.157294232718463 
924	 0.15917563003075 
925	 0.158557436263944 
926	 0.156485037021802 
927	 0.157968702420425 
928	 0.158692744874739 
929	 0.157586103549347 
930	 0.157037068282187 
931	 0.15873042373846 
932	 0.16294504863586 
933	 0.159231376845739 
934	 0.154046551989906 
935	 0.159015378421554 
936	 0.166022764773127 
937	 0.169430582836255 
938	 0.160335084395073 
939	 0.15575409835681 
940	 0.159548901271116 
941	 0.162637942169437 
942	 0.161463281896105 
943	 0.155391577554971 
944	 0.161440934409583 
945	 0.170681842825931 
946	 0.166119802320059 
947	 0.159775061561245 
948	 0.157429145340123 
949	 0.167670524336555 
950	 0.170578803815856 
951	 0.16071738676106 
952	 0.160537377958334 
953	 0.162272740205423 
954	 0.15820363807952 
955	 0.15912342395073 
956	 0.162924966112868 
957	 0.162826036443982 
958	 0.16456684928881 
959	 0.166506251290124 
960	 0.157769375065413 
961	 0.154053996860984 
962	 0.161005075237892 
963	 0.164601677255321 
964	 0.164419319146326 
965	 0.161488430688493 
966	 0.159976082824186 
967	 0.159845905647242 
968	 0.159325916656285 
969	 0.158036546232936 
970	 0.157195699371185 
971	 0.162124874182383 
972	 0.165232090597866 
973	 0.163113697967619 
974	 0.162120378110157 
975	 0.164464008215538 
976	 0.171048865847334 
977	 0.169752933577541 
978	 0.162695190484804 
979	 0.159571711046736 
980	 0.1593235254644 
981	 0.161352011359854 
982	 0.164126443854965 
983	 0.164618540746273 
984	 0.162301402306746 
985	 0.165116313990605 
986	 0.169336331940397 
987	 0.170250028139913 
988	 0.169014224052915 
989	 0.166856320429061 
990	 0.165940773581045 
991	 0.163249408138883 
992	 0.159820487862067 
993	 0.162299144857494 
994	 0.164275613802979 
995	 0.163232014108616 
996	 0.165382380782405 
997	 0.167018355687308 
998	 0.164553677960135 
999	 0.164624101975869 
1000	 0.167074524668753 
1001	 0.169831325408719 
1002	 0.162068574419124 
1003	 0.148807293112692 
1004	 0.156190390521012 
1005	 0.163979196471728 
1006	 0.164124878736927 
1007	 0.16081783161843 
1008	 0.162193143381817 
1009	 0.171799346993733 
1010	 0.165918615883085 
1011	 0.156171478812514 
1012	 0.162201019090377 
1013	 0.162411125297433 
1014	 0.158069513577095 
1015	 0.163651214018761 
1016	 0.167731480960262 
1017	 0.16782981324671 
1018	 0.169823294078504 
1019	 0.169615674721817 
1020	 0.166241691230985 
1021	 0.168444801012982 
1022	 0.170576597451208 
1023	 0.167362762944496 
1024	 0.172161522411141 
1025	 0.174925317609688 
1026	 0.156177145792228 
1027	 0.150897266777368 
1028	 0.160518529259613 
1029	 0.160579585726026 
1030	 0.160130906490704 
1031	 0.161997968605959 
1032	 0.16739655474226 
1033	 0.169105782757313 
1034	 0.164591828118659 
1035	 0.170034475726575 
1036	 0.176036523454734 
1037	 0.171947012550245 
1038	 0.164678636912403 
1039	 0.159103255781504 
1040	 0.160891069541685 
1041	 0.162562985724966 
1042	 0.163400780706513 
1043	 0.167915273786925 
1044	 0.169851698308702 
1045	 0.168848744816008 
1046	 0.176894946728357 
1047	 0.173570903531578 
1048	 0.151923739837559 
1049	 0.155430616252959 
1050	 0.159080391715947 
1051	 0.141296640321123 
1052	 0.167526782806582 
1053	 0.196129556802089 
1054	 0.151294675454349 
1055	 0.14780304165418 
1056	 0.183280623287252 
1057	 0.190676503632807 
1058	 0.184999138630128 
1059	 0.174433733114779 
1060	 0.183478337955751 
1061	 0.186109825890289 
1062	 0.173236897355204 
1063	 0.163465888145836 
1064	 0.154155336470608 
1065	 0.148559686993952 
1066	 0.188532334273278 
1067	 0.225014827643472 
1068	 0.205663900207789 
1069	 0.17147320404768 
1070	 0.145698363721138 
1071	 0.152899664634372 
1072	 0.157708686031312 
1073	 0.150142618400001 
1074	 0.126259935853652 
1075	 0.133820151676429 
