Wavelength	A00234.asd
325	 3.71171631534217E-02 
326	 3.61094490403655E-02 
327	 4.54369540920129E-02 
328	 4.78678983377195E-02 
329	 0.04960040484531 
330	 5.13908855830815E-02 
331	 4.53745868644054E-02 
332	 4.03599730910369E-02 
333	 4.48033437066902E-02 
334	 4.66953283894152E-02 
335	 4.52714399934617E-02 
336	 4.33960780463041E-02 
337	 4.29838920431865E-02 
338	 4.45483488112563E-02 
339	 4.75063530547633E-02 
340	 4.72220130607998E-02 
341	 4.10406101236962E-02 
342	 4.13923910454618E-02 
343	 4.62640008957238E-02 
344	 4.91391384372921E-02 
345	 0.045818256012567 
346	 3.86200128759648E-02 
347	 4.10870311303334E-02 
348	 4.51036625941774E-02 
349	 4.52124621663337E-02 
350	 4.57285759277391E-02 
351	 4.62086683222673E-02 
352	 4.52448533144977E-02 
353	 4.30540364480929E-02 
354	 4.10314800973786E-02 
355	 4.37354027654552E-02 
356	 4.58160025830584E-02 
357	 4.45196671513809E-02 
358	 4.55869608388812E-02 
359	 4.75492523951996E-02 
360	 4.73005198008706E-02 
361	 4.54955329239085E-02 
362	 4.35559338427314E-02 
363	 0.045704600451579 
364	 4.64344526523781E-02 
365	 0.043598666663108 
366	 4.37029638378013E-02 
367	 4.49034941660005E-02 
368	 0.043875977944738 
369	 4.38601379447756E-02 
370	 4.48852435602841E-02 
371	 4.45163204426356E-02 
372	 4.43564227814551E-02 
373	 4.51476338212592E-02 
374	 4.56727620228804E-02 
375	 4.58980909465303E-02 
376	 4.59744119053072E-02 
377	 4.59248026559158E-02 
378	 4.56335786479072E-02 
379	 4.44779607759241E-02 
380	 4.43211923718136E-02 
381	 0.04578107994816 
382	 0.046230359813477 
383	 4.61030494316455E-02 
384	 4.63164472309063E-02 
385	 4.64876271098688E-02 
386	 4.61670138250013E-02 
387	 4.40387890861971E-02 
388	 4.33096929937943E-02 
389	 4.48571376087458E-02 
390	 4.45212006623819E-02 
391	 4.40733926565276E-02 
392	 4.59109834400735E-02 
393	 4.63629893280614E-02 
394	 4.51599104875319E-02 
395	 4.36990038544326E-02 
396	 4.32699227982755E-02 
397	 4.41079057714861E-02 
398	 0.04438133377071 
399	 0.043804813918489 
400	 4.23529780245627E-02 
401	 0.042591705252701 
402	 4.40008469202936E-02 
403	 4.42085268326958E-02 
404	 4.41360955339467E-02 
405	 4.42311079253746E-02 
406	 4.49100838722862E-02 
407	 4.55899572994041E-02 
408	 4.55251237402228E-02 
409	 4.50349251745156E-02 
410	 4.43521140119962E-02 
411	 4.36989834405232E-02 
412	 4.38992368351299E-02 
413	 4.50238920300527E-02 
414	 4.49315651305732E-02 
415	 4.43567285655011E-02 
416	 4.45133832973066E-02 
417	 4.43054308391083E-02 
418	 4.39572890071863E-02 
419	 4.50106417704762E-02 
420	 4.56044147291064E-02 
421	 4.49477759134685E-02 
422	 4.51737591316992E-02 
423	 4.58027183985174E-02 
424	 4.57980907453383E-02 
425	 4.57530874937781E-02 
426	 4.58782727177065E-02 
427	 4.64959365439996E-02 
428	 4.66265408116441E-02 
429	 4.58130273157337E-02 
430	 4.58963555663643E-02 
431	 4.63205355629793E-02 
432	 4.57590024425555E-02 
433	 4.51397550332276E-02 
434	 4.48672277244733E-02 
435	 4.54275283676465E-02 
436	 4.58723206571711E-02 
437	 4.56512297668233E-02 
438	 0.04592233837214 
439	 4.63659904793859E-02 
440	 4.60733865119652E-02 
441	 4.60312425982522E-02 
442	 4.63849347812901E-02 
443	 4.64488940261409E-02 
444	 4.63297872340426E-02 
445	 4.61691161036278E-02 
446	 4.63525251175832E-02 
447	 4.67374952646831E-02 
448	 4.68761526387605E-02 
449	 4.68959437004902E-02 
450	 4.68891430552947E-02 
451	 4.71385113698077E-02 
452	 4.74141559815373E-02 
453	 4.74767048415841E-02 
454	 4.74809367457592E-02 
455	 0.047439299356999 
456	 4.73087027113173E-02 
457	 4.70799572154635E-02 
458	 4.68902236947072E-02 
459	 4.75094717798244E-02 
460	 4.81229276788714E-02 
461	 4.77282621017885E-02 
462	 4.74928779502381E-02 
463	 4.75184436439847E-02 
464	 4.72140923556473E-02 
465	 0.04700643529895 
466	 4.71475484610119E-02 
467	 4.77690310917598E-02 
468	 0.048274761872589 
469	 4.78025263970681E-02 
470	 4.77762935521577E-02 
471	 4.82756535257281E-02 
472	 4.82043065287614E-02 
473	 4.78911006378786E-02 
474	 4.75977250957515E-02 
475	 4.76005136821269E-02 
476	 4.78757253170489E-02 
477	 4.83502174324995E-02 
478	 4.81641911645125E-02 
479	 4.74543743271118E-02 
480	 4.79300144531918E-02 
481	 4.85587330269294E-02 
482	 4.84813458098525E-02 
483	 4.81899167425635E-02 
484	 4.79425765932899E-02 
485	 0.048156777594485 
486	 4.83779832606145E-02 
487	 4.85007644431289E-02 
488	 4.90276492952676E-02 
489	 4.91979385438474E-02 
490	 4.83107210099886E-02 
491	 4.78740628329466E-02 
492	 4.80910593226109E-02 
493	 4.86951032691829E-02 
494	 4.90375346133417E-02 
495	 4.88395136811695E-02 
496	 4.84468087560788E-02 
497	 0.048426248441452 
498	 4.94419283189078E-02 
499	 0.049839511822923 
500	 4.95015916955701E-02 
501	 4.95245603202868E-02 
502	 4.99231078197873E-02 
503	 5.05921015651405E-02 
504	 5.05907181673755E-02 
505	 5.02745160468217E-02 
506	 5.04296239034652E-02 
507	 5.06679579467541E-02 
508	 5.09329218325142E-02 
509	 5.13979058321162E-02 
510	 5.18624233288413E-02 
511	 5.21676616913192E-02 
512	 5.24445864326542E-02 
513	 5.27293205849128E-02 
514	 5.30427074659928E-02 
515	 5.34140783641018E-02 
516	 5.38155144528178E-02 
517	 5.40063870759442E-02 
518	 5.43104791329051E-02 
519	 5.50478297698167E-02 
520	 5.51620173915987E-02 
521	 5.49921451713775E-02 
522	 5.60516832405331E-02 
523	 5.70470948059219E-02 
524	 5.74409092826934E-02 
525	 0.057904419664711 
526	 5.83869165158043E-02 
527	 5.87218977707048E-02 
528	 5.89176052659985E-02 
529	 5.91354741012951E-02 
530	 5.99610667654324E-02 
531	 6.05589666290209E-02 
532	 6.04574779077915E-02 
533	 6.07904656710925E-02 
534	 6.13795397357338E-02 
535	 6.15317649839663E-02 
536	 6.17520810812524E-02 
537	 0.062147244660598 
538	 6.24569974428554E-02 
539	 0.062742671543389 
540	 0.063065025752442 
541	 0.063301671767695 
542	 6.34147045035243E-02 
543	 6.33090525143091E-02 
544	 6.34965654586636E-02 
545	 6.41164799561886E-02 
546	 6.45328438568697E-02 
547	 6.47599144256791E-02 
548	 6.49011734852901E-02 
549	 6.51047813930415E-02 
550	 6.53907959595173E-02 
551	 6.56578511750015E-02 
552	 6.59283741502935E-02 
553	 6.61907646951427E-02 
554	 6.62369991618349E-02 
555	 6.62185302626581E-02 
556	 0.066476155689361 
557	 6.66095170655702E-02 
558	 6.65590570413681E-02 
559	 6.66486262424129E-02 
560	 6.68802898757873E-02 
561	 6.72147540074734E-02 
562	 6.72956992663965E-02 
563	 0.067145417812705 
564	 6.69948098112699E-02 
565	 0.066893501771766 
566	 6.68719422939488E-02 
567	 6.68960180626861E-02 
568	 6.68039892599179E-02 
569	 6.64032547884355E-02 
570	 6.61187417620154E-02 
571	 6.60525494089342E-02 
572	 0.06617101688577 
573	 6.60648573340752E-02 
574	 6.55767136221389E-02 
575	 6.57144275745304E-02 
576	 6.60483556265103E-02 
577	 6.55426951693353E-02 
578	 6.50108727917516E-02 
579	 6.47492065490578E-02 
580	 6.48228564605807E-02 
581	 6.49737225995426E-02 
582	 6.49668874055978E-02 
583	 6.49172966215548E-02 
584	 6.48181398806046E-02 
585	 6.45883548797482E-02 
586	 6.44546220355784E-02 
587	 0.064448560582322 
588	 6.41123544932303E-02 
589	 6.37387494387275E-02 
590	 6.37631586284031E-02 
591	 6.34214228231198E-02 
592	 6.28316368867412E-02 
593	 6.29138130000408E-02 
594	 6.31926315427542E-02 
595	 6.33906775376566E-02 
596	 6.36804933626362E-02 
597	 6.39156852989458E-02 
598	 6.38392485134967E-02 
599	 6.35152911852076E-02 
600	 6.30967090901602E-02 
601	 6.31023308527364E-02 
602	 6.32340960288092E-02 
603	 6.31955107067532E-02 
604	 6.29169173657861E-02 
605	 6.25468404774336E-02 
606	 6.24482250802545E-02 
607	 6.26220650305849E-02 
608	 6.29509920497998E-02 
609	 6.27136376749622E-02 
610	 6.22416283634111E-02 
611	 0.062035952086843 
612	 6.18976523344315E-02 
613	 6.17988033229738E-02 
614	 6.17990650176085E-02 
615	 6.16798979338592E-02 
616	 6.13285578193621E-02 
617	 6.10289308979362E-02 
618	 6.07640572780775E-02 
619	 6.04017109198931E-02 
620	 6.03258524802907E-02 
621	 6.05282962949234E-02 
622	 6.04820139047443E-02 
623	 6.02614439246936E-02 
624	 5.99714495671923E-02 
625	 5.98571161715332E-02 
626	 5.98926822114161E-02 
627	 5.98544786942852E-02 
628	 5.99083603540235E-02 
629	 6.00685547265065E-02 
630	 6.00638025353428E-02 
631	 5.99752385537152E-02 
632	 0.059935478259556 
633	 6.02210589582401E-02 
634	 6.05865295825524E-02 
635	 6.00118811280439E-02 
636	 5.94752785391038E-02 
637	 5.95003072372626E-02 
638	 5.92131062668782E-02 
639	 5.87698312862318E-02 
640	 5.86439737031053E-02 
641	 5.85797519860421E-02 
642	 5.84450166520874E-02 
643	 5.79884418890362E-02 
644	 5.76475461174464E-02 
645	 0.057764547831367 
646	 5.74971374549256E-02 
647	 5.69015754236323E-02 
648	 5.65369223850162E-02 
649	 5.62750612428157E-02 
650	 5.60924369479051E-02 
651	 5.60089813554147E-02 
652	 5.59310007385384E-02 
653	 5.57519958839926E-02 
654	 5.60156449745299E-02 
655	 5.64462893180625E-02 
656	 5.55913450717673E-02 
657	 5.46886982354609E-02 
658	 5.44607062634488E-02 
659	 5.39990544648054E-02 
660	 5.35902402453458E-02 
661	 5.39258630415537E-02 
662	 5.34405661681834E-02 
663	 5.21252963390663E-02 
664	 5.19713842782114E-02 
665	 5.21413247500219E-02 
666	 5.18792263585089E-02 
667	 5.13692898939775E-02 
668	 5.09578732586492E-02 
669	 0.051567944893661 
670	 5.14606163409812E-02 
671	 5.03372146869355E-02 
672	 5.04690443967188E-02 
673	 5.10983086105023E-02 
674	 5.11565969731392E-02 
675	 5.09164477902312E-02 
676	 5.06189606348138E-02 
677	 5.08384894766989E-02 
678	 5.11453766462817E-02 
679	 5.13372843611866E-02 
680	 5.17500197724709E-02 
681	 5.22080270714106E-02 
682	 5.23852229823406E-02 
683	 5.25340673078627E-02 
684	 5.28594375072957E-02 
685	 5.38798782909825E-02 
686	 5.50050675509461E-02 
687	 5.56842509994959E-02 
688	 5.63160273579628E-02 
689	 5.71915654538728E-02 
690	 5.89035312405494E-02 
691	 6.05371541821286E-02 
692	 6.18938123825372E-02 
693	 0.063402998101124 
694	 6.52312043513761E-02 
695	 6.74283412937189E-02 
696	 6.96579330538067E-02 
697	 0.071833457077039 
698	 7.40523845141743E-02 
699	 7.61791961956594E-02 
700	 7.81267926091128E-02 
701	 8.00395865969091E-02 
702	 0.082031753180977 
703	 8.42382380822982E-02 
704	 8.61576691513027E-02 
705	 8.77526841114553E-02 
706	 8.92970787862574E-02 
707	 9.07455880875574E-02 
708	 9.21071249733468E-02 
709	 9.36537285937898E-02 
710	 0.095348062763334 
711	 9.70944385056409E-02 
712	 9.84839915258834E-02 
713	 0.099521767234512 
714	 0.10095529673584 
715	 0.102306440279785 
716	 0.103180079189882 
717	 0.104056524261132 
718	 0.105083125081599 
719	 0.106219693331577 
720	 0.107206707345958 
721	 0.107943130753421 
722	 0.108739451222187 
723	 0.109253449292294 
724	 0.109011209663936 
725	 0.109902282442272 
726	 0.111690718708755 
727	 0.112443018290354 
728	 0.112802472536451 
729	 0.113047011398044 
730	 0.11288346013497 
731	 0.112928743964668 
732	 0.114008198625763 
733	 0.114645639542858 
734	 0.114793811693459 
735	 0.1155830560501 
736	 0.116183315565926 
737	 0.116084845825935 
738	 0.116123639552052 
739	 0.116434666249857 
740	 0.117039685947962 
741	 0.117530215780758 
742	 0.117716534877374 
743	 0.117444539097653 
744	 0.11735445053962 
745	 0.117930025082336 
746	 0.118168816982113 
747	 0.118130963257764 
748	 0.118407434213551 
749	 0.118673938222879 
750	 0.118827557850383 
751	 0.118902653106964 
752	 0.119054066498384 
753	 0.119428173155246 
754	 0.119662754481036 
755	 0.1197679776505 
756	 0.120068183108084 
757	 0.119997477927061 
758	 0.119416820495879 
759	 0.11961486889195 
760	 0.120914455738321 
761	 0.122351011583163 
762	 0.122828373811796 
763	 0.122495660835034 
764	 0.122146432062766 
765	 0.122335650645619 
766	 0.123011135918341 
767	 0.123015014538256 
768	 0.12262972104732 
769	 0.122213157039348 
770	 0.122344595752471 
771	 0.122841251665644 
772	 0.122365866329922 
773	 0.122105047359992 
774	 0.122744459615587 
775	 0.12284444991938 
776	 0.122657449124271 
777	 0.123000996256091 
778	 0.123518436476794 
779	 0.123960454332971 
780	 0.123748159344599 
781	 0.123503716517902 
782	 0.12374652467432 
783	 0.124385896426627 
784	 0.124932106122505 
785	 0.124373872276327 
786	 0.123967941189289 
787	 0.124078630055877 
788	 0.12415841171052 
789	 0.124336214690803 
790	 0.124723702776905 
791	 0.124976502049231 
792	 0.125109138648561 
793	 0.125355529572767 
794	 0.125447464703562 
795	 0.125317438216204 
796	 0.125098140806349 
797	 0.12502918512342 
798	 0.125309167569076 
799	 0.12537802926876 
800	 0.125296544042439 
801	 0.125539960595408 
802	 0.125818370781101 
803	 0.1260381435431 
804	 0.126353547971498 
805	 0.126587520558215 
806	 0.126554899244975 
807	 0.126492953951541 
808	 0.126543666647765 
809	 0.127028467428821 
810	 0.127053874297825 
811	 0.126412990929601 
812	 0.12652955158382 
813	 0.127106546421347 
814	 0.127578899304746 
815	 0.127876048176861 
816	 0.128030943863583 
817	 0.128421064813492 
818	 0.128262569796866 
819	 0.127526261061924 
820	 0.127866859064903 
821	 0.128754682641447 
822	 0.129404101298686 
823	 0.129387724439052 
824	 0.128960257657488 
825	 0.129176956872199 
826	 0.129474080173676 
827	 0.129666307490287 
828	 0.130119044645524 
829	 0.130267236260536 
830	 0.129455633665883 
831	 0.129434867659421 
832	 0.130245093882073 
833	 0.130884307610299 
834	 0.131028915862588 
835	 0.130743719805709 
836	 0.131594315982367 
837	 0.132278192141295 
838	 0.131263571390335 
839	 0.130645288717886 
840	 0.130874213339095 
841	 0.13196330008904 
842	 0.132450375372033 
843	 0.131822324649128 
844	 0.131360001468538 
845	 0.131365465431861 
846	 0.131990260419618 
847	 0.131781607804247 
848	 0.131083275890345 
849	 0.131921101138199 
850	 0.132157386756928 
851	 0.131311748881899 
852	 0.132057572775931 
853	 0.133021775450901 
854	 0.132568853025817 
855	 0.132309179670468 
856	 0.132356750933682 
857	 0.132159006559616 
858	 0.132080649840041 
859	 0.132202277240709 
860	 0.132301386321537 
861	 0.132430806054539 
862	 0.132606789970962 
863	 0.132058612854632 
864	 0.13154686427467 
865	 0.133274637340195 
866	 0.134116768981736 
867	 0.133479626772189 
868	 0.134237998035341 
869	 0.134711726318205 
870	 0.133706119893799 
871	 0.134268767980415 
872	 0.135571761115784 
873	 0.135062649841489 
874	 0.135272198927209 
875	 0.136294519286086 
876	 0.135286293660044 
877	 0.134453207810464 
878	 0.135200897265972 
879	 0.135179041258276 
880	 0.134827491356122 
881	 0.135390066003901 
882	 0.135091080488416 
883	 0.134107304810557 
884	 0.134732862121646 
885	 0.135571384383998 
886	 0.13583981887364 
887	 0.136071772520175 
888	 0.136162270499483 
889	 0.135939434573992 
890	 0.136649988530698 
891	 0.137848425967867 
892	 0.137256214941146 
893	 0.13607374479903 
894	 0.135152616562878 
895	 0.135843533526208 
896	 0.137309582565189 
897	 0.138260338294856 
898	 0.137103277387481 
899	 0.135468816714876 
900	 0.138463161088666 
901	 0.139330751968352 
902	 0.137076904246348 
903	 0.137871476658649 
904	 0.139345047307564 
905	 0.139492011687627 
906	 0.138669277078513 
907	 0.13825740754413 
908	 0.140667948342927 
909	 0.141628854703528 
910	 0.140650758544072 
911	 0.14132152392213 
912	 0.141136389074282 
913	 0.139283634884574 
914	 0.140310102718831 
915	 0.141919355291208 
916	 0.140855222925371 
917	 0.140808985503133 
918	 0.141358890380512 
919	 0.139168546128024 
920	 0.137780607250103 
921	 0.138251933041375 
922	 0.138736942728578 
923	 0.139625402525753 
924	 0.141057743662583 
925	 0.13975179610139 
926	 0.137144436445907 
927	 0.13769119326174 
928	 0.138516696014679 
929	 0.139024775906572 
930	 0.141538801164995 
931	 0.141577860832207 
932	 0.136006059639238 
933	 0.132486370734198 
934	 0.133088108518546 
935	 0.138159655291338 
936	 0.141042774655 
937	 0.14064723939816 
938	 0.139251781366515 
939	 0.138639029058292 
940	 0.138890942776068 
941	 0.13736873012118 
942	 0.133531951583877 
943	 0.128266279385654 
944	 0.133115563191665 
945	 0.14186940382011 
946	 0.142825873313678 
947	 0.142042367694645 
948	 0.141267962859229 
949	 0.141227628876929 
950	 0.142199966131456 
951	 0.143914082608384 
952	 0.14404755242213 
953	 0.144692885120589 
954	 0.147286230255196 
955	 0.144205013160151 
956	 0.139243637134546 
957	 0.141322687896455 
958	 0.142144731291497 
959	 0.139909192750258 
960	 0.135266577391575 
961	 0.135067684119683 
962	 0.141388559448707 
963	 0.146745776193538 
964	 0.14844428973763 
965	 0.145070276858395 
966	 0.143541978773506 
967	 0.143196668879584 
968	 0.140046115825081 
969	 0.13733438006943 
970	 0.136300618575737 
971	 0.138006982329965 
972	 0.139353225854122 
973	 0.138764544299714 
974	 0.137823980279047 
975	 0.138718233990975 
976	 0.143156487748966 
977	 0.143242520120973 
978	 0.139885367665599 
979	 0.138221059790245 
980	 0.139982633712755 
981	 0.14402694207599 
982	 0.14403392658739 
983	 0.143054643284536 
984	 0.143036190642954 
985	 0.144728710443799 
986	 0.146352663503566 
987	 0.145939783863608 
988	 0.143182133011637 
989	 0.141436629799038 
990	 0.147625143354812 
991	 0.148287904914861 
992	 0.142300333818223 
993	 0.140369726531842 
994	 0.141989786512351 
995	 0.14575464734446 
996	 0.144787910790293 
997	 0.142889023031029 
998	 0.143986125520089 
999	 0.141849218190756 
1000	 0.139777676027843 
1001	 0.145107890276462 
1002	 0.142033484371382 
1003	 0.133317099725143 
1004	 0.143012523858704 
1005	 0.146939719850219 
1006	 0.138251914637731 
1007	 0.135165872573369 
1008	 0.138475569017143 
1009	 0.146478810123786 
1010	 0.147254920429405 
1011	 0.145008917714707 
1012	 0.147549180307216 
1013	 0.144263953692434 
1014	 0.139403267683215 
1015	 0.148863806615801 
1016	 0.149994333299558 
1017	 0.139671682710669 
1018	 0.136467800593527 
1019	 0.138869843101545 
1020	 0.144524037633756 
1021	 0.143526410730108 
1022	 0.143418335518861 
1023	 0.15173083802433 
1024	 0.16047236817382 
1025	 0.161922092397446 
1026	 0.146177968135766 
1027	 0.144790365358241 
1028	 0.154875295888135 
1029	 0.140989736368545 
1030	 0.130346253200104 
1031	 0.132168472984277 
1032	 0.141795064693684 
1033	 0.148934903641599 
1034	 0.147674891570903 
1035	 0.149938168907028 
1036	 0.148482353042523 
1037	 0.135853509042243 
1038	 0.12640680459214 
1039	 0.126891707701439 
1040	 0.142581139871251 
1041	 0.15713396421301 
1042	 0.162228221431888 
1043	 0.149321881059168 
1044	 0.141830323433451 
1045	 0.147493307345203 
1046	 0.155828597674323 
1047	 0.145513255672639 
1048	 0.112421052077067 
1049	 0.123374066741018 
1050	 0.142015574948971 
1051	 0.132787209279824 
1052	 0.140680603025612 
1053	 0.154670680261067 
1054	 0.148060813620779 
1055	 0.141556007142144 
1056	 0.142708158647045 
1057	 0.157320988277162 
1058	 0.167945695881812 
1059	 0.168691721079861 
1060	 0.162198932230466 
1061	 0.139474780273415 
1062	 0.108186464570914 
1063	 0.142812723056327 
1064	 0.166280715695891 
1065	 0.132986620111095 
1066	 0.156626918131561 
1067	 0.192310713598465 
1068	 0.182500862553847 
1069	 0.141881794251295 
1070	 0.108678213850679 
1071	 0.14079239706104 
1072	 0.135824970359277 
1073	 9.55002335606997E-02 
1074	 0.083073900331974 
1075	 9.54674365806999E-02 
