Wavelength	A00249.asd
325	 3.94224472386438E-02 
326	 4.10076639491128E-02 
327	 4.38227040586978E-02 
328	 3.79621190463828E-02 
329	 3.81625039740759E-02 
330	 0.04683187703073 
331	 4.71026781134338E-02 
332	 4.56409686730772E-02 
333	 4.96097808223241E-02 
334	 5.02406778188002E-02 
335	 0.048315503670742 
336	 4.85966117080864E-02 
337	 4.99782480344031E-02 
338	 5.15678924655838E-02 
339	 0.051770056705931 
340	 4.78765932395986E-02 
341	 3.91071195370734E-02 
342	 4.04194703577776E-02 
343	 0.047783426012558 
344	 5.01608376045473E-02 
345	 4.87116888437652E-02 
346	 4.53802200482054E-02 
347	 4.72225298821996E-02 
348	 4.84378579070955E-02 
349	 0.045753316899122 
350	 4.67680979018881E-02 
351	 4.88798289376399E-02 
352	 4.65862317232313E-02 
353	 4.46393804062056E-02 
354	 4.43352713883547E-02 
355	 4.57129085074191E-02 
356	 4.66079547548607E-02 
357	 4.60294399221697E-02 
358	 4.72274693200977E-02 
359	 4.91557234120553E-02 
360	 4.98034745206298E-02 
361	 4.78313110148114E-02 
362	 4.48858110068672E-02 
363	 4.74186059242184E-02 
364	 0.049320385125488 
365	 4.77338779473332E-02 
366	 4.68217167306179E-02 
367	 4.66152225384294E-02 
368	 4.65596644761816E-02 
369	 0.046477603195396 
370	 4.63070320851065E-02 
371	 4.59703266360567E-02 
372	 4.63048659535652E-02 
373	 4.74787717651071E-02 
374	 0.047101628299011 
375	 4.68087211546028E-02 
376	 4.90815309221058E-02 
377	 4.97704970713173E-02 
378	 4.83795335598829E-02 
379	 4.63794181325316E-02 
380	 4.63317482544416E-02 
381	 4.89293652899627E-02 
382	 4.93393873102558E-02 
383	 4.81716842639095E-02 
384	 0.046908594793384 
385	 4.70442350593099E-02 
386	 4.78377981687456E-02 
387	 4.54896457691229E-02 
388	 4.46504464643544E-02 
389	 4.68563069475507E-02 
390	 4.80410562580498E-02 
391	 4.85707312787976E-02 
392	 4.93113154417553E-02 
393	 4.88976043844553E-02 
394	 4.76298245581549E-02 
395	 4.71013888193645E-02 
396	 0.046597777251856 
397	 0.045933642992491 
398	 4.57542566915323E-02 
399	 0.045446430750359 
400	 4.44031560414034E-02 
401	 4.46525891857728E-02 
402	 4.59603231551343E-02 
403	 4.70097094725682E-02 
404	 0.047677964724663 
405	 4.78938012954503E-02 
406	 4.78139961944508E-02 
407	 4.76481498833401E-02 
408	 4.76182204911586E-02 
409	 0.047474918978336 
410	 4.72189595032293E-02 
411	 4.69326442566141E-02 
412	 4.69599285731498E-02 
413	 4.73253386793984E-02 
414	 4.70156794324411E-02 
415	 4.67485169108739E-02 
416	 4.75505473351851E-02 
417	 4.78865188498012E-02 
418	 4.76519596564471E-02 
419	 4.77240848132688E-02 
420	 4.77335911894179E-02 
421	 4.75696872979043E-02 
422	 4.78605721746597E-02 
423	 4.83017797801636E-02 
424	 4.83646151300803E-02 
425	 4.84006653229739E-02 
426	 4.85756892469039E-02 
427	 4.91879899650359E-02 
428	 4.96391029113699E-02 
429	 4.95319660089094E-02 
430	 4.91036416843173E-02 
431	 0.048652562928798 
432	 4.86126949141376E-02 
433	 4.82724742635562E-02 
434	 4.77420949565289E-02 
435	 4.80400856885369E-02 
436	 4.85675138442411E-02 
437	 4.89098592545252E-02 
438	 4.93026108379458E-02 
439	 4.94457878810929E-02 
440	 4.86889855773105E-02 
441	 4.84892925048299E-02 
442	 4.90968934626599E-02 
443	 4.94991262088397E-02 
444	 4.96304809160774E-02 
445	 4.95145787922401E-02 
446	 4.97513373116392E-02 
447	 5.01649406409266E-02 
448	 5.01237829919421E-02 
449	 5.00931413519293E-02 
450	 5.02202134014244E-02 
451	 5.03989250115027E-02 
452	 5.06638844968143E-02 
453	 5.10312858970215E-02 
454	 5.10770761110422E-02 
455	 5.09060968162249E-02 
456	 5.10851356448807E-02 
457	 5.10373164648938E-02 
458	 5.06771783311726E-02 
459	 5.09673109459797E-02 
460	 5.11972865067828E-02 
461	 5.04791872440586E-02 
462	 5.05212909030527E-02 
463	 0.051219625937488 
464	 5.09869218881009E-02 
465	 5.07925804669205E-02 
466	 5.10876504947115E-02 
467	 5.14050144275008E-02 
468	 5.14848207174421E-02 
469	 5.10285695144029E-02 
470	 5.11975823951276E-02 
471	 5.19270480846465E-02 
472	 5.18384258401082E-02 
473	 5.16737293700675E-02 
474	 0.05185303032978 
475	 5.16750751042103E-02 
476	 5.14707305890034E-02 
477	 5.20069687938261E-02 
478	 5.19052351985013E-02 
479	 5.11690449584626E-02 
480	 5.15815064396887E-02 
481	 5.21189637054057E-02 
482	 5.19598911714062E-02 
483	 5.19780899064954E-02 
484	 5.21875777050859E-02 
485	 5.23059650008541E-02 
486	 5.21856826533566E-02 
487	 5.19229453123371E-02 
488	 5.24074670612154E-02 
489	 5.27691787893045E-02 
490	 5.21413844721808E-02 
491	 0.05169773943655 
492	 5.18035667536393E-02 
493	 5.28653227192707E-02 
494	 5.34936213024959E-02 
495	 5.31582276501218E-02 
496	 5.28751764900672E-02 
497	 5.28561489310701E-02 
498	 5.32319282856849E-02 
499	 5.36438530136223E-02 
500	 5.38893101178194E-02 
501	 5.36629401580351E-02 
502	 0.053495968687932 
503	 5.37129048357273E-02 
504	 0.054058779671968 
505	 5.44365828534159E-02 
506	 5.47609355323835E-02 
507	 5.49048277999871E-02 
508	 5.49728045047544E-02 
509	 5.55357798942593E-02 
510	 5.60992404711322E-02 
511	 5.62796061119143E-02 
512	 5.65222017307419E-02 
513	 5.68786871648108E-02 
514	 5.73002663706544E-02 
515	 5.76670602534927E-02 
516	 5.79773969054464E-02 
517	 5.85174166546508E-02 
518	 5.90798602497476E-02 
519	 5.94155550884244E-02 
520	 5.93872990942246E-02 
521	 5.93872126318309E-02 
522	 6.05340404661189E-02 
523	 6.15975324094415E-02 
524	 6.20553041121222E-02 
525	 6.25802614801464E-02 
526	 6.30399618126187E-02 
527	 6.31444116221314E-02 
528	 6.35401656297663E-02 
529	 6.41903551509228E-02 
530	 6.43328569608738E-02 
531	 6.45624621684354E-02 
532	 6.52413017125631E-02 
533	 6.58630283590953E-02 
534	 6.62173934008317E-02 
535	 6.60187313059921E-02 
536	 6.60864002631469E-02 
537	 6.66193389506324E-02 
538	 6.71291779904879E-02 
539	 6.75296604125154E-02 
540	 6.77578590117933E-02 
541	 6.78570478041604E-02 
542	 6.79005977842035E-02 
543	 6.80093931032604E-02 
544	 6.82437409960235E-02 
545	 6.86246033564592E-02 
546	 0.06908329670649 
547	 6.94754531271347E-02 
548	 6.96303680588409E-02 
549	 6.98485087098404E-02 
550	 7.01898296148162E-02 
551	 7.06011754534071E-02 
552	 7.08828003716732E-02 
553	 7.09175567559259E-02 
554	 7.08744323395337E-02 
555	 0.070899499573299 
556	 0.071205158168594 
557	 7.15440383914925E-02 
558	 7.17868276755018E-02 
559	 7.18053503897997E-02 
560	 7.17193949346084E-02 
561	 7.16617746087479E-02 
562	 7.17811659524221E-02 
563	 7.20104892156507E-02 
564	 7.21432957564679E-02 
565	 7.20305345023745E-02 
566	 7.16690335523277E-02 
567	 7.15271560244917E-02 
568	 7.14304114390618E-02 
569	 0.07110105143895 
570	 7.10087136621115E-02 
571	 0.071164410889114 
572	 7.12145985370774E-02 
573	 7.11483676458441E-02 
574	 7.09901195189009E-02 
575	 7.10983243220584E-02 
576	 7.11989811653742E-02 
577	 7.07133542176116E-02 
578	 7.00754693944012E-02 
579	 6.95385090895032E-02 
580	 6.94534313737786E-02 
581	 0.069586483034629 
582	 6.97041570064348E-02 
583	 6.97773088768811E-02 
584	 6.98196218459626E-02 
585	 6.99849750629578E-02 
586	 6.97456281412606E-02 
587	 6.90466120126124E-02 
588	 6.89783019478122E-02 
589	 6.92215469457275E-02 
590	 6.92192096158503E-02 
591	 6.90364666305579E-02 
592	 6.87583142198118E-02 
593	 6.86219073488676E-02 
594	 6.85392722707341E-02 
595	 6.84749651587983E-02 
596	 6.85485076426831E-02 
597	 6.86891007368672E-02 
598	 6.87784408410665E-02 
599	 0.068537861381151 
600	 6.80509038567009E-02 
601	 6.80834447826225E-02 
602	 6.82360728914046E-02 
603	 0.068140745340995 
604	 6.80982262125053E-02 
605	 6.81303793614049E-02 
606	 6.81725378764836E-02 
607	 6.82212685660165E-02 
608	 6.82160311637939E-02 
609	 6.78799294956657E-02 
610	 6.74250239021292E-02 
611	 6.71457083771809E-02 
612	 6.71135419814096E-02 
613	 6.72017470045967E-02 
614	 6.69226983876958E-02 
615	 6.66141278616186E-02 
616	 6.64738216356083E-02 
617	 6.62977956645358E-02 
618	 6.61126204535207E-02 
619	 6.59966480674404E-02 
620	 6.59992507774354E-02 
621	 6.60650663652752E-02 
622	 6.59302532561863E-02 
623	 6.56392060552781E-02 
624	 6.52688612041636E-02 
625	 0.065153054467426 
626	 6.52302704428298E-02 
627	 6.51181499431338E-02 
628	 6.52524271094852E-02 
629	 6.56769541755179E-02 
630	 6.56520906402997E-02 
631	 6.53335074723884E-02 
632	 6.50061824917636E-02 
633	 6.53515215342737E-02 
634	 6.60732398128649E-02 
635	 6.56837128287281E-02 
636	 0.064994866542358 
637	 6.45857320998601E-02 
638	 6.50028505761002E-02 
639	 6.54483693173722E-02 
640	 0.064333815862045 
641	 6.37685435170753E-02 
642	 6.40932568819669E-02 
643	 6.36357920389798E-02 
644	 6.32077797597364E-02 
645	 6.35007017852205E-02 
646	 6.33513409183119E-02 
647	 6.27158275833748E-02 
648	 0.061999015651216 
649	 6.16348742531751E-02 
650	 6.17320003946655E-02 
651	 6.15880454096698E-02 
652	 6.13232162800363E-02 
653	 6.11534900099742E-02 
654	 6.12686544349899E-02 
655	 6.14578789530619E-02 
656	 6.07963336172878E-02 
657	 6.01472217833014E-02 
658	 0.059994079434295 
659	 5.96154577342171E-02 
660	 5.91188499076174E-02 
661	 5.88239627986382E-02 
662	 5.83637664054109E-02 
663	 5.77391893670861E-02 
664	 5.73743373336195E-02 
665	 5.71982500471869E-02 
666	 5.71001982989384E-02 
667	 5.65620926100575E-02 
668	 5.59774113340693E-02 
669	 5.66744327357936E-02 
670	 5.66145258947047E-02 
671	 5.54573958151107E-02 
672	 5.58941633580085E-02 
673	 5.67457176810681E-02 
674	 5.64518283689144E-02 
675	 5.60345176127143E-02 
676	 5.57875522525734E-02 
677	 5.58234544336462E-02 
678	 5.62146489257396E-02 
679	 5.69199922834631E-02 
680	 5.74373751365402E-02 
681	 5.76138296506855E-02 
682	 5.72988231388072E-02 
683	 5.75647794381992E-02 
684	 5.85323427156272E-02 
685	 5.93150429620744E-02 
686	 6.00625090058717E-02 
687	 0.060914791261759 
688	 6.21177764139523E-02 
689	 6.34799632255643E-02 
690	 6.46699454100415E-02 
691	 6.63202019461351E-02 
692	 6.84417771554028E-02 
693	 6.99065940658527E-02 
694	 7.12550893191463E-02 
695	 7.30570982935807E-02 
696	 7.53358222032473E-02 
697	 7.78126780742384E-02 
698	 7.98588048077948E-02 
699	 8.16786259260065E-02 
700	 8.33799411702667E-02 
701	 8.53284642017823E-02 
702	 0.087346626032261 
703	 8.91352726594046E-02 
704	 9.09505959516583E-02 
705	 9.27456263822909E-02 
706	 9.40909845036688E-02 
707	 9.53167937802985E-02 
708	 0.096654199680058 
709	 9.80602332977268E-02 
710	 9.95690236942825E-02 
711	 0.101276777314169 
712	 0.102818034546906 
713	 0.104079374424353 
714	 0.105260411007879 
715	 0.106184128608795 
716	 0.10674425788821 
717	 0.107436865740751 
718	 0.108477572454211 
719	 0.110003093332301 
720	 0.110942997929885 
721	 0.111104942367209 
722	 0.111719398006052 
723	 0.112312657305157 
724	 0.112231879181452 
725	 0.112794479028527 
726	 0.113977339942848 
727	 0.114901104396689 
728	 0.115357680653932 
729	 0.115349710217471 
730	 0.115860793242933 
731	 0.116589849346253 
732	 0.116967039971519 
733	 0.117282989995966 
734	 0.117583255050947 
735	 0.117723434072729 
736	 0.118062071732243 
737	 0.118763672585144 
738	 0.119084507349237 
739	 0.119193767193456 
740	 0.119600706285075 
741	 0.1201032957368 
742	 0.120553388609333 
743	 0.120624969126548 
744	 0.120520474416771 
745	 0.120459096579494 
746	 0.12084525928873 
747	 0.121410076891249 
748	 0.121295522126236 
749	 0.121457830524312 
750	 0.122056836232041 
751	 0.12200348359213 
752	 0.12178603215016 
753	 0.121982721374065 
754	 0.12198348309408 
755	 0.121889152455957 
756	 0.122376330477989 
757	 0.122625986825049 
758	 0.12233535843936 
759	 0.122265552105346 
760	 0.122911386870267 
761	 0.124665052718871 
762	 0.124929231139253 
763	 0.124118402194808 
764	 0.124765759913356 
765	 0.125191511827724 
766	 0.124908828738725 
767	 0.124626926434626 
768	 0.124526979744926 
769	 0.124777387269053 
770	 0.124961852057066 
771	 0.125041240063755 
772	 0.125313752743028 
773	 0.125516136460452 
774	 0.125485505724189 
775	 0.125421403851025 
776	 0.125463071107839 
777	 0.125794123413873 
778	 0.12621255296083 
779	 0.126567307541085 
780	 0.12655616526186 
781	 0.126553885456675 
782	 0.126838445756806 
783	 0.126951234394244 
784	 0.126959346344891 
785	 0.12717321821741 
786	 0.127295462893038 
787	 0.127257637815365 
788	 0.127187170303016 
789	 0.127285440689565 
790	 0.127705344392253 
791	 0.128037425718237 
792	 0.128200022201531 
793	 0.128218057859377 
794	 0.128152427667244 
795	 0.128082239425532 
796	 0.128166562081004 
797	 0.12847130321576 
798	 0.129002185058598 
799	 0.128951971908018 
800	 0.128528770320592 
801	 0.128708468015735 
802	 0.129101998745299 
803	 0.12948488559211 
804	 0.129426963692586 
805	 0.129345519168142 
806	 0.129689239361808 
807	 0.129394924296937 
808	 0.128869830632836 
809	 0.129961045363775 
810	 0.130784924628675 
811	 0.130602295225379 
812	 0.13049286427245 
813	 0.130415362836642 
814	 0.130238625605285 
815	 0.131140590017756 
816	 0.132730863320958 
817	 0.132973933700406 
818	 0.132500430809158 
819	 0.131790663942517 
820	 0.131672003193737 
821	 0.131976837188194 
822	 0.13241362070881 
823	 0.132595456640755 
824	 0.13252010479249 
825	 0.132517498497367 
826	 0.132565391727456 
827	 0.132729229353791 
828	 0.133491665514531 
829	 0.133767213788771 
830	 0.132303083364659 
831	 0.132387314168811 
832	 0.133900686710778 
833	 0.1343914517619 
834	 0.134296769075505 
835	 0.133924201824459 
836	 0.134273599786018 
837	 0.134553065949477 
838	 0.133832332127351 
839	 0.134070698536272 
840	 0.134969304396169 
841	 0.134353291856929 
842	 0.134352234149867 
843	 0.135470593740133 
844	 0.135053718782698 
845	 0.134278132186767 
846	 0.134654393045649 
847	 0.134639955440808 
848	 0.134390437637851 
849	 0.135273209955882 
850	 0.13611693566478 
851	 0.136336062176284 
852	 0.135706183410706 
853	 0.134985947483268 
854	 0.135000726471115 
855	 0.134986837076684 
856	 0.13500127020629 
857	 0.135619312616861 
858	 0.135960865727608 
859	 0.135758572770741 
860	 0.135268893337653 
861	 0.1353450398882 
862	 0.136600488270648 
863	 0.136142534289379 
864	 0.134865675919136 
865	 0.136256700856198 
866	 0.137020798973795 
867	 0.136363866028436 
868	 0.136115160673791 
869	 0.136419773966533 
870	 0.137246576689819 
871	 0.137660814035131 
872	 0.137769918428826 
873	 0.138157574200285 
874	 0.137868548348998 
875	 0.136898819619114 
876	 0.136252218426918 
877	 0.136474650157144 
878	 0.13776261422817 
879	 0.138525884506949 
880	 0.13884575969731 
881	 0.139300205194232 
882	 0.138544486990591 
883	 0.136952179198302 
884	 0.136905242968637 
885	 0.137643263254325 
886	 0.138574938106197 
887	 0.13879555450183 
888	 0.138892084702336 
889	 0.139763234415055 
890	 0.139322466568508 
891	 0.138007528898932 
892	 0.138772840936511 
893	 0.139474477843534 
894	 0.139223815578858 
895	 0.139054927273349 
896	 0.139648526440129 
897	 0.141521555604779 
898	 0.14168052184193 
899	 0.140800678209894 
900	 0.142517741256145 
901	 0.142065514704679 
902	 0.139042643290706 
903	 0.138535392685155 
904	 0.139863185937299 
905	 0.14203734000095 
906	 0.142299588901046 
907	 0.141622157305467 
908	 0.142622305699732 
909	 0.141891622954394 
910	 0.13971436309751 
911	 0.14067488480156 
912	 0.143031517769422 
913	 0.145384892067658 
914	 0.146429979335974 
915	 0.145482118707459 
916	 0.142210460338464 
917	 0.142597190294519 
918	 0.145300830122034 
919	 0.142877173397685 
920	 0.142325167990925 
921	 0.144821889220602 
922	 0.143254548971079 
923	 0.141239195511655 
924	 0.142098274901077 
925	 0.141636478725497 
926	 0.140303835870012 
927	 0.140635860403673 
928	 0.141128789634369 
929	 0.141112269273183 
930	 0.139837092236042 
931	 0.139144749227593 
932	 0.140342118432092 
933	 0.139969949407319 
934	 0.138902711250921 
935	 0.139256665898676 
936	 0.140988442583946 
937	 0.143667141511594 
938	 0.146846390370555 
939	 0.146487003756715 
940	 0.142698500832871 
941	 0.142246598018753 
942	 0.140976672103626 
943	 0.136737554833925 
944	 0.140396093014186 
945	 0.146784121556929 
946	 0.145898517400443 
947	 0.14654345187911 
948	 0.149940133312847 
949	 0.153620201647849 
950	 0.152496123733082 
951	 0.145915663442625 
952	 0.143151268764556 
953	 0.143168217296877 
954	 0.144205941077526 
955	 0.145902458301334 
956	 0.146602563147728 
957	 0.143631862872451 
958	 0.143993116145148 
959	 0.146724864245169 
960	 0.141690197541267 
961	 0.140071525653632 
962	 0.145989949409378 
963	 0.150778736846876 
964	 0.151926997120801 
965	 0.14812725497212 
966	 0.144116425917242 
967	 0.141435449680188 
968	 0.140960162256302 
969	 0.140243561016658 
970	 0.139223894477145 
971	 0.140575572432909 
972	 0.142052978660131 
973	 0.142648409626446 
974	 0.143853269763151 
975	 0.147933642568209 
976	 0.156158310734647 
977	 0.152540420970203 
978	 0.141654514364224 
979	 0.14008245098204 
980	 0.140216646234857 
981	 0.140850659942209 
982	 0.145733270951656 
983	 0.147359972646866 
984	 0.143165351068597 
985	 0.14467660687058 
986	 0.149548862342009 
987	 0.153600306133117 
988	 0.150084445280284 
989	 0.142812110046947 
990	 0.141692834981014 
991	 0.14458791084132 
992	 0.148474582611526 
993	 0.144227178731706 
994	 0.141777247750139 
995	 0.144926125277803 
996	 0.144062505251119 
997	 0.142432803157012 
998	 0.143698258275892 
999	 0.143679117543058 
1000	 0.144393456259379 
1001	 0.150484640366675 
1002	 0.148818032369147 
1003	 0.140125948871406 
1004	 0.138766244170209 
1005	 0.138400266522761 
1006	 0.137390535078184 
1007	 0.13994576511734 
1008	 0.143679876874133 
1009	 0.146215669232421 
1010	 0.146990285148501 
1011	 0.146103029621657 
1012	 0.143915370873926 
1013	 0.140783639168175 
1014	 0.139346893692712 
1015	 0.145782571948565 
1016	 0.14444021631034 
1017	 0.136053403064729 
1018	 0.145878336406055 
1019	 0.153974123288342 
1020	 0.15092845985127 
1021	 0.152616619406447 
1022	 0.153366010159522 
1023	 0.147875800662931 
1024	 0.153047014118279 
1025	 0.160796674646487 
1026	 0.153613030376776 
1027	 0.147281431258362 
1028	 0.144448864259849 
1029	 0.139327115854732 
1030	 0.141385243996438 
1031	 0.149561914616358 
1032	 0.143438321096835 
1033	 0.140177002082614 
1034	 0.149561108432729 
1035	 0.157847696617268 
1036	 0.158366632884008 
1037	 0.146823302441887 
1038	 0.138000111457284 
1039	 0.135087718398266 
1040	 0.137456752191705 
1041	 0.142492719032501 
1042	 0.14692389959101 
1043	 0.144806072767574 
1044	 0.146593203244954 
1045	 0.154669090012354 
1046	 0.165365415263248 
1047	 0.154449460698871 
1048	 0.117214145386985 
1049	 0.128103721587042 
1050	 0.15025378539689 
1051	 0.145534596150178 
1052	 0.143989294417521 
1053	 0.148226642503697 
1054	 0.15516940690813 
1055	 0.151088490160823 
1056	 0.148703096115108 
1057	 0.187908155216499 
1058	 0.172827772245402 
1059	 0.104606322569709 
1060	 0.126503642754925 
1061	 0.151617577387994 
1062	 0.145968555327753 
1063	 0.143374352721811 
1064	 0.138422919486282 
1065	 0.13004804153509 
1066	 0.140716966210204 
1067	 0.159745254495083 
1068	 0.174197048346282 
1069	 0.185597835759798 
1070	 0.186632922874132 
1071	 0.167707527562013 
1072	 0.146583941962432 
1073	 0.12646961865329 
1074	 9.96490709760324E-02 
1075	 0.102504766034361 
