Wavelength	A00214.asd
325	 0.028339174646611 
326	 2.51975985456442E-02 
327	 2.72029530390366E-02 
328	 3.39851694027288E-02 
329	 3.49463463294122E-02 
330	 2.86630735717148E-02 
331	 2.89099912700524E-02 
332	 3.31442448864415E-02 
333	 3.75832707314311E-02 
334	 3.76217226769991E-02 
335	 3.48326461109647E-02 
336	 3.42295466828773E-02 
337	 3.53536943688484E-02 
338	 3.77030056135702E-02 
339	 0.040052868392754 
340	 3.91280649754254E-02 
341	 3.33069765182721E-02 
342	 3.34971874723491E-02 
343	 3.80151081925973E-02 
344	 4.12049138073946E-02 
345	 3.95120667016414E-02 
346	 3.46438227285529E-02 
347	 3.76438607017164E-02 
348	 4.01666932269787E-02 
349	 0.037276212351317 
350	 3.79661191251047E-02 
351	 0.040097244022602 
352	 0.03861217212095 
353	 3.70418236553134E-02 
354	 3.68447867066408E-02 
355	 4.01019358258871E-02 
356	 4.17805468966708E-02 
357	 3.94404741574856E-02 
358	 3.93955495228471E-02 
359	 4.05613163233971E-02 
360	 4.02058342829057E-02 
361	 3.83979390878247E-02 
362	 3.65683721829964E-02 
363	 3.96726614739832E-02 
364	 4.06343831051975E-02 
365	 3.68099090266863E-02 
366	 3.72782179696171E-02 
367	 3.92565400028782E-02 
368	 3.78390970732746E-02 
369	 3.72710333977027E-02 
370	 3.77924292553125E-02 
371	 3.66430101564127E-02 
372	 3.68967687488283E-02 
373	 3.95728762783725E-02 
374	 3.93514794279203E-02 
375	 3.82657038407166E-02 
376	 3.97988830112354E-02 
377	 0.040793366686471 
378	 4.03423309404547E-02 
379	 3.75826128036251E-02 
380	 3.74033684187359E-02 
381	 4.11762375035504E-02 
382	 4.01988513016423E-02 
383	 3.77387971171203E-02 
384	 3.91393479236867E-02 
385	 3.93675400382219E-02 
386	 3.81351557858396E-02 
387	 3.80638980977901E-02 
388	 3.88283368272743E-02 
389	 3.98987377623712E-02 
390	 0.03887877269007 
391	 3.79855684287107E-02 
392	 3.99020711157085E-02 
393	 3.91495339619869E-02 
394	 3.65422348767167E-02 
395	 3.77547512973253E-02 
396	 3.89715948387432E-02 
397	 3.87248029962484E-02 
398	 3.85016221227203E-02 
399	 3.82170583767142E-02 
400	 3.76818334572379E-02 
401	 0.037630098515848 
402	 3.80652404181722E-02 
403	 0.038859945671182 
404	 3.88156221052589E-02 
405	 3.78203512640062E-02 
406	 3.85161744173162E-02 
407	 3.99693611439127E-02 
408	 4.07353442958122E-02 
409	 4.04447357555398E-02 
410	 3.93608891339374E-02 
411	 3.83046311865933E-02 
412	 3.82215100844994E-02 
413	 3.92985110659438E-02 
414	 3.96373445014084E-02 
415	 0.03936182137311 
416	 3.88982977254883E-02 
417	 3.89846366498719E-02 
418	 3.95691816108481E-02 
419	 3.99304809690621E-02 
420	 3.98591723236366E-02 
421	 3.94009537023524E-02 
422	 3.97866270431147E-02 
423	 4.04900486483896E-02 
424	 4.05636321301156E-02 
425	 4.03944546245704E-02 
426	 4.02541481781601E-02 
427	 0.040827843076614 
428	 4.11321046055234E-02 
429	 4.06323313595096E-02 
430	 4.05531632557837E-02 
431	 4.07636642964659E-02 
432	 0.040776471705015 
433	 4.05669037368082E-02 
434	 4.02592127635093E-02 
435	 4.03041485374508E-02 
436	 0.040460111202353 
437	 4.05925917452705E-02 
438	 4.11152789767915E-02 
439	 4.16295432486165E-02 
440	 4.13052131173959E-02 
441	 4.11014951897328E-02 
442	 0.04127716249531 
443	 4.15866214286442E-02 
444	 4.17542611458327E-02 
445	 4.16145645555179E-02 
446	 4.18609321175962E-02 
447	 4.23274230438491E-02 
448	 4.24160950371629E-02 
449	 4.22845391456048E-02 
450	 4.21046409492649E-02 
451	 4.24562382851098E-02 
452	 0.042960184464379 
453	 0.043193706431285 
454	 4.29817002344081E-02 
455	 4.25848477750822E-02 
456	 4.27967418290138E-02 
457	 4.31054326860956E-02 
458	 4.33000723746543E-02 
459	 4.34926862217274E-02 
460	 0.043522620427229 
461	 4.32082671988756E-02 
462	 4.29269067761154E-02 
463	 4.27103185152415E-02 
464	 4.22420101977315E-02 
465	 4.22240829982784E-02 
466	 4.29241795941183E-02 
467	 4.34332253366842E-02 
468	 4.36503038390128E-02 
469	 4.36022811321238E-02 
470	 4.38546616652805E-02 
471	 4.43160777491808E-02 
472	 0.044098024428725 
473	 4.37755789682896E-02 
474	 4.36915289581827E-02 
475	 4.33301387815697E-02 
476	 4.31468600658039E-02 
477	 4.40852876856229E-02 
478	 4.42918529964025E-02 
479	 4.36031021482212E-02 
480	 4.37553189326773E-02 
481	 4.43658261003286E-02 
482	 4.50001037670335E-02 
483	 0.044689522997916 
484	 4.38971514509732E-02 
485	 4.41808755094311E-02 
486	 4.42564886530238E-02 
487	 4.39244366618197E-02 
488	 4.46787615368098E-02 
489	 4.52610854630047E-02 
490	 4.44142393705921E-02 
491	 4.39710237053827E-02 
492	 4.42134179268923E-02 
493	 4.49336246941537E-02 
494	 4.53447126772157E-02 
495	 0.045128896858308 
496	 4.48871117465274E-02 
497	 4.47648709656576E-02 
498	 4.48619605008692E-02 
499	 4.51166352621142E-02 
500	 0.045479535779499 
501	 4.58882719530027E-02 
502	 4.61898297194418E-02 
503	 4.62931115663596E-02 
504	 4.62653909718486E-02 
505	 4.63486572010889E-02 
506	 0.046919025624462 
507	 4.73745800140898E-02 
508	 4.76047953660033E-02 
509	 4.79346744857428E-02 
510	 4.82973992348513E-02 
511	 4.86390687806681E-02 
512	 0.049059522040877 
513	 4.94666533004498E-02 
514	 0.049585465021079 
515	 4.98529165202116E-02 
516	 5.03372231296026E-02 
517	 5.04177324975649E-02 
518	 5.06027248100831E-02 
519	 5.14320571617385E-02 
520	 5.17057800060196E-02 
521	 5.16882727971594E-02 
522	 0.052809586330113 
523	 0.053777418520803 
524	 5.40726296421498E-02 
525	 5.45090386082643E-02 
526	 5.49248332278636E-02 
527	 5.49673442437859E-02 
528	 5.52302882039253E-02 
529	 5.57270887077355E-02 
530	 5.58989958879121E-02 
531	 5.62440979983482E-02 
532	 5.70257228995474E-02 
533	 5.74368448710513E-02 
534	 5.75459944315971E-02 
535	 0.057714783365209 
536	 5.79907060171554E-02 
537	 0.058400450455381 
538	 5.88936041746015E-02 
539	 5.93542633430065E-02 
540	 5.96669414039932E-02 
541	 5.98212702557588E-02 
542	 5.98587466935579E-02 
543	 5.98295803239483E-02 
544	 6.00708127447675E-02 
545	 6.06499457693828E-02 
546	 6.09918237815542E-02 
547	 6.11523007360677E-02 
548	 6.12802269372934E-02 
549	 6.14458437644111E-02 
550	 0.061723233817792 
551	 6.22696240100289E-02 
552	 6.27877656379313E-02 
553	 6.30496400080888E-02 
554	 6.28758471207605E-02 
555	 6.26275964142212E-02 
556	 6.30178202247879E-02 
557	 6.32723406546604E-02 
558	 6.32387270829233E-02 
559	 6.34428418053015E-02 
560	 6.36817584984093E-02 
561	 6.37486537953027E-02 
562	 6.36636084626299E-02 
563	 6.35415973361948E-02 
564	 0.063656807368092 
565	 6.38546838730128E-02 
566	 6.39710481626763E-02 
567	 6.34450714205609E-02 
568	 6.28631644766386E-02 
569	 6.30203681381213E-02 
570	 6.31360179044709E-02 
571	 6.31000680917515E-02 
572	 6.32958408231409E-02 
573	 6.32198782734622E-02 
574	 6.26557955536196E-02 
575	 6.25309225113354E-02 
576	 6.26359682931443E-02 
577	 6.23424665898924E-02 
578	 0.062117145213753 
579	 6.20300106554707E-02 
580	 6.17175330490181E-02 
581	 6.15100670046748E-02 
582	 6.16819865862069E-02 
583	 6.17954630199794E-02 
584	 6.17737765272807E-02 
585	 6.16311242740332E-02 
586	 6.15676493693382E-02 
587	 6.16464433001305E-02 
588	 6.16821712629371E-02 
589	 6.15632789607107E-02 
590	 0.061181889047965 
591	 6.08480580768067E-02 
592	 6.06738024174013E-02 
593	 6.06942522301042E-02 
594	 6.07499674373936E-02 
595	 6.07469325030294E-02 
596	 6.07581793293144E-02 
597	 6.08665282822152E-02 
598	 6.12287853619306E-02 
599	 6.12959774622311E-02 
600	 6.09893133767323E-02 
601	 6.07966392285028E-02 
602	 6.07033471316274E-02 
603	 6.06753557047446E-02 
604	 6.06840464000147E-02 
605	 6.05820256177973E-02 
606	 5.99224291396472E-02 
607	 5.97443865558867E-02 
608	 6.03443232509294E-02 
609	 6.07319016060559E-02 
610	 0.06054543284175 
611	 5.94850823242748E-02 
612	 5.92466867329996E-02 
613	 5.97948317162228E-02 
614	 5.94349059326311E-02 
615	 5.90904420314141E-02 
616	 5.92330816292172E-02 
617	 5.89033696278267E-02 
618	 5.83950119560399E-02 
619	 5.84209299170904E-02 
620	 0.058483005735786 
621	 5.84518251837849E-02 
622	 5.85120619045859E-02 
623	 5.82533627476327E-02 
624	 5.73988842732966E-02 
625	 5.73683769620968E-02 
626	 5.79861209276903E-02 
627	 5.80909703427516E-02 
628	 5.81634465608176E-02 
629	 5.82745373851143E-02 
630	 5.78639767054909E-02 
631	 5.75000383777532E-02 
632	 5.79195447662396E-02 
633	 5.83276318875881E-02 
634	 5.84298351623615E-02 
635	 5.79722889764638E-02 
636	 5.74953757925964E-02 
637	 5.73295741224383E-02 
638	 5.72419692705441E-02 
639	 5.70938642101088E-02 
640	 5.66698685276588E-02 
641	 5.65812709913522E-02 
642	 5.68012644224426E-02 
643	 5.62969505402015E-02 
644	 5.58323654215021E-02 
645	 5.60515725251707E-02 
646	 5.58787353068515E-02 
647	 5.53741143573444E-02 
648	 5.53041200282584E-02 
649	 5.48346472848815E-02 
650	 5.38986619637832E-02 
651	 5.39621486155364E-02 
652	 5.44173017275806E-02 
653	 5.44034803610884E-02 
654	 5.43554624805289E-02 
655	 5.42241901239901E-02 
656	 5.35460546155527E-02 
657	 5.29894096145876E-02 
658	 5.29159915346824E-02 
659	 5.27046596863279E-02 
660	 5.23059247861333E-02 
661	 5.17715084074622E-02 
662	 5.11056083081569E-02 
663	 5.04364308868475E-02 
664	 5.01611729162929E-02 
665	 5.02313168734951E-02 
666	 0.050509500908992 
667	 5.00182601389274E-02 
668	 4.91152269911364E-02 
669	 4.91242111977244E-02 
670	 4.90199467064719E-02 
671	 4.86187411477313E-02 
672	 4.90540911844718E-02 
673	 0.049472171549157 
674	 4.88480013240127E-02 
675	 0.048788895383185 
676	 4.93125539094299E-02 
677	 0.049297131017712 
678	 4.92849979929079E-02 
679	 4.95522989942335E-02 
680	 4.99452155640076E-02 
681	 5.03194620149972E-02 
682	 5.04618755673001E-02 
683	 5.10128858929371E-02 
684	 0.051908062117759 
685	 5.20902827165973E-02 
686	 0.052486220426537 
687	 5.38679778163937E-02 
688	 5.49064776916622E-02 
689	 5.56453025239201E-02 
690	 5.69199673247751E-02 
691	 0.058483170900107 
692	 6.02344300561963E-02 
693	 6.18307704096885E-02 
694	 6.35748485472828E-02 
695	 6.56991715312027E-02 
696	 6.76043684525782E-02 
697	 6.92509127277856E-02 
698	 7.09047364840071E-02 
699	 7.26860593643023E-02 
700	 7.45865423448035E-02 
701	 0.076226043930764 
702	 7.77645381711467E-02 
703	 0.079483868573386 
704	 8.12916216512968E-02 
705	 8.30519193145386E-02 
706	 8.43096752364898E-02 
707	 8.55709263890696E-02 
708	 0.087117823235276 
709	 8.83190465355772E-02 
710	 8.93969244757413E-02 
711	 9.09599064735355E-02 
712	 9.21786823806955E-02 
713	 9.29455906385187E-02 
714	 9.40371682053676E-02 
715	 9.51249087372216E-02 
716	 9.59652418315852E-02 
717	 0.097299875555982 
718	 9.89301578979961E-02 
719	 9.95764464289621E-02 
720	 9.96978820393931E-02 
721	 9.97138919036797E-02 
722	 0.100432131823741 
723	 0.101221680353056 
724	 0.101289139506928 
725	 0.101959683622037 
726	 0.103131278321452 
727	 0.103702838312462 
728	 0.104004332541213 
729	 0.104216814643639 
730	 0.10442911150735 
731	 0.104848367986367 
732	 0.105721577642882 
733	 0.10604492482923 
734	 0.105855909417109 
735	 0.106032766565028 
736	 0.106527703381717 
737	 0.107227706249147 
738	 0.1074807278307 
739	 0.107463187678388 
740	 0.107673108417645 
741	 0.108068477776561 
742	 0.108529373626157 
743	 0.108595971622798 
744	 0.108473192081405 
745	 0.108385154140722 
746	 0.108696023883296 
747	 0.109249783676303 
748	 0.109531278490093 
749	 0.10975240601169 
750	 0.109934561356979 
751	 0.109847142830352 
752	 0.109822148366003 
753	 0.110201831680028 
754	 0.110460780846689 
755	 0.110511033090321 
756	 0.110445853675166 
757	 0.110312605819843 
758	 0.110154355638735 
759	 0.109997977465374 
760	 0.110473461862578 
761	 0.112726158141203 
762	 0.113332551726899 
763	 0.112457420651471 
764	 0.112646590269276 
765	 0.113056747312508 
766	 0.113338319345432 
767	 0.11348162942227 
768	 0.113452939507996 
769	 0.113183924058727 
770	 0.112969013381914 
771	 0.112864462644015 
772	 0.112695825354255 
773	 0.112795379753116 
774	 0.113292360308791 
775	 0.113228140877189 
776	 0.113020239861219 
777	 0.113696649956414 
778	 0.11403769476388 
779	 0.113816698449942 
780	 0.113676821824423 
781	 0.113923567532954 
782	 0.114677641006446 
783	 0.114652635515373 
784	 0.114192042189965 
785	 0.114500635909885 
786	 0.114753210456477 
787	 0.114720493219433 
788	 0.114565013829062 
789	 0.114660595524936 
790	 0.115288390835351 
791	 0.115512690688722 
792	 0.115445186005786 
793	 0.11586355953606 
794	 0.115953548114353 
795	 0.115573629823569 
796	 0.115503153099349 
797	 0.11567017850316 
798	 0.11593725309907 
799	 0.116072631276031 
800	 0.116138266883092 
801	 0.116486635405174 
802	 0.116688442762203 
803	 0.116555431699675 
804	 0.116021598123387 
805	 0.115791668753708 
806	 0.116548009287217 
807	 0.116585065493566 
808	 0.116099786642874 
809	 0.11676180026302 
810	 0.117281644594722 
811	 0.11716594916893 
812	 0.117011008713051 
813	 0.117153452389262 
814	 0.117950431964529 
815	 0.118663010073091 
816	 0.11902398875063 
817	 0.119034664349227 
818	 0.118645405897401 
819	 0.118078703685261 
820	 0.118385879872019 
821	 0.119008581656011 
822	 0.119195878820482 
823	 0.119105295753708 
824	 0.118901991824419 
825	 0.118967002359597 
826	 0.119039451744861 
827	 0.119105795039166 
828	 0.11983032587793 
829	 0.120312125099012 
830	 0.119455236873426 
831	 0.119304733741114 
832	 0.11995720992453 
833	 0.120390553873822 
834	 0.120244834074796 
835	 0.119604719524622 
836	 0.120178892023521 
837	 0.120714758677669 
838	 0.119731381437506 
839	 0.119952407052974 
840	 0.121157871410569 
841	 0.121081540255428 
842	 0.120696890505836 
843	 0.120404510340899 
844	 0.120115148597691 
845	 0.120038478786866 
846	 0.120386971531664 
847	 0.12088415159109 
848	 0.121260001503616 
849	 0.121018283537484 
850	 0.120408567240494 
851	 0.119871887111701 
852	 0.121195083465227 
853	 0.122415476126519 
854	 0.121419781783917 
855	 0.121642220837094 
856	 0.122568838414833 
857	 0.121062532980307 
858	 0.120309223867248 
859	 0.121098819319681 
860	 0.121550406442026 
861	 0.121695135346059 
862	 0.121651081954302 
863	 0.121255934009851 
864	 0.12109730690495 
865	 0.122662997847237 
866	 0.123483484515301 
867	 0.122977339475578 
868	 0.122992452006789 
869	 0.122877721643451 
870	 0.122194087273996 
871	 0.122535751123096 
872	 0.123429275640148 
873	 0.123523024173078 
874	 0.123226685763754 
875	 0.122765325451054 
876	 0.122623079075465 
877	 0.122473361722797 
878	 0.122191409369952 
879	 0.122804491672836 
880	 0.123675282606944 
881	 0.123584210008216 
882	 0.123082158034734 
883	 0.12247532064767 
884	 0.122135886305275 
885	 0.122620447229629 
886	 0.123992056734805 
887	 0.124439924756617 
888	 0.124313892982943 
889	 0.124372770816927 
890	 0.124586057836823 
891	 0.124817754146103 
892	 0.124588931318527 
893	 0.124182069252252 
894	 0.12394331049431 
895	 0.125087621756868 
896	 0.126119231349529 
897	 0.125217708790748 
898	 0.124068108231673 
899	 0.123471088415496 
900	 0.124529693916571 
901	 0.124319578571609 
902	 0.12252641552963 
903	 0.122238427385842 
904	 0.123410596723746 
905	 0.12560923064693 
906	 0.126050715410942 
907	 0.125320619836244 
908	 0.125272421679145 
909	 0.125300497129334 
910	 0.125410021384191 
911	 0.126006907735083 
912	 0.126566125963296 
913	 0.126947200386882 
914	 0.128674513500169 
915	 0.129599823625824 
916	 0.127175763515646 
917	 0.127225436953428 
918	 0.129138990543997 
919	 0.127950182887179 
920	 0.126390799002315 
921	 0.125290773506397 
922	 0.123434753437295 
923	 0.123183664726765 
924	 0.126232674791057 
925	 0.125714487363737 
926	 0.123480203619909 
927	 0.126420281655478 
928	 0.127903005359847 
929	 0.126034470529437 
930	 0.123876681984715 
931	 0.123403740614529 
932	 0.125570187635855 
933	 0.121913409876597 
934	 0.118105378541782 
935	 0.123882298954531 
936	 0.130014458165217 
937	 0.132170159411763 
938	 0.125732216401242 
939	 0.121905074039865 
940	 0.123684078359594 
941	 0.126782105305684 
942	 0.126233054550022 
943	 0.12018312553659 
944	 0.12505989981899 
945	 0.133516748453661 
946	 0.131000931033023 
947	 0.12975470505504 
948	 0.13134079635728 
949	 0.130334084008763 
950	 0.130379964233856 
951	 0.132479653999923 
952	 0.133800381425798 
953	 0.132408882692691 
954	 0.127301207958842 
955	 0.123779633640776 
956	 0.122645726214605 
957	 0.12349975352395 
958	 0.124451872279097 
959	 0.124915610092662 
960	 0.124608312244553 
961	 0.127433643708045 
962	 0.133612984828475 
963	 0.134648359272997 
964	 0.132978672393351 
965	 0.131542028207651 
966	 0.128963520824646 
967	 0.12640972619743 
968	 0.126425557811378 
969	 0.123827833839139 
970	 0.119243865503005 
971	 0.120738722516892 
972	 0.122072401605623 
973	 0.120904510167321 
974	 0.125529633261307 
975	 0.13281679945519 
976	 0.137860765971687 
977	 0.133139192496198 
978	 0.124058852476837 
979	 0.125470362954565 
980	 0.127381446716213 
981	 0.127430473313212 
982	 0.127818907929418 
983	 0.129399940614906 
984	 0.132017569789277 
985	 0.131764056928943 
986	 0.130734298731015 
987	 0.131395273441641 
988	 0.131140171826192 
989	 0.130092625247719 
990	 0.129492237724042 
991	 0.127216631299752 
992	 0.123897042376712 
993	 0.123404054102802 
994	 0.125725693748887 
995	 0.129218420202133 
996	 0.124423904470109 
997	 0.121473880865249 
998	 0.129918072388323 
999	 0.133900896083623 
1000	 0.133744993262262 
1001	 0.135060031377947 
1002	 0.128085184683049 
1003	 0.116578067996532 
1004	 0.12038578118459 
1005	 0.126393154072674 
1006	 0.128298869482669 
1007	 0.12362410664504 
1008	 0.121258024716527 
1009	 0.126764997988666 
1010	 0.124592468974104 
1011	 0.119543630219374 
1012	 0.120884913783812 
1013	 0.123375814144497 
1014	 0.125746130563883 
1015	 0.127987303069504 
1016	 0.128758091935647 
1017	 0.128130517592028 
1018	 0.12903625770491 
1019	 0.126635245883409 
1020	 0.120069744665129 
1021	 0.121814289949401 
1022	 0.12514630306271 
1023	 0.123131326986158 
1024	 0.126737408931974 
1025	 0.130386783947549 
1026	 0.122411868626257 
1027	 0.11782205193797 
1028	 0.118777727265602 
1029	 0.118420538698711 
1030	 0.124462520854088 
1031	 0.134699261960646 
1032	 0.128920200914146 
1033	 0.120009703649297 
1034	 0.119029363244057 
1035	 0.135404028370664 
1036	 0.149921666604969 
1037	 0.14305672935097 
1038	 0.126707689278084 
1039	 0.114712344494073 
1040	 0.125594006835328 
1041	 0.127758590450469 
1042	 0.120642666376762 
1043	 0.127690016635555 
1044	 0.126779552824374 
1045	 0.115166124852098 
1046	 0.116970677088733 
1047	 0.116844518525966 
1048	 0.107696111694417 
1049	 0.108052194941256 
1050	 0.111377558026826 
1051	 0.111062847806796 
1052	 0.120978539644514 
1053	 0.129138740021234 
1054	 0.115420925236349 
1055	 0.118146991434422 
1056	 0.134358729513614 
1057	 0.136623239552227 
1058	 0.137331350081725 
1059	 0.140514522507317 
1060	 0.151367457814781 
1061	 0.138275599982638 
1062	 9.84236275044555E-02 
1063	 0.102972756876645 
1064	 0.119906585378977 
1065	 0.123728723944672 
1066	 0.140555788482996 
1067	 0.159316109542676 
1068	 0.16577341958502 
1069	 0.147375257706692 
1070	 0.118783161976874 
1071	 0.110398805831457 
1072	 0.14582984941323 
1073	 0.182819478580511 
1074	 0.104215266098844 
1075	 7.34802642019856E-02 
