Wavelength	A00242.asd
325	 3.36050126049392E-02 
326	 3.53492903033671E-02 
327	 4.48024123341743E-02 
328	 4.43227362664653E-02 
329	 0.044926162398971 
330	 0.049294595329522 
331	 4.96644657410838E-02 
332	 4.97415355912694E-02 
333	 5.32288809510749E-02 
334	 5.33968408655532E-02 
335	 5.09331731202014E-02 
336	 4.92272232699028E-02 
337	 5.08693816641896E-02 
338	 5.49907035736019E-02 
339	 5.45561254888362E-02 
340	 4.97949837766795E-02 
341	 4.24083373337012E-02 
342	 4.57580728552542E-02 
343	 5.41399234942281E-02 
344	 5.39940723422906E-02 
345	 0.05034077303288 
346	 4.62228766447664E-02 
347	 4.77921492237532E-02 
348	 5.05921965133891E-02 
349	 5.15179325529615E-02 
350	 5.25162666335299E-02 
351	 5.20390417167154E-02 
352	 4.71216170573886E-02 
353	 4.51768119600508E-02 
354	 4.72856965567565E-02 
355	 4.99752874061977E-02 
356	 5.10843978368473E-02 
357	 4.96381461491091E-02 
358	 4.87615910859416E-02 
359	 4.87284498168444E-02 
360	 4.92881888729049E-02 
361	 4.91888877209844E-02 
362	 4.88252635651417E-02 
363	 5.08532908200186E-02 
364	 5.17401078706353E-02 
365	 5.00841026589055E-02 
366	 4.97950892415303E-02 
367	 5.01847362251178E-02 
368	 4.97903935220324E-02 
369	 4.91745827176453E-02 
370	 4.86113451524021E-02 
371	 4.85290790010582E-02 
372	 4.88702689899754E-02 
373	 4.94218000406441E-02 
374	 4.90234218015132E-02 
375	 4.83652120835314E-02 
376	 4.85363208126862E-02 
377	 4.82313962019979E-02 
378	 4.75904451959572E-02 
379	 4.81112811255841E-02 
380	 4.82046815078103E-02 
381	 4.75332748787645E-02 
382	 4.95090220850326E-02 
383	 5.17549326084431E-02 
384	 5.08044031983555E-02 
385	 5.11388042896327E-02 
386	 5.22877687433898E-02 
387	 4.93447772797367E-02 
388	 4.78829017365284E-02 
389	 4.96167962924579E-02 
390	 4.85564642510453E-02 
391	 4.76307737420629E-02 
392	 5.06751313709657E-02 
393	 5.15220016877877E-02 
394	 4.99087503807613E-02 
395	 4.90185379853498E-02 
396	 4.83822942207006E-02 
397	 4.79430103357597E-02 
398	 4.81924109618091E-02 
399	 4.81953268935628E-02 
400	 4.70739208184559E-02 
401	 4.65430981515399E-02 
402	 4.70972657714966E-02 
403	 4.95798822352816E-02 
404	 0.050324728590326 
405	 4.83962432027179E-02 
406	 4.84478080719681E-02 
407	 4.94321233958177E-02 
408	 4.95324307486939E-02 
409	 0.049375172613768 
410	 4.91770810197406E-02 
411	 4.92005937753477E-02 
412	 4.93641338615881E-02 
413	 4.95740268259579E-02 
414	 4.95628920888349E-02 
415	 4.93391427456657E-02 
416	 4.89544145398643E-02 
417	 0.048599770912043 
418	 0.048503152126916 
419	 4.92297796364886E-02 
420	 4.97004257495297E-02 
421	 0.049433991976625 
422	 4.95610822699357E-02 
423	 4.99603982937117E-02 
424	 5.02749285311446E-02 
425	 0.050412074860004 
426	 5.03879672115446E-02 
427	 5.03538879878643E-02 
428	 5.05187633754168E-02 
429	 5.09607112074234E-02 
430	 5.11991230774016E-02 
431	 5.11615395734012E-02 
432	 0.050869429520604 
433	 5.03530909898384E-02 
434	 4.98705327565967E-02 
435	 5.02170722298238E-02 
436	 5.03712931438204E-02 
437	 4.98004206007697E-02 
438	 0.05033027638745 
439	 5.11923170300936E-02 
440	 5.04834582225445E-02 
441	 5.00583673853592E-02 
442	 5.04036579390733E-02 
443	 5.10419117849865E-02 
444	 5.15653232582816E-02 
445	 5.16714209463485E-02 
446	 5.16838980884569E-02 
447	 5.16957024674365E-02 
448	 0.051757823189795 
449	 5.19222837538124E-02 
450	 5.21711103953378E-02 
451	 5.23148222353802E-02 
452	 5.24411544981568E-02 
453	 0.052637114221924 
454	 5.26695445006952E-02 
455	 5.25763094574671E-02 
456	 5.25750338949611E-02 
457	 5.26144947038556E-02 
458	 5.26925596852783E-02 
459	 5.29317092446946E-02 
460	 5.29723970971076E-02 
461	 5.24131536918539E-02 
462	 5.24124568341368E-02 
463	 5.29188657972557E-02 
464	 5.28930273067171E-02 
465	 5.28711141088715E-02 
466	 0.053076618522833 
467	 5.31441251241415E-02 
468	 5.30190225829629E-02 
469	 5.26771052532279E-02 
470	 5.28169447118653E-02 
471	 5.33731636568159E-02 
472	 5.34465260312376E-02 
473	 0.053327074172975 
474	 5.32252558044653E-02 
475	 5.32922587832688E-02 
476	 5.33568871686723E-02 
477	 5.30635820298717E-02 
478	 0.052930187224549 
479	 5.30870421973883E-02 
480	 0.05335880795174 
481	 5.36656432714429E-02 
482	 5.39286419658232E-02 
483	 5.39706126503373E-02 
484	 5.39123998646802E-02 
485	 5.41567314881093E-02 
486	 5.40956427568932E-02 
487	 5.36815935004538E-02 
488	 5.39092856704698E-02 
489	 5.41464780361053E-02 
490	 5.37316921843599E-02 
491	 0.053428178257403 
492	 5.35314598338835E-02 
493	 0.054501909958711 
494	 5.50415369480578E-02 
495	 5.46948789441208E-02 
496	 5.46291891869884E-02 
497	 5.47899595848774E-02 
498	 0.05495404589664 
499	 5.54306844860524E-02 
500	 5.59355066934114E-02 
501	 5.52484385719812E-02 
502	 5.48466179109647E-02 
503	 5.55161829657833E-02 
504	 5.58277649626171E-02 
505	 5.58894577620026E-02 
506	 5.61961148762041E-02 
507	 0.056493192627053 
508	 5.67915505792381E-02 
509	 5.74014980116751E-02 
510	 5.79705138358476E-02 
511	 5.82204169777987E-02 
512	 5.83848800801588E-02 
513	 5.85651243214633E-02 
514	 5.88711939869728E-02 
515	 5.93022083183015E-02 
516	 5.98343286090428E-02 
517	 0.060328451934986 
518	 6.07997414280149E-02 
519	 6.12681469143163E-02 
520	 6.15239657992278E-02 
521	 6.17365122964632E-02 
522	 6.24702381998988E-02 
523	 6.31847443987218E-02 
524	 6.36561035753605E-02 
525	 0.06420815344201 
526	 6.46670654275413E-02 
527	 6.47414127737888E-02 
528	 6.49437203433025E-02 
529	 6.53664336619615E-02 
530	 6.57781552784212E-02 
531	 6.63510936664664E-02 
532	 6.71526813200181E-02 
533	 6.77462973125485E-02 
534	 6.80295081123245E-02 
535	 6.79083539746337E-02 
536	 6.80769332419153E-02 
537	 6.86530536021257E-02 
538	 0.068957771333118 
539	 6.91773261386077E-02 
540	 6.95080882074114E-02 
541	 6.96637188882369E-02 
542	 6.96909030948883E-02 
543	 6.98072485306528E-02 
544	 7.01603912703463E-02 
545	 7.07347322440821E-02 
546	 7.09879574225703E-02 
547	 7.10927095155446E-02 
548	 0.071342414674742 
549	 7.14423861677504E-02 
550	 7.14883574603665E-02 
551	 7.20232441518931E-02 
552	 0.072601022600476 
553	 7.29091590268781E-02 
554	 7.29210959504801E-02 
555	 7.27921129056108E-02 
556	 7.28011835266313E-02 
557	 0.072934693286012 
558	 0.073136858193839 
559	 7.31262590634843E-02 
560	 7.30957842287828E-02 
561	 7.32192139658601E-02 
562	 7.31971843771679E-02 
563	 7.30999809437025E-02 
564	 7.32551697624136E-02 
565	 7.34140334239043E-02 
566	 7.34420262379616E-02 
567	 7.32294157663761E-02 
568	 7.29105538261473E-02 
569	 7.26687862443744E-02 
570	 7.25999136131267E-02 
571	 7.27032901926718E-02 
572	 7.29215891430577E-02 
573	 7.28581556569502E-02 
574	 7.23655432852171E-02 
575	 0.072433578664486 
576	 0.072747272604586 
577	 7.24988773082656E-02 
578	 7.19697387050048E-02 
579	 7.13574163698801E-02 
580	 7.10807358752478E-02 
581	 7.10805438128906E-02 
582	 7.12557184294664E-02 
583	 7.12619749142202E-02 
584	 0.071111719837421 
585	 7.10411043879229E-02 
586	 7.09648706942346E-02 
587	 0.070817707122892 
588	 7.03466444613257E-02 
589	 6.99841309872912E-02 
590	 7.03109719331793E-02 
591	 7.03087266505031E-02 
592	 6.99503567065014E-02 
593	 6.99929298551372E-02 
594	 0.070115331878299 
595	 7.01494292997788E-02 
596	 7.02926814385167E-02 
597	 7.05025204898493E-02 
598	 7.06895291589302E-02 
599	 7.06424280577361E-02 
600	 7.03289988532433E-02 
601	 6.99131620585664E-02 
602	 6.96729868559054E-02 
603	 6.98221188786297E-02 
604	 6.99853756594536E-02 
605	 6.99587247331551E-02 
606	 6.93526611521195E-02 
607	 6.91077719268477E-02 
608	 6.95055554523368E-02 
609	 6.96548974026385E-02 
610	 6.94806631213712E-02 
611	 6.90072492446175E-02 
612	 6.89644289844053E-02 
613	 6.92870689005551E-02 
614	 6.91209187938129E-02 
615	 0.068732232157912 
616	 6.83224114293241E-02 
617	 6.81648976383764E-02 
618	 6.80693339859307E-02 
619	 6.76041454116063E-02 
620	 6.74464621370461E-02 
621	 6.76510641313813E-02 
622	 6.75399963178898E-02 
623	 6.73188392889882E-02 
624	 6.71969852500336E-02 
625	 6.71444303526385E-02 
626	 6.71312657261599E-02 
627	 6.70324152052636E-02 
628	 6.72324773447999E-02 
629	 6.77248033470667E-02 
630	 0.067507242126432 
631	 6.71174733430525E-02 
632	 6.73210802828385E-02 
633	 6.75662352056917E-02 
634	 6.76253802858658E-02 
635	 6.72181977198502E-02 
636	 6.67408460064946E-02 
637	 6.64781415891246E-02 
638	 6.66114305796247E-02 
639	 6.67697727692367E-02 
640	 6.62451354845504E-02 
641	 6.58877089714605E-02 
642	 6.58387175693572E-02 
643	 6.54688149630236E-02 
644	 6.50038759532563E-02 
645	 6.46691543177789E-02 
646	 6.45930214065233E-02 
647	 6.45298431806427E-02 
648	 6.37250316870642E-02 
649	 6.31477716546012E-02 
650	 6.31409234685566E-02 
651	 6.31563153140808E-02 
652	 6.31391124236169E-02 
653	 6.30804283275977E-02 
654	 6.29459678697366E-02 
655	 6.27272465017186E-02 
656	 6.24289340070097E-02 
657	 6.23265291773329E-02 
658	 6.24361602976762E-02 
659	 6.16213963272233E-02 
660	 6.05891377467239E-02 
661	 6.06839745166087E-02 
662	 6.04902352901059E-02 
663	 5.97762137634346E-02 
664	 5.93736009214145E-02 
665	 5.90769662456294E-02 
666	 5.87049258163118E-02 
667	 0.058412674915607 
668	 5.82647802611828E-02 
669	 5.84121634358877E-02 
670	 5.83202863189273E-02 
671	 5.78965130237374E-02 
672	 5.79056166061782E-02 
673	 5.80195064571161E-02 
674	 5.78043523825704E-02 
675	 5.76918388095805E-02 
676	 5.77832944392939E-02 
677	 0.058089434186713 
678	 5.83668288289084E-02 
679	 5.84945837473138E-02 
680	 5.86842651043925E-02 
681	 0.058935944491152 
682	 5.91853379563805E-02 
683	 5.99316152060993E-02 
684	 6.10441980623223E-02 
685	 6.14679325524499E-02 
686	 6.18697321968827E-02 
687	 6.28197709041678E-02 
688	 6.36906973555097E-02 
689	 6.45544828514684E-02 
690	 6.59508097366567E-02 
691	 6.75642501847974E-02 
692	 6.93605220893883E-02 
693	 7.15668339584841E-02 
694	 7.37330775944706E-02 
695	 7.53378641659204E-02 
696	 7.75515908164046E-02 
697	 8.00424868068575E-02 
698	 8.12874679207356E-02 
699	 8.26649809783609E-02 
700	 8.47675170868607E-02 
701	 8.69035187656547E-02 
702	 8.90418802944452E-02 
703	 0.091258051740792 
704	 9.28289063691549E-02 
705	 9.39342525416931E-02 
706	 9.57556385958093E-02 
707	 9.75103917034666E-02 
708	 9.87165448860743E-02 
709	 9.98751942142505E-02 
710	 0.101107471601223 
711	 0.102524435881637 
712	 0.103728401524537 
713	 0.104739318191129 
714	 0.106331619607573 
715	 0.107756615319858 
716	 0.108379259180042 
717	 0.109114824684401 
718	 0.110234713521994 
719	 0.111781513465459 
720	 0.112734512757146 
721	 0.112913273097391 
722	 0.113531571482346 
723	 0.11399456370716 
724	 0.113518078731504 
725	 0.114325818221264 
726	 0.116170349707256 
727	 0.116850354464786 
728	 0.116987267773241 
729	 0.116961958665495 
730	 0.117308752832313 
731	 0.11791368325655 
732	 0.118515267261506 
733	 0.118783070787623 
734	 0.118794856811157 
735	 0.119039640670454 
736	 0.11947507517028 
737	 0.120036078246919 
738	 0.120472853937538 
739	 0.120823959843512 
740	 0.121250959575869 
741	 0.121550697617063 
742	 0.121666470186057 
743	 0.121658479834146 
744	 0.121568782658624 
745	 0.121467940740628 
746	 0.121763430105843 
747	 0.122341802623932 
748	 0.122788349916905 
749	 0.123182492151757 
750	 0.123435284584538 
751	 0.123071788253183 
752	 0.122678388609312 
753	 0.12289460927482 
754	 0.123374491080958 
755	 0.123867433171551 
756	 0.123910741444943 
757	 0.123862682730266 
758	 0.123902625326624 
759	 0.123982330070637 
760	 0.124571642810484 
761	 0.12626206258466 
762	 0.126787750695789 
763	 0.126270261744102 
764	 0.12636393426795 
765	 0.126670167173147 
766	 0.126957086796809 
767	 0.1269318585317 
768	 0.126639317786494 
769	 0.126090133802432 
770	 0.126216106444548 
771	 0.126849059107823 
772	 0.126411928207488 
773	 0.126088646850273 
774	 0.126584983195043 
775	 0.126632947120089 
776	 0.126521231922028 
777	 0.127096261257561 
778	 0.127628636277549 
779	 0.127859909204345 
780	 0.12770688375032 
781	 0.127606020731982 
782	 0.127902553097055 
783	 0.128381137489262 
784	 0.128745134444345 
785	 0.128428682352536 
786	 0.128358876896919 
787	 0.128696435993955 
788	 0.128505074719055 
789	 0.128447145014301 
790	 0.129100365509817 
791	 0.129245929160027 
792	 0.1289309547489 
793	 0.128774140871121 
794	 0.129049859812288 
795	 0.129706354893715 
796	 0.129798102284006 
797	 0.129678048418634 
798	 0.129762944281201 
799	 0.129972450928611 
800	 0.130200438066084 
801	 0.130140411952984 
802	 0.130319685087876 
803	 0.130781808251888 
804	 0.130524644567745 
805	 0.130215639269926 
806	 0.130622881880817 
807	 0.131041949364999 
808	 0.131268817340202 
809	 0.131121923210122 
810	 0.131149913106691 
811	 0.131508782632718 
812	 0.13142089978284 
813	 0.131252444760445 
814	 0.131576147036422 
815	 0.132484559000429 
816	 0.133576821069904 
817	 0.13365912029562 
818	 0.133287915253767 
819	 0.132910243979501 
820	 0.133381456560605 
821	 0.133944574359921 
822	 0.133653190581163 
823	 0.13385274646064 
824	 0.134295887685139 
825	 0.133265583283627 
826	 0.133182264735886 
827	 0.134718025773703 
828	 0.135184337614588 
829	 0.134852397951431 
830	 0.134411499631905 
831	 0.134787031322949 
832	 0.135589619015295 
833	 0.135017981026 
834	 0.134487436876346 
835	 0.134592299443618 
836	 0.134932183064526 
837	 0.13529875681604 
838	 0.135485210296502 
839	 0.135164813524546 
840	 0.134637581690578 
841	 0.134881476636666 
842	 0.135408663638422 
843	 0.136001932314672 
844	 0.136786104538652 
845	 0.137071500212418 
846	 0.136175721825978 
847	 0.136135399702639 
848	 0.136724024005829 
849	 0.135878256834993 
850	 0.135433393939099 
851	 0.136057472694504 
852	 0.136946388343738 
853	 0.137517634367057 
854	 0.137246338750292 
855	 0.136906213926034 
856	 0.136714339743144 
857	 0.136780420155694 
858	 0.136642594178643 
859	 0.136295430677541 
860	 0.136612383586533 
861	 0.136933848870432 
862	 0.13664454688934 
863	 0.136669566747123 
864	 0.137223986256487 
865	 0.138509975233136 
866	 0.1388381894814 
867	 0.137963889849059 
868	 0.137824827164768 
869	 0.138198832593414 
870	 0.138771725090995 
871	 0.13902950030757 
872	 0.138922751902349 
873	 0.138525473280174 
874	 0.138543591218489 
875	 0.138912172247666 
876	 0.138181459005819 
877	 0.138238282142423 
878	 0.140003534663981 
879	 0.139246177989983 
880	 0.137881281792962 
881	 0.139954562724475 
882	 0.140270821394622 
883	 0.138506341850217 
884	 0.138616290960221 
885	 0.139197542665939 
886	 0.139465780076318 
887	 0.139578198716782 
888	 0.139965389340367 
889	 0.141158612842935 
890	 0.141908815999401 
891	 0.141769441472854 
892	 0.140212924177016 
893	 0.139483750609603 
894	 0.140593711138465 
895	 0.141912838123876 
896	 0.142773129701451 
897	 0.142570952875704 
898	 0.141980469205919 
899	 0.141794719121132 
900	 0.143760495120289 
901	 0.143086944649715 
902	 0.13983108418416 
903	 0.141671794770434 
904	 0.144245660042435 
905	 0.143976499926117 
906	 0.142169963104737 
907	 0.140762163351468 
908	 0.142885775085761 
909	 0.143688978042202 
910	 0.14289592612842 
911	 0.145581890963852 
912	 0.146791554912552 
913	 0.144364101668446 
914	 0.144160448243549 
915	 0.145140812031031 
916	 0.145286051170633 
917	 0.146242565406181 
918	 0.14720397160705 
919	 0.14525219404949 
920	 0.143622862981172 
921	 0.143279171887839 
922	 0.142263154831896 
923	 0.141977102650975 
924	 0.143631284845063 
925	 0.145158104197614 
926	 0.145982311805841 
927	 0.145698995921894 
928	 0.144782840842679 
929	 0.143470906496506 
930	 0.14150570297251 
931	 0.142659156811743 
932	 0.148374182722929 
933	 0.142322761833075 
934	 0.134291814865351 
935	 0.141854717109836 
936	 0.150400045702145 
937	 0.154566937665168 
938	 0.151382630769126 
939	 0.145189995263344 
940	 0.139740903294931 
941	 0.143781224860886 
942	 0.145806223301185 
943	 0.138983639516877 
944	 0.142492931591417 
945	 0.150076480644514 
946	 0.148283936859033 
947	 0.146084666643115 
948	 0.146112917930082 
949	 0.149547618226574 
950	 0.15097600257497 
951	 0.148950422927841 
952	 0.150325843056726 
953	 0.150348417598467 
954	 0.14516211955635 
955	 0.145087521529709 
956	 0.148282284111054 
957	 0.14849016834422 
958	 0.147222341440179 
959	 0.145184571146529 
960	 0.143169194189426 
961	 0.143232855622646 
962	 0.14639434277939 
963	 0.153375079795816 
964	 0.156563074186443 
965	 0.14972576929958 
966	 0.146848499091228 
967	 0.147250028128405 
968	 0.144408799319481 
969	 0.14274103713112 
970	 0.14338192102274 
971	 0.146192183057928 
972	 0.1479489995544 
973	 0.147104292084698 
974	 0.145700529108796 
975	 0.146461833172067 
976	 0.151388384023843 
977	 0.148414512538223 
978	 0.140582435461238 
979	 0.139374997627966 
980	 0.141463271833738 
981	 0.145401632965604 
982	 0.149664877949244 
983	 0.151728196222748 
984	 0.150580387020957 
985	 0.149263440008163 
986	 0.149986212102211 
987	 0.154120848998492 
988	 0.153339693868658 
989	 0.148866633008801 
990	 0.14616419123485 
991	 0.146188720720985 
992	 0.148114675198262 
993	 0.147575991272106 
994	 0.144868765443424 
995	 0.141615428505309 
996	 0.14594094202917 
997	 0.150917826038851 
998	 0.1493851743278 
999	 0.147671821231748 
1000	 0.147687656041979 
1001	 0.150848838720364 
1002	 0.149320477262113 
1003	 0.144783023868448 
1004	 0.150516316735028 
1005	 0.152779732429007 
1006	 0.147112880101067 
1007	 0.14126970449592 
1008	 0.138900078682673 
1009	 0.141935330911395 
1010	 0.143797922799034 
1011	 0.144135702076288 
1012	 0.143764335420208 
1013	 0.142042787747281 
1014	 0.141727798258574 
1015	 0.149664028404944 
1016	 0.153975584401938 
1017	 0.152243720822681 
1018	 0.152138994618635 
1019	 0.152915308131891 
1020	 0.154462800137021 
1021	 0.159062321517999 
1022	 0.158555599407573 
1023	 0.147069020539292 
1024	 0.147421357072437 
1025	 0.153487587420843 
1026	 0.148913791852042 
1027	 0.150514069930465 
1028	 0.156486808483955 
1029	 0.147990741833167 
1030	 0.147635174327994 
1031	 0.157994144208688 
1032	 0.153440211125094 
1033	 0.143125694036955 
1034	 0.136839926240068 
1035	 0.151809924147908 
1036	 0.166742217823414 
1037	 0.159599464184902 
1038	 0.148560564163784 
1039	 0.142865900296661 
1040	 0.151645458881315 
1041	 0.161923447576369 
1042	 0.167769159789919 
1043	 0.165559886869198 
1044	 0.155962018996369 
1045	 0.146138474525231 
1046	 0.164306070242863 
1047	 0.157907720209163 
1048	 0.108507691238925 
1049	 0.120848988188011 
1050	 0.149353984101617 
1051	 0.146148311867106 
1052	 0.152240377237496 
1053	 0.162742665858587 
1054	 0.161607233547531 
1055	 0.158319988637499 
1056	 0.156835108639252 
1057	 0.160899741263126 
1058	 0.163115301710555 
1059	 0.162929873249266 
1060	 0.168994158204295 
1061	 0.164163487476716 
1062	 0.148030606055679 
1063	 0.16511452650024 
1064	 0.175042733981483 
1065	 0.154362718773521 
1066	 0.165084861887272 
1067	 0.181320068852986 
1068	 0.172062019563054 
1069	 0.177788294499592 
1070	 0.18263423495308 
1071	 0.149263035886841 
1072	 0.129462784217419 
1073	 0.124088190483706 
1074	 0.100864805721012 
1075	 0.111053414778126 
