Wavelength	A00200.asd
325	 2.90690651968565E-02 
326	 3.09810593023812E-02 
327	 3.67659476929887E-02 
328	 3.64382733001082E-02 
329	 3.38702103270555E-02 
330	 3.12427979229107E-02 
331	 3.05470347814031E-02 
332	 0.033641039094617 
333	 4.13941198392275E-02 
334	 4.01857281421411E-02 
335	 3.44057204845547E-02 
336	 0.039696646401399 
337	 4.17381375268147E-02 
338	 3.80009972115836E-02 
339	 3.82256050136942E-02 
340	 3.88770142244979E-02 
341	 3.71062370316786E-02 
342	 3.84555248516813E-02 
343	 4.09214460936853E-02 
344	 3.96128599685251E-02 
345	 3.67425896196671E-02 
346	 3.41129692646917E-02 
347	 3.57778684477944E-02 
348	 3.85829977066775E-02 
349	 0.039963155256031 
350	 3.76181299316769E-02 
351	 0.03448088280689 
352	 3.54826185540564E-02 
353	 3.51345578607625E-02 
354	 3.35744938149265E-02 
355	 3.68060476282704E-02 
356	 0.038088385107067 
357	 3.42811566903504E-02 
358	 0.034441348159476 
359	 3.74360773820668E-02 
360	 3.99767959622579E-02 
361	 0.039846765479832 
362	 3.79059096624432E-02 
363	 3.94221258707068E-02 
364	 3.96422917043091E-02 
365	 3.67720157708991E-02 
366	 3.65762814044367E-02 
367	 3.72890276515485E-02 
368	 3.57937646082774E-02 
369	 3.48692752517284E-02 
370	 3.50784700210023E-02 
371	 3.60953429663404E-02 
372	 3.70106705672577E-02 
373	 3.73297424782932E-02 
374	 3.77332846677788E-02 
375	 3.82292246391259E-02 
376	 3.87323514746558E-02 
377	 0.038102873745635 
378	 3.65746086403875E-02 
379	 3.56104166549227E-02 
380	 3.55676434824234E-02 
381	 3.64675956218407E-02 
382	 0.036995670464967 
383	 3.72967599439688E-02 
384	 3.77515607907912E-02 
385	 3.81787608675986E-02 
386	 0.038109136467637 
387	 3.61256244065161E-02 
388	 3.54405210113437E-02 
389	 3.69345240693071E-02 
390	 3.63837373820687E-02 
391	 3.58738190213653E-02 
392	 3.81365280713663E-02 
393	 3.78532323979386E-02 
394	 3.56969795097183E-02 
395	 0.037035451880774 
396	 3.74457616778129E-02 
397	 3.56923145747414E-02 
398	 0.035523028730643 
399	 3.59860461718977E-02 
400	 3.58411113514348E-02 
401	 3.64345931858233E-02 
402	 3.74828191051551E-02 
403	 0.037894491025446 
404	 3.77411977127212E-02 
405	 3.72156238202362E-02 
406	 3.73209297708708E-02 
407	 3.77931264669782E-02 
408	 3.81783847718023E-02 
409	 3.80457558098831E-02 
410	 3.74665011377396E-02 
411	 3.67798722757147E-02 
412	 3.69396370825234E-02 
413	 3.80878044642799E-02 
414	 3.80995410770739E-02 
415	 3.74673749950582E-02 
416	 3.70995622238312E-02 
417	 3.69611521334324E-02 
418	 3.71128619992679E-02 
419	 3.76872040047563E-02 
420	 3.81812837548157E-02 
421	 3.83556359975898E-02 
422	 3.87301597530118E-02 
423	 3.90692999904141E-02 
424	 3.89538347775644E-02 
425	 3.90057824828698E-02 
426	 3.92989196117004E-02 
427	 3.94759178709929E-02 
428	 3.96037552050868E-02 
429	 3.96884366889915E-02 
430	 3.94555469776821E-02 
431	 3.91163820629406E-02 
432	 3.90900494946513E-02 
433	 3.86780174037042E-02 
434	 3.80648331299856E-02 
435	 3.85636789831089E-02 
436	 3.89415870810644E-02 
437	 3.85189649404985E-02 
438	 3.91543248209446E-02 
439	 4.01251452917401E-02 
440	 3.96134074611232E-02 
441	 3.93722204982036E-02 
442	 3.97918908012309E-02 
443	 4.01849743080799E-02 
444	 0.040317906932527 
445	 4.00870246975547E-02 
446	 4.04170640916978E-02 
447	 4.09067980789117E-02 
448	 4.02330120976205E-02 
449	 0.040050448184826 
450	 4.07629372975896E-02 
451	 4.14115623609299E-02 
452	 4.16668536192866E-02 
453	 4.13115649696512E-02 
454	 4.13886552595652E-02 
455	 4.18592086143736E-02 
456	 0.042047021334041 
457	 4.18543032990936E-02 
458	 4.13814556402715E-02 
459	 4.15699109394436E-02 
460	 4.19101941464355E-02 
461	 4.17186768149522E-02 
462	 4.16740244549018E-02 
463	 4.17399511037383E-02 
464	 4.12743171310027E-02 
465	 4.10698344434256E-02 
466	 4.14828282211131E-02 
467	 4.18593433138158E-02 
468	 4.20482627840411E-02 
469	 4.19504461060035E-02 
470	 4.21788403106472E-02 
471	 4.26459051996407E-02 
472	 4.24427380084767E-02 
473	 4.21636405701507E-02 
474	 4.21818989112145E-02 
475	 4.22060701167697E-02 
476	 4.22618940367172E-02 
477	 4.24844729920039E-02 
478	 0.042312652481456 
479	 4.18264236439087E-02 
480	 4.20452922724488E-02 
481	 4.24362199877027E-02 
482	 4.25540246185868E-02 
483	 4.26725626912814E-02 
484	 0.042840167969613 
485	 4.31207823929683E-02 
486	 4.30748657741676E-02 
487	 4.27365653032975E-02 
488	 4.32485979544242E-02 
489	 4.36644548130947E-02 
490	 4.30173762590614E-02 
491	 4.23143641557164E-02 
492	 0.042104746287413 
493	 0.043383142926002 
494	 4.41592280003847E-02 
495	 4.36806648847397E-02 
496	 4.33604510743131E-02 
497	 4.33397689687919E-02 
498	 4.36127776930798E-02 
499	 4.38583874819838E-02 
500	 4.40147931660593E-02 
501	 0.044188485451236 
502	 4.45124424690497E-02 
503	 4.50022313612593E-02 
504	 4.50998713552715E-02 
505	 4.51413869124401E-02 
506	 4.58292124865582E-02 
507	 4.60343334139262E-02 
508	 4.57503510447123E-02 
509	 4.63260707720797E-02 
510	 4.69054722505531E-02 
511	 4.68295526356907E-02 
512	 4.69810036158588E-02 
513	 4.73799560613559E-02 
514	 4.77291643409679E-02 
515	 4.80699614149997E-02 
516	 4.84200268166141E-02 
517	 4.88665139479932E-02 
518	 4.93319173600364E-02 
519	 4.97242478972989E-02 
520	 5.00766196205686E-02 
521	 5.04853245975355E-02 
522	 0.051210167541093 
523	 5.18779051381147E-02 
524	 5.23273911822403E-02 
525	 5.27570283795699E-02 
526	 5.31405544274363E-02 
527	 5.34096052571855E-02 
528	 5.36509533465025E-02 
529	 5.39410055452851E-02 
530	 5.44345565608408E-02 
531	 5.49925798781507E-02 
532	 5.55007536644557E-02 
533	 5.58254309837279E-02 
534	 5.60430440916794E-02 
535	 5.63469077594513E-02 
536	 5.66197696625135E-02 
537	 0.056847999919552 
538	 5.71193620587893E-02 
539	 5.73787896010805E-02 
540	 5.75727291788886E-02 
541	 5.78221756942288E-02 
542	 5.80853044369926E-02 
543	 5.81505005159573E-02 
544	 5.84168288818124E-02 
545	 0.058974266984343 
546	 5.92765891422988E-02 
547	 5.93687827309342E-02 
548	 5.93797859254443E-02 
549	 5.95119527710753E-02 
550	 5.98251013342283E-02 
551	 6.03055637835257E-02 
552	 6.07391988298184E-02 
553	 6.09663090082717E-02 
554	 6.08980451158973E-02 
555	 6.08409107495531E-02 
556	 6.13928427940707E-02 
557	 6.17622236325727E-02 
558	 6.17587416168242E-02 
559	 6.17988503616597E-02 
560	 6.19292825165628E-02 
561	 6.21517485675734E-02 
562	 6.20718268310811E-02 
563	 0.061789915052022 
564	 6.17375724340761E-02 
565	 6.18030638305021E-02 
566	 6.19087554087933E-02 
567	 6.18358163573867E-02 
568	 6.16093175814365E-02 
569	 6.12935744833209E-02 
570	 6.12331536592528E-02 
571	 6.14012770634689E-02 
572	 6.13933445029956E-02 
573	 6.12653813601795E-02 
574	 6.10791120119836E-02 
575	 6.11062500164126E-02 
576	 6.11817601109974E-02 
577	 6.09367124258055E-02 
578	 6.06628279897772E-02 
579	 6.04337434157044E-02 
580	 6.01226366772737E-02 
581	 5.98693880386848E-02 
582	 5.98008358653318E-02 
583	 5.99022359195484E-02 
584	 6.00690126383134E-02 
585	 6.00498730696485E-02 
586	 6.01256963599229E-02 
587	 6.02823824384639E-02 
588	 5.97247075479228E-02 
589	 5.90807985353435E-02 
590	 5.92586670515106E-02 
591	 5.91110944398306E-02 
592	 5.86263515064135E-02 
593	 5.86292165677778E-02 
594	 5.89171827411331E-02 
595	 5.93117959870426E-02 
596	 5.93667871252822E-02 
597	 5.92326084167013E-02 
598	 5.93104579716076E-02 
599	 5.91383936372312E-02 
600	 5.87355517330333E-02 
601	 5.87855459204989E-02 
602	 5.89088584133007E-02 
603	 5.87696308737756E-02 
604	 5.88346302113657E-02 
605	 5.89744436842396E-02 
606	 5.86133506023217E-02 
607	 5.84905858277988E-02 
608	 5.87923792075634E-02 
609	 5.87277734328147E-02 
610	 5.83711105737184E-02 
611	 5.79143185636667E-02 
612	 5.77121607064367E-02 
613	 5.77533818885141E-02 
614	 5.76446624255963E-02 
615	 5.74998363583334E-02 
616	 5.73719547489151E-02 
617	 5.71409644203368E-02 
618	 5.68907272146345E-02 
619	 5.67877406377845E-02 
620	 5.66459498906347E-02 
621	 5.64503615862683E-02 
622	 5.64097876661282E-02 
623	 5.63155575944869E-02 
624	 5.60074537965918E-02 
625	 5.60245904622712E-02 
626	 5.62422841687635E-02 
627	 5.60348797221589E-02 
628	 5.60612834006029E-02 
629	 5.64516189164768E-02 
630	 5.63514346592609E-02 
631	 5.60861329904281E-02 
632	 5.61469637155948E-02 
633	 5.62529036342059E-02 
634	 5.62551951048492E-02 
635	 0.055840052688529 
636	 5.56657220450916E-02 
637	 5.60110017583554E-02 
638	 5.56841822756741E-02 
639	 5.50832756441249E-02 
640	 5.52004591049486E-02 
641	 5.52698850246149E-02 
642	 5.50738088809504E-02 
643	 5.47268944155164E-02 
644	 0.054435705864543 
645	 5.43629716570125E-02 
646	 5.42166209615153E-02 
647	 5.39438468546546E-02 
648	 5.35802465227372E-02 
649	 5.30846669495644E-02 
650	 0.05257068114217 
651	 0.052660823686281 
652	 5.28821656819065E-02 
653	 0.052622248193585 
654	 5.25919717585419E-02 
655	 0.052798034960121 
656	 5.27088430480417E-02 
657	 5.23500835987943E-02 
658	 5.17714598333946E-02 
659	 5.09680528307674E-02 
660	 5.02969016653898E-02 
661	 5.03654834865434E-02 
662	 4.98270695352968E-02 
663	 4.86723672282841E-02 
664	 4.86060548171207E-02 
665	 4.88375749348422E-02 
666	 4.86585563058297E-02 
667	 4.83366749687817E-02 
668	 4.79715192591019E-02 
669	 4.77487292845224E-02 
670	 4.72715050225444E-02 
671	 4.66526888026048E-02 
672	 4.73581889568423E-02 
673	 4.81705617267538E-02 
674	 4.76194334242335E-02 
675	 4.73465361434535E-02 
676	 0.047588514633677 
677	 4.78911042308592E-02 
678	 4.81162287869018E-02 
679	 0.048162899513249 
680	 4.79658106431477E-02 
681	 4.79463973368596E-02 
682	 4.87645908982273E-02 
683	 0.049567555066945 
684	 5.01091126319577E-02 
685	 0.05052836014232 
686	 5.10779177575369E-02 
687	 5.19711962904481E-02 
688	 5.29473209761768E-02 
689	 5.39642532989386E-02 
690	 0.055195197881714 
691	 5.68199111387455E-02 
692	 5.87434178471468E-02 
693	 5.99816082008461E-02 
694	 6.14822841830026E-02 
695	 6.41399331140888E-02 
696	 6.61804555476257E-02 
697	 6.75565613165475E-02 
698	 0.069187251815443 
699	 7.08910701723489E-02 
700	 7.25819391175283E-02 
701	 7.42165565508544E-02 
702	 0.075973506288895 
703	 7.81054420353693E-02 
704	 0.079879281987519 
705	 0.081246554920011 
706	 8.26665294568734E-02 
707	 8.40497210827169E-02 
708	 8.53184325081873E-02 
709	 8.62653022249392E-02 
710	 8.71817112104484E-02 
711	 8.86564529408102E-02 
712	 9.01011840733878E-02 
713	 9.13270570419746E-02 
714	 9.24749909092333E-02 
715	 9.34131001127733E-02 
716	 9.40754970065119E-02 
717	 9.48006914929575E-02 
718	 9.57763354537288E-02 
719	 9.72316171221944E-02 
720	 9.79195280708124E-02 
721	 9.77629140870208E-02 
722	 0.098680489053724 
723	 9.96622520264634E-02 
724	 9.94092455345141E-02 
725	 9.97551341172219E-02 
726	 0.100831118537605 
727	 0.101791455950238 
728	 0.102316584360115 
729	 0.102308852957951 
730	 0.102512678343536 
731	 0.102950081225983 
732	 0.103514780985162 
733	 0.103756765701828 
734	 0.103797910404625 
735	 0.104395557997035 
736	 0.105160511430866 
737	 0.105743895956475 
738	 0.105722926642143 
739	 0.105412785696164 
740	 0.105470474540908 
741	 0.105923183908509 
742	 0.106587698235485 
743	 0.106604630137716 
744	 0.106552639157008 
745	 0.106914940754126 
746	 0.107069250093022 
747	 0.107082557222642 
748	 0.107373204187749 
749	 0.107663998843577 
750	 0.107830922237378 
751	 0.10779626289361 
752	 0.107666839490548 
753	 0.10757789885035 
754	 0.107816550210446 
755	 0.108281144584746 
756	 0.108556982071684 
757	 0.108579752875259 
758	 0.108375037562947 
759	 0.108532320500167 
760	 0.109479849243292 
761	 0.111117451648104 
762	 0.11120368517821 
763	 0.110240842855472 
764	 0.110440068592886 
765	 0.111070315321636 
766	 0.111651128425254 
767	 0.111408731106485 
768	 0.110918723633278 
769	 0.110875502391898 
770	 0.110976656713952 
771	 0.111049163262922 
772	 0.110654381158634 
773	 0.110460697241922 
774	 0.110857873385149 
775	 0.111044467594471 
776	 0.111070932892069 
777	 0.111242640688053 
778	 0.111501366521732 
779	 0.111737958466359 
780	 0.111519201546362 
781	 0.111462759166668 
782	 0.112018017775142 
783	 0.112409641890134 
784	 0.112608833437821 
785	 0.11284573350672 
786	 0.11306453186031 
787	 0.113228476590701 
788	 0.113270369413525 
789	 0.113047172176347 
790	 0.11250974649672 
791	 0.112693385423169 
792	 0.113355051565699 
793	 0.113385821851031 
794	 0.113613564579694 
795	 0.114133530658181 
796	 0.113979874895871 
797	 0.113676802565948 
798	 0.113792951201841 
799	 0.113930271654558 
800	 0.11409327457751 
801	 0.114561851550854 
802	 0.114620688106964 
803	 0.114167304439168 
804	 0.114354755496756 
805	 0.114755613380961 
806	 0.114806011334238 
807	 0.114303686798066 
808	 0.113736047755651 
809	 0.114664415370094 
810	 0.115416710494726 
811	 0.115316899949353 
812	 0.115158808513961 
813	 0.115301969009176 
814	 0.116118496204974 
815	 0.11701648816652 
816	 0.117653549917636 
817	 0.117672395046204 
818	 0.117363271582093 
819	 0.117009174256585 
820	 0.117161190080376 
821	 0.117429442575331 
822	 0.117308106116864 
823	 0.11709411955704 
824	 0.116936493380151 
825	 0.116970365008863 
826	 0.117390139210371 
827	 0.118099772344711 
828	 0.117938947007736 
829	 0.11746585004983 
830	 0.117500181189919 
831	 0.117740465898266 
832	 0.118014069967163 
833	 0.117982714163188 
834	 0.118081281282873 
835	 0.118424814778074 
836	 0.118546543186478 
837	 0.118496309376066 
838	 0.118373482675022 
839	 0.117931359581465 
840	 0.117572735977088 
841	 0.118506417652089 
842	 0.119718313841161 
843	 0.120485023452216 
844	 0.119576493440369 
845	 0.118421872939517 
846	 0.118699682408197 
847	 0.119157283266796 
848	 0.119440880141835 
849	 0.119299449503195 
850	 0.119197888240582 
851	 0.119342103787709 
852	 0.119676761591129 
853	 0.119806056061977 
854	 0.119388220906935 
855	 0.119897036470649 
856	 0.120929323657351 
857	 0.120887053348093 
858	 0.120086218598219 
859	 0.118903745951746 
860	 0.118568652445539 
861	 0.11914131080466 
862	 0.120461855422765 
863	 0.120529270242782 
864	 0.120042264572689 
865	 0.121775671575786 
866	 0.122058708997618 
867	 0.120411261353655 
868	 0.120865784262643 
869	 0.12150325955451 
870	 0.120808548254198 
871	 0.121190482108128 
872	 0.122029185657558 
873	 0.121419192613528 
874	 0.121145616139613 
875	 0.121513450957984 
876	 0.12147220386895 
877	 0.121232471838653 
878	 0.121051912509252 
879	 0.121646075686456 
880	 0.122603000613036 
881	 0.123130120468899 
882	 0.122515088231253 
883	 0.12109465327794 
884	 0.120571555394668 
885	 0.121299184066141 
886	 0.123092516200678 
887	 0.123193579868444 
888	 0.122662340031696 
889	 0.123299918032523 
890	 0.123336842330326 
891	 0.122701115605777 
892	 0.122374201310957 
893	 0.12233379672005 
894	 0.122608883404052 
895	 0.123019048269918 
896	 0.12378215631233 
897	 0.125012140016064 
898	 0.124221389292527 
899	 0.122644090381232 
900	 0.124842573195671 
901	 0.1253331692404 
902	 0.1231751010831 
903	 0.122720731286852 
904	 0.122744708308554 
905	 0.122309157032701 
906	 0.122712312842888 
907	 0.123790239786722 
908	 0.124958827006341 
909	 0.125903847617315 
910	 0.126125340727079 
911	 0.124064413958964 
912	 0.123996451504587 
913	 0.127547517575395 
914	 0.127893454235755 
915	 0.126797585113722 
916	 0.127286073537642 
917	 0.127787254731044 
918	 0.127436836049114 
919	 0.124364121876829 
920	 0.123392084460057 
921	 0.125330248263785 
922	 0.124229657357343 
923	 0.123788644910281 
924	 0.127024942916311 
925	 0.125765838108889 
926	 0.122417883587001 
927	 0.125511212227809 
928	 0.126987332663327 
929	 0.124885935765419 
930	 0.124779877776842 
931	 0.124332776902857 
932	 0.121957357863119 
933	 0.121096685254401 
934	 0.120266272358257 
935	 0.116896801580249 
936	 0.120763663391549 
937	 0.12977389317069 
938	 0.134093712018462 
939	 0.131432813740102 
940	 0.123338095251382 
941	 0.120042862886488 
942	 0.120291883196751 
943	 0.122368917259949 
944	 0.122278984614139 
945	 0.121990434728442 
946	 0.125547804784005 
947	 0.12830065184741 
948	 0.128944086664523 
949	 0.127889452579665 
950	 0.126131863934924 
951	 0.124656723779321 
952	 0.125363954544607 
953	 0.126543872876775 
954	 0.126710433801719 
955	 0.129310252428849 
956	 0.13140343821457 
957	 0.126876821283374 
958	 0.124690703527031 
959	 0.125385291477394 
960	 0.121746070509432 
961	 0.121406510556728 
962	 0.127087996705003 
963	 0.133134973500366 
964	 0.135397264025187 
965	 0.131154117094552 
966	 0.130784354716863 
967	 0.132577713965271 
968	 0.129535777218825 
969	 0.126085641130415 
970	 0.123788849431122 
971	 0.123526693669029 
972	 0.124215569062747 
973	 0.125095168804439 
974	 0.125393316142571 
975	 0.127555021342603 
976	 0.133607985801592 
977	 0.131986317987443 
978	 0.125032329710271 
979	 0.122496510625716 
980	 0.123639318066974 
981	 0.126831019117871 
982	 0.12601143652117 
983	 0.126936988815807 
984	 0.131594436263482 
985	 0.131472150278284 
986	 0.130342470343325 
987	 0.132493367540783 
988	 0.128606538202201 
989	 0.123612111233345 
990	 0.130790173602443 
991	 0.130699353578359 
992	 0.123263998691877 
993	 0.129565350495331 
994	 0.136206012629946 
995	 0.135902556388577 
996	 0.128542411476948 
997	 0.124199635732549 
998	 0.131634563034176 
999	 0.133450482539737 
1000	 0.131645058683891 
1001	 0.135123389621407 
1002	 0.127442365892958 
1003	 0.113699065734736 
1004	 0.124958706949198 
1005	 0.132794529004005 
1006	 0.127680325650016 
1007	 0.125225683004714 
1008	 0.125100288795603 
1009	 0.126159904206294 
1010	 0.12555894571536 
1011	 0.122738917256269 
1012	 0.117901858589942 
1013	 0.119083397811233 
1014	 0.125986114498013 
1015	 0.134559402774444 
1016	 0.132158112200669 
1017	 0.11957219616383 
1018	 0.117982090776039 
1019	 0.125201039847035 
1020	 0.136125198994372 
1021	 0.126803327700072 
1022	 0.11780360803086 
1023	 0.12930073082355 
1024	 0.136645849192808 
1025	 0.133666608869748 
1026	 0.117340069496382 
1027	 0.121194069632614 
1028	 0.140447320154881 
1029	 0.132958502135555 
1030	 0.124881150794716 
1031	 0.124781950603226 
1032	 0.129016773292309 
1033	 0.1294568865698 
1034	 0.12253645551025 
1035	 0.119938816628639 
1036	 0.126967851527658 
1037	 0.145385560953805 
1038	 0.140333467198696 
1039	 0.124815131917452 
1040	 0.132618794779433 
1041	 0.138137578681423 
1042	 0.137050730928306 
1043	 0.135185609454954 
1044	 0.136011959416368 
1045	 0.138507128951867 
1046	 0.132551035415577 
1047	 0.120013314689437 
1048	 0.105284749185704 
1049	 0.110529015106207 
1050	 0.119680254791116 
1051	 0.117656490596604 
1052	 0.126282499410252 
1053	 0.133126895797936 
1054	 0.115897744499234 
1055	 0.120737891444411 
1056	 0.146790934792774 
1057	 0.170226600969442 
1058	 0.150633001810978 
1059	 9.82696874780228E-02 
1060	 0.125215969142872 
1061	 0.132903530863308 
1062	 9.25542969737373E-02 
1063	 0.104795500427349 
1064	 0.117470851906577 
1065	 0.097783288512537 
1066	 0.126523479345152 
1067	 0.152036461504802 
1068	 0.118726238166926 
1069	 0.125480765583632 
1070	 0.156663075224445 
1071	 0.152274406684576 
1072	 0.145866176130716 
1073	 0.139990683028219 
1074	 0.121687858143364 
1075	 0.114310453933647 
