Wavelength	A00246.asd
325	 3.93959817415929E-02 
326	 3.86917342691595E-02 
327	 3.56223945515448E-02 
328	 4.52624724209568E-02 
329	 5.22909636076734E-02 
330	 5.13768394019654E-02 
331	 4.63160619752353E-02 
332	 0.044760575443166 
333	 5.28699843045986E-02 
334	 5.14338178167605E-02 
335	 4.44241780831454E-02 
336	 4.81098256228142E-02 
337	 5.22347403113587E-02 
338	 5.38048755852526E-02 
339	 5.55870128155244E-02 
340	 5.34178497597306E-02 
341	 4.51464216822486E-02 
342	 4.55883956127186E-02 
343	 5.17610293438883E-02 
344	 5.45685430486135E-02 
345	 0.052890050367466 
346	 0.048066338575343 
347	 4.68362441554262E-02 
348	 4.74839312081225E-02 
349	 4.85663016891301E-02 
350	 5.01164963053264E-02 
351	 0.050429395836762 
352	 4.67501181345823E-02 
353	 4.67150641196558E-02 
354	 5.03118896922906E-02 
355	 5.02072397391553E-02 
356	 0.048555785015757 
357	 4.71493282136469E-02 
358	 4.87330102104228E-02 
359	 5.10733296218641E-02 
360	 5.04170350457357E-02 
361	 4.94261210621939E-02 
362	 4.91349646967792E-02 
363	 5.09855325250104E-02 
364	 0.050919890522645 
365	 4.75878185860555E-02 
366	 4.70219866709685E-02 
367	 0.04805025377645 
368	 4.82684902254969E-02 
369	 4.82840885896757E-02 
370	 4.83017865381815E-02 
371	 0.048709190967692 
372	 4.93123997119944E-02 
373	 4.98523366876339E-02 
374	 4.94287025616868E-02 
375	 4.87994191944177E-02 
376	 4.90930692233106E-02 
377	 4.85448896654024E-02 
378	 0.047467685181 
379	 4.82644453906837E-02 
380	 0.048712358388309 
381	 4.80403229395176E-02 
382	 4.91610550861924E-02 
383	 5.04107039530125E-02 
384	 0.04930696436153 
385	 4.96188979724436E-02 
386	 5.09658047869927E-02 
387	 4.93171494321293E-02 
388	 4.84813473422551E-02 
389	 4.96253947301739E-02 
390	 4.86489375876355E-02 
391	 4.79820669415066E-02 
392	 5.06993529305608E-02 
393	 5.13677125261346E-02 
394	 4.98933868358898E-02 
395	 4.95889161424527E-02 
396	 4.89378122858493E-02 
397	 4.76517067508533E-02 
398	 4.74261273311111E-02 
399	 4.73047927031467E-02 
400	 4.62515409281144E-02 
401	 4.63112223345253E-02 
402	 4.73147997357972E-02 
403	 4.80586805604568E-02 
404	 4.85627340691799E-02 
405	 4.88360435954481E-02 
406	 4.90656414987918E-02 
407	 0.049329896877217 
408	 4.96888288164021E-02 
409	 4.92738645252729E-02 
410	 4.83960914242378E-02 
411	 4.83714257322822E-02 
412	 4.88303150452216E-02 
413	 4.94213631472679E-02 
414	 4.91614067636541E-02 
415	 4.85964551066261E-02 
416	 4.85425142998435E-02 
417	 4.86675215835701E-02 
418	 4.89291163938916E-02 
419	 0.049486657292199 
420	 4.97001119847438E-02 
421	 4.93321925649531E-02 
422	 4.93758078778112E-02 
423	 4.96447828796012E-02 
424	 4.96949823340651E-02 
425	 0.049886686886033 
426	 5.02593359606861E-02 
427	 5.07045103319126E-02 
428	 5.08312879836536E-02 
429	 5.04499458637628E-02 
430	 5.02373722234633E-02 
431	 5.01695352626805E-02 
432	 5.00430760454234E-02 
433	 4.97947884617775E-02 
434	 4.95544757505134E-02 
435	 4.98908497264339E-02 
436	 4.99917219261704E-02 
437	 4.94552005032288E-02 
438	 4.98978474398529E-02 
439	 0.050701493398506 
440	 0.050282684715172 
441	 5.02405532173951E-02 
442	 0.050822397624107 
443	 5.09669941012574E-02 
444	 0.050944950105187 
445	 5.10206709431901E-02 
446	 5.13473265692978E-02 
447	 5.16931307134058E-02 
448	 5.14591038413598E-02 
449	 5.13432041312082E-02 
450	 5.15760140037677E-02 
451	 5.19960069195637E-02 
452	 5.23982783907134E-02 
453	 5.25839202490773E-02 
454	 5.25069025484167E-02 
455	 5.22994237126596E-02 
456	 5.23350826127754E-02 
457	 5.23439357444118E-02 
458	 5.22966634881408E-02 
459	 5.27149574440038E-02 
460	 5.29799356018245E-02 
461	 5.23497022361187E-02 
462	 5.20423773892384E-02 
463	 5.21703311638792E-02 
464	 5.20929757575788E-02 
465	 5.22481596422406E-02 
466	 5.27660208912972E-02 
467	 5.29973090061792E-02 
468	 5.29355431877565E-02 
469	 5.26919316800857E-02 
470	 5.26058206943814E-02 
471	 5.27646725908037E-02 
472	 5.30344708641847E-02 
473	 5.34758299169815E-02 
474	 5.39967993916441E-02 
475	 5.35759087997661E-02 
476	 5.28575817683277E-02 
477	 5.32099990261131E-02 
478	 5.32195217664974E-02 
479	 0.052776038604892 
480	 5.31679318333368E-02 
481	 5.37329686037548E-02 
482	 5.38984265195988E-02 
483	 5.37539446246103E-02 
484	 5.35131183835101E-02 
485	 5.37018503258129E-02 
486	 5.35554461343133E-02 
487	 5.30541931158493E-02 
488	 5.36418058321652E-02 
489	 5.42104617259731E-02 
490	 5.36174457536865E-02 
491	 5.30787228679622E-02 
492	 5.30149946094419E-02 
493	 5.39122561600882E-02 
494	 5.46121883110865E-02 
495	 5.46424185207855E-02 
496	 5.47237418435803E-02 
497	 5.47873160243235E-02 
498	 5.46553777553666E-02 
499	 5.50272133734927E-02 
500	 5.57440850161196E-02 
501	 5.56799312648264E-02 
502	 5.54878876391521E-02 
503	 5.55826584296911E-02 
504	 5.58780092925851E-02 
505	 0.0562214136708 
506	 5.63809818615965E-02 
507	 5.64700916650803E-02 
508	 5.66070642197835E-02 
509	 5.71127899450822E-02 
510	 5.76620321104241E-02 
511	 5.79872080748537E-02 
512	 0.058204156953072 
513	 5.84229126908877E-02 
514	 5.88311142891605E-02 
515	 5.93828740212006E-02 
516	 6.00038086096068E-02 
517	 6.04281593082843E-02 
518	 6.06893377792781E-02 
519	 6.08576727285817E-02 
520	 6.10250038137567E-02 
521	 6.13504440735991E-02 
522	 6.21829243494862E-02 
523	 6.30422157103398E-02 
524	 0.063682536855797 
525	 6.41397665881971E-02 
526	 6.44842669536872E-02 
527	 6.48120158976277E-02 
528	 6.50373221203205E-02 
529	 6.52415452060087E-02 
530	 6.57277053804582E-02 
531	 6.63311427496541E-02 
532	 6.69285940827372E-02 
533	 6.75140350055672E-02 
534	 6.79124838234796E-02 
535	 6.77512636430307E-02 
536	 0.068007054930402 
537	 6.87890431965691E-02 
538	 6.89822043513559E-02 
539	 6.89889549371242E-02 
540	 6.92445745883959E-02 
541	 6.95602414775559E-02 
542	 0.069822565483975 
543	 6.97889297388672E-02 
544	 6.98960129312695E-02 
545	 7.03035574087543E-02 
546	 0.070728347914017 
547	 7.10639737394299E-02 
548	 7.12120458822192E-02 
549	 7.14809488493896E-02 
550	 7.18672410059412E-02 
551	 7.20615504818463E-02 
552	 0.072304605593106 
553	 7.26940160084672E-02 
554	 7.26848710770896E-02 
555	 7.25426731293848E-02 
556	 7.29067837252847E-02 
557	 7.31302520600094E-02 
558	 7.30965804118486E-02 
559	 7.32806251947248E-02 
560	 7.34901200147109E-02 
561	 7.35291245524876E-02 
562	 7.34126661756114E-02 
563	 7.32400510434608E-02 
564	 7.32194747176611E-02 
565	 7.34036828302389E-02 
566	 0.073699235472952 
567	 7.34373895417633E-02 
568	 7.28754962585688E-02 
569	 7.24227211463485E-02 
570	 7.24429144280865E-02 
571	 7.28108392270252E-02 
572	 0.072771741238621 
573	 7.25162651343634E-02 
574	 7.22204554747335E-02 
575	 7.24127772424711E-02 
576	 7.26782479313224E-02 
577	 7.21162607956938E-02 
578	 7.16586138824539E-02 
579	 7.15230880050931E-02 
580	 7.12315390299735E-02 
581	 7.10254381489714E-02 
582	 7.11102133276005E-02 
583	 7.11564973052836E-02 
584	 7.11610473213401E-02 
585	 7.13123731749291E-02 
586	 7.13710924111486E-02 
587	 7.12372456430372E-02 
588	 7.10090245338898E-02 
589	 7.06713402725708E-02 
590	 7.02101280644701E-02 
591	 6.99732587634769E-02 
592	 7.00221674711849E-02 
593	 7.02433800664894E-02 
594	 7.04337545370743E-02 
595	 7.04698613574293E-02 
596	 0.070500812683858 
597	 7.05160184319014E-02 
598	 7.04806014843423E-02 
599	 7.01708488044115E-02 
600	 6.97052195854767E-02 
601	 6.98901992788381E-02 
602	 7.01683594403328E-02 
603	 7.00265356699571E-02 
604	 6.97437584703867E-02 
605	 6.95153744817833E-02 
606	 6.97394997801365E-02 
607	 6.98057793304146E-02 
608	 6.95121218213797E-02 
609	 0.069307255454254 
610	 6.91804697722228E-02 
611	 6.90653425642809E-02 
612	 6.89381850324369E-02 
613	 6.88433387528801E-02 
614	 6.89972193126983E-02 
615	 0.068994752711421 
616	 6.85914877443239E-02 
617	 6.79838763509209E-02 
618	 6.74672173935154E-02 
619	 6.74644196007419E-02 
620	 6.76019606216562E-02 
621	 6.77228110705313E-02 
622	 6.77605573687857E-02 
623	 6.75892097917288E-02 
624	 6.71467263693288E-02 
625	 0.0670815573118 
626	 6.73683213885198E-02 
627	 6.76303264287112E-02 
628	 6.77563658528181E-02 
629	 6.77002567756292E-02 
630	 6.76788087001281E-02 
631	 0.067598664406217 
632	 6.73254111440943E-02 
633	 0.067232459533612 
634	 6.72553020303146E-02 
635	 6.68428939748371E-02 
636	 6.65452173854295E-02 
637	 6.66496072225787E-02 
638	 6.66579571551915E-02 
639	 0.066502653522979 
640	 0.066205674612871 
641	 6.56452577485917E-02 
642	 6.49912081743057E-02 
643	 6.50186750660945E-02 
644	 0.065221217833002 
645	 6.51175757106351E-02 
646	 6.47753516157703E-02 
647	 6.43046807342062E-02 
648	 6.39806483463056E-02 
649	 6.36313849107916E-02 
650	 0.063260001359062 
651	 6.32122470968461E-02 
652	 6.31883811081427E-02 
653	 6.28086965647096E-02 
654	 6.30049381528946E-02 
655	 6.35225817793176E-02 
656	 6.26157434158067E-02 
657	 6.17508817308077E-02 
658	 6.17141328522587E-02 
659	 6.11203853457331E-02 
660	 6.03600298870413E-02 
661	 6.03279506542408E-02 
662	 6.00242617276259E-02 
663	 5.93449336099227E-02 
664	 5.91032073711664E-02 
665	 5.90626294210092E-02 
666	 5.89659355263085E-02 
667	 5.83633051404326E-02 
668	 5.76611804353179E-02 
669	 5.81365120608832E-02 
670	 5.81292294800299E-02 
671	 5.73158160242873E-02 
672	 5.75927069600776E-02 
673	 5.81771848707291E-02 
674	 5.80250211685563E-02 
675	 5.78017579783292E-02 
676	 5.77296929752487E-02 
677	 5.80039858088711E-02 
678	 5.84377395383394E-02 
679	 5.88431209420695E-02 
680	 5.86838978139115E-02 
681	 5.84471622702523E-02 
682	 5.89867695350391E-02 
683	 5.96578142018669E-02 
684	 6.02946319143418E-02 
685	 6.10501372312453E-02 
686	 6.18773648627246E-02 
687	 6.27207724371801E-02 
688	 6.36410644420422E-02 
689	 6.47384807208639E-02 
690	 6.63718310428101E-02 
691	 6.81011266463684E-02 
692	 6.98111127506744E-02 
693	 7.15359481495299E-02 
694	 7.34336159117515E-02 
695	 7.55677026319454E-02 
696	 7.75647493818979E-02 
697	 7.94733884348264E-02 
698	 8.17781597779354E-02 
699	 8.37775346223301E-02 
700	 8.52066982808959E-02 
701	 8.69904633241207E-02 
702	 8.90560114187175E-02 
703	 0.091158900624818 
704	 9.28826187771833E-02 
705	 9.43173695961725E-02 
706	 9.61429421819609E-02 
707	 9.78185518478753E-02 
708	 9.90234499566487E-02 
709	 0.100196414913827 
710	 0.101491416006874 
711	 0.103112580352537 
712	 0.104276241150295 
713	 0.104997526709264 
714	 0.106596710892084 
715	 0.10817132308034 
716	 0.108920748528683 
717	 0.10963097296759 
718	 0.110515972300973 
719	 0.111601760991856 
720	 0.112343848012153 
721	 0.112684567648118 
722	 0.113478948792226 
723	 0.114208166309567 
724	 0.114186454194714 
725	 0.115122545146153 
726	 0.116710298926835 
727	 0.116983107616345 
728	 0.11695582596429 
729	 0.117139039845714 
730	 0.117302728694757 
731	 0.117681074716649 
732	 0.118585600713707 
733	 0.119354495120561 
734	 0.119845637446186 
735	 0.120160074692265 
736	 0.120388331158422 
737	 0.120582279674474 
738	 0.120641849331149 
739	 0.120763410141786 
740	 0.121342712715552 
741	 0.121690785706678 
742	 0.121700775025488 
743	 0.121950068361666 
744	 0.122176310993437 
745	 0.122159132008437 
746	 0.122108381014478 
747	 0.122218551763095 
748	 0.122896805615724 
749	 0.123400007563102 
750	 0.123458260257503 
751	 0.12329637249564 
752	 0.123271166939878 
753	 0.123716845318349 
754	 0.124064846949473 
755	 0.124195950696292 
756	 0.124137239290481 
757	 0.124091493636887 
758	 0.124182766020295 
759	 0.124435589170843 
760	 0.125180244244131 
761	 0.126442519831737 
762	 0.126861834257273 
763	 0.126609655926963 
764	 0.126867571443489 
765	 0.127058573863754 
766	 0.12699798924758 
767	 0.126801174305702 
768	 0.126622910378589 
769	 0.12663157472301 
770	 0.126639013504224 
771	 0.12657567488681 
772	 0.126304112990348 
773	 0.126323993686905 
774	 0.126895349753177 
775	 0.12716022220077 
776	 0.127216189039155 
777	 0.127470685297009 
778	 0.127872283557503 
779	 0.128255044639914 
780	 0.127975859301414 
781	 0.127691047393371 
782	 0.12791229779414 
783	 0.128064860604018 
784	 0.128201277272946 
785	 0.128650341973272 
786	 0.128964855417876 
787	 0.129004825991827 
788	 0.128889964618835 
789	 0.128841642270583 
790	 0.129065968286463 
791	 0.129515730143512 
792	 0.130060249971115 
793	 0.130461004517348 
794	 0.13064872724505 
795	 0.130569237734528 
796	 0.130136602113027 
797	 0.129795797637086 
798	 0.129966005907361 
799	 0.130090187897562 
800	 0.130159942180897 
801	 0.130449047351055 
802	 0.13090142442514 
803	 0.131320894642062 
804	 0.130830649943872 
805	 0.130179956045885 
806	 0.130243651351499 
807	 0.130857917057675 
808	 0.131733187622417 
809	 0.132244974259496 
810	 0.132216730443742 
811	 0.131658973709655 
812	 0.131307419792968 
813	 0.131350057884025 
814	 0.131927517531304 
815	 0.132538252676492 
816	 0.133110130620132 
817	 0.134109352457419 
818	 0.134153957314619 
819	 0.133072346489748 
820	 0.133331270408893 
821	 0.134160347354329 
822	 0.134420327565943 
823	 0.133943700341002 
824	 0.133245057051235 
825	 0.133897381311431 
826	 0.134428423371891 
827	 0.13435299388454 
828	 0.134817589061266 
829	 0.13517024264989 
830	 0.134545409605023 
831	 0.134273782635928 
832	 0.134551841334206 
833	 0.135055144477541 
834	 0.135309578628018 
835	 0.135237867640944 
836	 0.135924204346421 
837	 0.136420328888612 
838	 0.135628185456168 
839	 0.135340787397071 
840	 0.135699006085221 
841	 0.135912353739247 
842	 0.136207607411303 
843	 0.136613034623096 
844	 0.136959829205163 
845	 0.136994179780597 
846	 0.136490415859398 
847	 0.136284753848895 
848	 0.136402871969651 
849	 0.136348106542472 
850	 0.136254854458668 
851	 0.136220772193104 
852	 0.136489528429587 
853	 0.136996849892426 
854	 0.137604633042373 
855	 0.137812295227448 
856	 0.137642266940862 
857	 0.137392349129569 
858	 0.137363666367856 
859	 0.137530631638407 
860	 0.137040279479887 
861	 0.136686840590858 
862	 0.137170614632334 
863	 0.136696904561731 
864	 0.136008823385159 
865	 0.137664042468835 
866	 0.139098253008368 
867	 0.139417194678899 
868	 0.139143076724134 
869	 0.138684441112322 
870	 0.138414331260624 
871	 0.138520689515904 
872	 0.138985817961307 
873	 0.139720414861291 
874	 0.140325284636826 
875	 0.14045594837386 
876	 0.139407545488758 
877	 0.13845682201288 
878	 0.138535676497444 
879	 0.139184654672646 
880	 0.139972336871353 
881	 0.14034059461785 
882	 0.139934606454511 
883	 0.139141216810128 
884	 0.139682298903903 
885	 0.140128216382694 
886	 0.139837206488193 
887	 0.140368860744604 
888	 0.141214805018457 
889	 0.141501919106867 
890	 0.141593688333151 
891	 0.141454767362515 
892	 0.140615987374681 
893	 0.140440543724812 
894	 0.141399976884829 
895	 0.141675511896151 
896	 0.141892253032158 
897	 0.142872830280498 
898	 0.143003674850476 
899	 0.142610234891369 
900	 0.143413255579386 
901	 0.143793624184819 
902	 0.1433096244497 
903	 0.142410457462118 
904	 0.141953684499781 
905	 0.142508416004907 
906	 0.142963293075169 
907	 0.143207083590913 
908	 0.143339395710394 
909	 0.144165637390407 
910	 0.145434792494432 
911	 0.145237960088315 
912	 0.145017141388473 
913	 0.145538990224626 
914	 0.145835963322006 
915	 0.146026527784679 
916	 0.146358100220806 
917	 0.146566023450138 
918	 0.146180268913623 
919	 0.143846610742502 
920	 0.142889342980042 
921	 0.144168428215428 
922	 0.145127111028955 
923	 0.145915887371772 
924	 0.146586157078014 
925	 0.145058135660134 
926	 0.142846719457014 
927	 0.144085330811658 
928	 0.145226768083463 
929	 0.145312197414594 
930	 0.146223273017137 
931	 0.14680347256443 
932	 0.145960234007541 
933	 0.14314931878519 
934	 0.141671738249248 
935	 0.145985172528441 
936	 0.149937189937992 
937	 0.152109278476348 
938	 0.15403324073243 
939	 0.151706943881069 
940	 0.146481877274583 
941	 0.150551024768847 
942	 0.149580939189562 
943	 0.135806681972978 
944	 0.139720639201201 
945	 0.15247483521478 
946	 0.154169194092172 
947	 0.149607550048647 
948	 0.143387292837657 
949	 0.146700714801771 
950	 0.150480224733405 
951	 0.151354002434586 
952	 0.155124637839219 
953	 0.154983355620679 
954	 0.146093765589548 
955	 0.14711688302005 
956	 0.152703690270863 
957	 0.147604963813324 
958	 0.147350540894959 
959	 0.151561109639455 
960	 0.144723117507668 
961	 0.14352691577518 
962	 0.153003444723824 
963	 0.154036691620521 
964	 0.151485569965634 
965	 0.151212094105018 
966	 0.149192521204382 
967	 0.14616792501124 
968	 0.14452496990146 
969	 0.142311167553109 
970	 0.14091189013941 
971	 0.147672369697473 
972	 0.151832716808694 
973	 0.148656860109761 
974	 0.148184432409487 
975	 0.150877085000851 
976	 0.155426451304255 
977	 0.150604920665062 
978	 0.141917933280138 
979	 0.146216394158418 
980	 0.148114253596434 
981	 0.145575621765568 
982	 0.148292337480566 
983	 0.15180917589685 
984	 0.153391408891129 
985	 0.152652162334472 
986	 0.152246865123528 
987	 0.154623451530684 
988	 0.153489961515703 
989	 0.149632786629368 
990	 0.146797392490929 
991	 0.145876416297706 
992	 0.146926971093255 
993	 0.148571821343366 
994	 0.150041330266022 
995	 0.15051251461335 
996	 0.148013078278723 
997	 0.146600979617317 
998	 0.149962075558894 
999	 0.151620971289101 
1000	 0.152222029021521 
1001	 0.155002930876491 
1002	 0.149695569107646 
1003	 0.139620525333167 
1004	 0.144477420560163 
1005	 0.149974740513983 
1006	 0.149586064770889 
1007	 0.141086218257388 
1008	 0.140994756466934 
1009	 0.158057009343846 
1010	 0.154276921956904 
1011	 0.142355024373632 
1012	 0.146327318884135 
1013	 0.152638051978779 
1014	 0.15609900592429 
1015	 0.15141561196976 
1016	 0.149079855442847 
1017	 0.15227047278403 
1018	 0.158958693020425 
1019	 0.159452796701771 
1020	 0.150574746791511 
1021	 0.147524072563558 
1022	 0.153314066737113 
1023	 0.167297627770054 
1024	 0.171680794671955 
1025	 0.164376598952951 
1026	 0.1477105343321 
1027	 0.153656971423673 
1028	 0.174137417504037 
1029	 0.157338099861119 
1030	 0.147819305445864 
1031	 0.155505411767292 
1032	 0.149761522904984 
1033	 0.145805163433534 
1034	 0.152757689908672 
1035	 0.161011233049091 
1036	 0.163741358472661 
1037	 0.156166928946448 
1038	 0.154872395154557 
1039	 0.154650519169595 
1040	 0.141161373284251 
1041	 0.1446314325415 
1042	 0.161203202728242 
1043	 0.159848609678417 
1044	 0.156611795960059 
1045	 0.157649662936801 
1046	 0.166335250903532 
1047	 0.164018613086491 
1048	 0.145453491882723 
1049	 0.158717511704323 
1050	 0.165021151845896 
1051	 0.132265758256826 
1052	 0.142876942173123 
1053	 0.171062212698663 
1054	 0.157547753794144 
1055	 0.149629157926281 
1056	 0.157931267152138 
1057	 0.184100374852153 
1058	 0.173545020231687 
1059	 0.13115923996444 
1060	 0.161226958014694 
1061	 0.172408602329282 
1062	 0.138594445126046 
1063	 0.151835558918526 
1064	 0.164971793502779 
1065	 0.148353898372559 
1066	 0.173408577246369 
1067	 0.201572125611887 
1068	 0.187170301965957 
1069	 0.155397791760738 
1070	 0.132644875889094 
1071	 0.153317944903159 
1072	 0.143964660367113 
1073	 0.111736202417576 
1074	 0.116545823068763 
1075	 0.133415760882196 
