Wavelength	A00299.asd
325	 3.06977877033341E-02 
326	 2.93683809964316E-02 
327	 3.20404937124743E-02 
328	 3.39229269348493E-02 
329	 3.76210087881767E-02 
330	 4.20447203132598E-02 
331	 3.76894833767194E-02 
332	 3.20426685101902E-02 
333	 3.28551105163898E-02 
334	 3.64935960185027E-02 
335	 0.039589301160904 
336	 3.54848619611561E-02 
337	 3.58118357011604E-02 
338	 4.17866251809783E-02 
339	 4.22842003998631E-02 
340	 3.78633989567789E-02 
341	 3.05972460867691E-02 
342	 3.31735075593367E-02 
343	 4.03587897961335E-02 
344	 0.039399039062021 
345	 0.035706387477114 
346	 3.26854619623627E-02 
347	 3.79565770639404E-02 
348	 4.17452499471058E-02 
349	 0.038158505548375 
350	 3.53012192744342E-02 
351	 3.42969612931699E-02 
352	 3.51699645863056E-02 
353	 3.43370664053823E-02 
354	 3.24519708535933E-02 
355	 3.56288929355862E-02 
356	 3.80309857679617E-02 
357	 3.65823850356118E-02 
358	 3.66865722402948E-02 
359	 3.82136673820958E-02 
360	 4.00669385834208E-02 
361	 3.86573511721188E-02 
362	 0.03516583808879 
363	 3.66898555202194E-02 
364	 3.72526949532471E-02 
365	 3.44402635825373E-02 
366	 3.46071655189334E-02 
367	 3.60148668405095E-02 
368	 3.55162581855465E-02 
369	 3.59692007711701E-02 
370	 3.73264160910565E-02 
371	 3.73067891313557E-02 
372	 3.72306544765877E-02 
373	 3.77746225272377E-02 
374	 3.85476832454019E-02 
375	 3.86895509933344E-02 
376	 3.71685225398176E-02 
377	 3.57630159479298E-02 
378	 3.50947768952297E-02 
379	 0.035518744954963 
380	 3.60149342217478E-02 
381	 3.59585217037309E-02 
382	 3.51774203724358E-02 
383	 3.45535323318618E-02 
384	 3.52400652649211E-02 
385	 3.64236660895648E-02 
386	 3.74611114778551E-02 
387	 3.74149697219382E-02 
388	 3.66939343139097E-02 
389	 3.56409151708099E-02 
390	 3.45152366873291E-02 
391	 0.034933026324255 
392	 3.85277622012553E-02 
393	 0.038029063372636 
394	 0.034465754861014 
395	 3.54997969887593E-02 
396	 0.036173463994266 
397	 3.48426315890232E-02 
398	 3.45017007253532E-02 
399	 0.034227702441346 
400	 0.03292050839892 
401	 3.32588228766722E-02 
402	 3.48440293014857E-02 
403	 3.57811427454142E-02 
404	 3.58457921893865E-02 
405	 3.51225473935678E-02 
406	 3.48688624449993E-02 
407	 3.53123510469707E-02 
408	 3.65262937055322E-02 
409	 3.66672849983545E-02 
410	 3.57923333066351E-02 
411	 0.035264840549808 
412	 3.51734440513101E-02 
413	 3.54836355151445E-02 
414	 3.55773738861932E-02 
415	 3.53764927417677E-02 
416	 3.48766851253402E-02 
417	 3.47982607638066E-02 
418	 3.51947238623208E-02 
419	 3.57544538008578E-02 
420	 3.57356859667988E-02 
421	 3.49754693068185E-02 
422	 0.03543454312263 
423	 3.63418248338446E-02 
424	 3.62704046327905E-02 
425	 3.63414209487696E-02 
426	 3.67101873824055E-02 
427	 3.69955982122436E-02 
428	 3.68328973821105E-02 
429	 0.036116016755816 
430	 3.59706975287869E-02 
431	 3.62235334421968E-02 
432	 3.63444006261771E-02 
433	 3.59131916242413E-02 
434	 0.035178975592354 
435	 3.54394425198665E-02 
436	 3.57570151548906E-02 
437	 3.55879863506691E-02 
438	 3.61366311412354E-02 
439	 3.68573999017408E-02 
440	 3.64441785512852E-02 
441	 3.62125470762323E-02 
442	 3.64271876042598E-02 
443	 3.64078588898715E-02 
444	 3.63166618622081E-02 
445	 0.036318301950188 
446	 3.66124597595863E-02 
447	 3.69295057100715E-02 
448	 0.036558845912038 
449	 3.64774410360429E-02 
450	 3.68880093978491E-02 
451	 3.69803815659956E-02 
452	 3.70804532298269E-02 
453	 3.75115892173114E-02 
454	 3.73617618286826E-02 
455	 3.68915508272672E-02 
456	 3.73952927426916E-02 
457	 3.73984268188626E-02 
458	 3.65941750919581E-02 
459	 3.69015618491862E-02 
460	 3.75824783041527E-02 
461	 3.75900224274297E-02 
462	 3.75422609249287E-02 
463	 0.037496776742068 
464	 3.71865942456986E-02 
465	 3.70886919868203E-02 
466	 3.73766839822565E-02 
467	 3.73260848942649E-02 
468	 3.71866274454266E-02 
469	 3.74392694892403E-02 
470	 3.75663579228006E-02 
471	 3.75117190509821E-02 
472	 3.75515158295911E-02 
473	 3.77451242987922E-02 
474	 3.80342863229067E-02 
475	 3.75587785332795E-02 
476	 3.69752996375507E-02 
477	 3.76595503161443E-02 
478	 3.76748248815425E-02 
479	 3.69197222016244E-02 
480	 3.74645007123699E-02 
481	 3.81633191520533E-02 
482	 3.80628044766044E-02 
483	 0.037699223561843 
484	 3.74372861865318E-02 
485	 3.79760820380412E-02 
486	 3.82032479261578E-02 
487	 3.79008064575051E-02 
488	 3.83626646138241E-02 
489	 3.87081442228668E-02 
490	 3.80351549752913E-02 
491	 3.75100996624277E-02 
492	 3.74189029963001E-02 
493	 3.78929653816279E-02 
494	 3.82253715779207E-02 
495	 3.81331264004187E-02 
496	 3.81058464169987E-02 
497	 3.81597504872297E-02 
498	 3.82522859540886E-02 
499	 0.038566561618963 
500	 3.89729438624697E-02 
501	 0.038879782941817 
502	 3.88797601602698E-02 
503	 3.92856152145258E-02 
504	 3.95009736755793E-02 
505	 3.96892760873226E-02 
506	 4.02689688698289E-02 
507	 4.05346833442875E-02 
508	 4.04767418392288E-02 
509	 4.08563076989576E-02 
510	 0.041505730207799 
511	 4.22262582828741E-02 
512	 4.25128012796811E-02 
513	 4.26038804273434E-02 
514	 4.32649879258331E-02 
515	 4.39607589336842E-02 
516	 4.45135582863383E-02 
517	 4.50597806090682E-02 
518	 4.55680500119064E-02 
519	 4.60010792654595E-02 
520	 4.64757117403165E-02 
521	 4.70699766096783E-02 
522	 4.79414246402261E-02 
523	 4.87646848047884E-02 
524	 4.94212785692154E-02 
525	 5.02606833408325E-02 
526	 5.10120479560801E-02 
527	 5.12451755555455E-02 
528	 0.051525485095596 
529	 0.051981979795971 
530	 5.24621316888351E-02 
531	 5.30780205063503E-02 
532	 5.38676111161235E-02 
533	 5.45083156660629E-02 
534	 0.054869175704883 
535	 5.47552545440819E-02 
536	 5.50194547647924E-02 
537	 5.58094954976265E-02 
538	 5.63553629406922E-02 
539	 5.67215019324124E-02 
540	 5.70018703700812E-02 
541	 0.057139135770908 
542	 0.0572057810887 
543	 5.73444626949007E-02 
544	 5.77369973093294E-02 
545	 5.83671387187172E-02 
546	 5.86286140143038E-02 
547	 5.86629103041355E-02 
548	 5.87306285331637E-02 
549	 5.90023798683526E-02 
550	 5.94808673069455E-02 
551	 6.00087327672088E-02 
552	 6.04061318668416E-02 
553	 6.05672777291305E-02 
554	 6.07015381321953E-02 
555	 6.08228606836542E-02 
556	 6.08984607421261E-02 
557	 6.08856379710494E-02 
558	 6.08343821316876E-02 
559	 6.10472383250599E-02 
560	 6.11775366786623E-02 
561	 6.09244252428209E-02 
562	 6.07937208079603E-02 
563	 6.07930668716414E-02 
564	 6.06726154780606E-02 
565	 6.06006261207627E-02 
566	 6.05816793858047E-02 
567	 6.02457382320686E-02 
568	 5.98416076028015E-02 
569	 5.97214429292146E-02 
570	 5.94867317383325E-02 
571	 5.91466909257828E-02 
572	 5.90728099108331E-02 
573	 5.89706110226405E-02 
574	 5.86800352327532E-02 
575	 0.058490316190368 
576	 5.83353701873523E-02 
577	 5.80291042603749E-02 
578	 5.76950147637839E-02 
579	 5.73516399989423E-02 
580	 0.056857655567802 
581	 5.65313442621635E-02 
582	 5.66256560952763E-02 
583	 5.66526924831489E-02 
584	 5.65640663396604E-02 
585	 5.65123053488532E-02 
586	 5.63834626765658E-02 
587	 5.61478365810886E-02 
588	 5.59363980866808E-02 
589	 5.56649226271951E-02 
590	 0.055223108347232 
591	 5.49080923449174E-02 
592	 5.47838205606604E-02 
593	 5.47585002911868E-02 
594	 5.48507799815379E-02 
595	 5.50101581161944E-02 
596	 5.47529638413442E-02 
597	 5.44936267774342E-02 
598	 5.51195980566683E-02 
599	 5.50936713495922E-02 
600	 5.42740938129334E-02 
601	 5.42905409780599E-02 
602	 5.44435499290921E-02 
603	 5.40964411679416E-02 
604	 5.39537143203121E-02 
605	 5.39144430316065E-02 
606	 5.33220298440794E-02 
607	 5.32078106721739E-02 
608	 5.37799033828606E-02 
609	 5.35788574391838E-02 
610	 5.30275819910361E-02 
611	 5.28232210120545E-02 
612	 5.26565451025237E-02 
613	 5.24545094891544E-02 
614	 5.21679674250847E-02 
615	 5.19317118121065E-02 
616	 5.18115611823739E-02 
617	 5.16112253906202E-02 
618	 5.13383280275278E-02 
619	 5.10326470865431E-02 
620	 5.09628668135368E-02 
621	 5.11028764444774E-02 
622	 5.10022207799281E-02 
623	 5.06555164749628E-02 
624	 5.01260547062001E-02 
625	 5.01439211455832E-02 
626	 5.04812381612055E-02 
627	 5.01403362735293E-02 
628	 4.99949503290603E-02 
629	 5.02671355946641E-02 
630	 5.01209016148146E-02 
631	 4.98486837150241E-02 
632	 4.98968715536685E-02 
633	 5.01358643240004E-02 
634	 5.03550018247974E-02 
635	 5.00310274831605E-02 
636	 4.94789071152079E-02 
637	 4.89254432000562E-02 
638	 4.85198381354208E-02 
639	 4.81837637131899E-02 
640	 4.77067910431283E-02 
641	 4.75763536140948E-02 
642	 4.76921266658196E-02 
643	 4.69207859696675E-02 
644	 0.046230415548201 
645	 4.64208224540488E-02 
646	 4.59554077869633E-02 
647	 0.045017941963551 
648	 4.48484361255428E-02 
649	 4.47473145998946E-02 
650	 4.44760400055642E-02 
651	 4.42105735669864E-02 
652	 0.044074368834036 
653	 0.044192662572562 
654	 4.42982529771909E-02 
655	 4.42199667336993E-02 
656	 4.36532728636969E-02 
657	 4.31078936943315E-02 
658	 4.28810909587749E-02 
659	 0.042511824649143 
660	 4.21325403820773E-02 
661	 4.20788307860674E-02 
662	 4.15886947356666E-02 
663	 4.07031232321702E-02 
664	 4.05348955530557E-02 
665	 4.06674159631441E-02 
666	 0.040682547546854 
667	 4.02645847230068E-02 
668	 3.96162199656694E-02 
669	 0.039384188224141 
670	 0.039112640779867 
671	 3.87826684069529E-02 
672	 3.91885032716996E-02 
673	 0.03965245750614 
674	 3.93607742307841E-02 
675	 3.91964688092824E-02 
676	 3.92796948723186E-02 
677	 3.93097795898883E-02 
678	 3.94382930221899E-02 
679	 3.97338300343279E-02 
680	 4.01010195738892E-02 
681	 4.04606128130228E-02 
682	 0.040704038720337 
683	 4.11707124504174E-02 
684	 4.18646883480105E-02 
685	 4.23801909251949E-02 
686	 4.30663987336986E-02 
687	 4.42145004876992E-02 
688	 4.53930966152037E-02 
689	 4.66019119857539E-02 
690	 4.82080871453579E-02 
691	 5.02212840106951E-02 
692	 5.26283812670541E-02 
693	 5.51215490832664E-02 
694	 0.057755582298629 
695	 6.04862957274812E-02 
696	 6.31168356358168E-02 
697	 6.56945708408495E-02 
698	 6.85495040051586E-02 
699	 7.13781960981322E-02 
700	 7.40945796645136E-02 
701	 7.74362277692897E-02 
702	 8.09677532230179E-02 
703	 8.40066958062097E-02 
704	 8.67519251214057E-02 
705	 8.93488657889139E-02 
706	 9.20007521904915E-02 
707	 0.094659902701248 
708	 9.72733756151783E-02 
709	 9.96639000749596E-02 
710	 0.10197772636941 
711	 0.104561582128767 
712	 0.106979039734923 
713	 0.109163671152478 
714	 0.111587807935958 
715	 0.113751046094778 
716	 0.115297052294614 
717	 0.116893302702078 
718	 0.118778682546053 
719	 0.120906273172447 
720	 0.122712081683331 
721	 0.123980139989206 
722	 0.125189328221592 
723	 0.126241969279674 
724	 0.126873730711067 
725	 0.1280624042696 
726	 0.129727849810424 
727	 0.131151628635624 
728	 0.132377072582635 
729	 0.133368448684494 
730	 0.133920083157054 
731	 0.134353194879496 
732	 0.13511627286646 
733	 0.135947517330242 
734	 0.136771135350083 
735	 0.137516887515355 
736	 0.138155018184359 
737	 0.138646713347488 
738	 0.139013446771199 
739	 0.1394424644419 
740	 0.140285616942898 
741	 0.140786120609574 
742	 0.14088411487715 
743	 0.141456692167605 
744	 0.141964013238574 
745	 0.141972608275434 
746	 0.142171962223242 
747	 0.142580875443792 
748	 0.142921985777746 
749	 0.143469277034581 
750	 0.144135169595743 
751	 0.143950598230319 
752	 0.143768147890686 
753	 0.144516644291831 
754	 0.1450729924203 
755	 0.145277442917978 
756	 0.145411030133199 
757	 0.145294429611441 
758	 0.144968402347283 
759	 0.145483169817046 
760	 0.147094184506002 
761	 0.14835723671032 
762	 0.148447795253322 
763	 0.148042354267269 
764	 0.148846627315312 
765	 0.149417815545929 
766	 0.149304839232264 
767	 0.149046590385098 
768	 0.148729895181866 
769	 0.148368300386727 
770	 0.148407646830372 
771	 0.148780760717211 
772	 0.148779278712928 
773	 0.148830740885326 
774	 0.149165479597731 
775	 0.149090216468539 
776	 0.149029553629039 
777	 0.149937204070872 
778	 0.150576132618679 
779	 0.150596810607706 
780	 0.150264346388066 
781	 0.15010980006998 
782	 0.150532277764204 
783	 0.151091851729806 
784	 0.151535896605651 
785	 0.151508426673194 
786	 0.151495979038055 
787	 0.151621939255463 
788	 0.151546909038036 
789	 0.151637309046132 
790	 0.152189469305798 
791	 0.152351193920312 
792	 0.152208825788211 
793	 0.152385046419521 
794	 0.152517154453471 
795	 0.152520358113298 
796	 0.152556203912838 
797	 0.152725682962926 
798	 0.153088302386076 
799	 0.153113529020123 
800	 0.152851748575998 
801	 0.152660322508049 
802	 0.15288134024986 
803	 0.153528265833703 
804	 0.15377274316911 
805	 0.15378157313343 
806	 0.153812764274845 
807	 0.153807369797405 
808	 0.153923537123662 
809	 0.154678376026395 
810	 0.155102203911238 
811	 0.154794246972697 
812	 0.154240691924043 
813	 0.154032141311789 
814	 0.154861551670528 
815	 0.155521418334443 
816	 0.155924942137091 
817	 0.157071309311856 
818	 0.157257009178259 
819	 0.156259236883867 
820	 0.157128310908521 
821	 0.158468570406877 
822	 0.158377899531631 
823	 0.157853029101952 
824	 0.157443480514711 
825	 0.157967167323204 
826	 0.158641656909285 
827	 0.159112395900289 
828	 0.159483320181982 
829	 0.159333306105638 
830	 0.158229670057197 
831	 0.15794050967774 
832	 0.158673888298614 
833	 0.159841257778227 
834	 0.160577884576806 
835	 0.160554863093658 
836	 0.160584609798125 
837	 0.160788797671702 
838	 0.16119721665672 
839	 0.161091904252396 
840	 0.160556231455892 
841	 0.160094965612391 
842	 0.160729877961532 
843	 0.162391138689799 
844	 0.161826459142277 
845	 0.160738888658213 
846	 0.161283168458885 
847	 0.161578945332639 
848	 0.161239496498066 
849	 0.160017422974728 
850	 0.160311799757042 
851	 0.162511252859672 
852	 0.162414042031523 
853	 0.161426259117469 
854	 0.161423914223561 
855	 0.161549298084906 
856	 0.161643062406679 
857	 0.161688732913147 
858	 0.161574500572241 
859	 0.161238176068557 
860	 0.160471106637328 
861	 0.160254993791233 
862	 0.161416460727351 
863	 0.161995659016091 
864	 0.162207635763464 
865	 0.163559632389531 
866	 0.164231109889439 
867	 0.163841702551237 
868	 0.163771425806511 
869	 0.163854299836385 
870	 0.16393056507506 
871	 0.164261925325745 
872	 0.164547015903445 
873	 0.164082575062981 
874	 0.164541998695082 
875	 0.16586460460795 
876	 0.165534353086818 
877	 0.165373985563772 
878	 0.16648362948475 
879	 0.166397460129192 
880	 0.166028030678328 
881	 0.167406210685016 
882	 0.167212538612863 
883	 0.165519091468312 
884	 0.165767432467069 
885	 0.166543336803444 
886	 0.167080200487592 
887	 0.167911265555476 
888	 0.168689523496768 
889	 0.168938278811739 
890	 0.1694775164428 
891	 0.169899620650063 
892	 0.168086081986071 
893	 0.167352348182446 
894	 0.168999496838707 
895	 0.16982152450704 
896	 0.170698019617564 
897	 0.172738600654756 
898	 0.17217193588641 
899	 0.170371392798627 
900	 0.172960032642249 
901	 0.173450091837468 
902	 0.17075367145887 
903	 0.169995387142488 
904	 0.169939816447475 
905	 0.16965930244322 
906	 0.170980193522844 
907	 0.172618377269684 
908	 0.171913188895953 
909	 0.170936141200527 
910	 0.170534449174832 
911	 0.171263794245419 
912	 0.17270494011914 
913	 0.174269107543517 
914	 0.17424165162643 
915	 0.173571472271431 
916	 0.173709902264643 
917	 0.176783821067014 
918	 0.179873573431124 
919	 0.173856142086438 
920	 0.170005234682666 
921	 0.171553461881455 
922	 0.171860991727899 
923	 0.172412235921889 
924	 0.174461570561843 
925	 0.173789764583444 
926	 0.171475061703003 
927	 0.171536864570947 
928	 0.171785933076237 
929	 0.171396947089638 
930	 0.169492918757177 
931	 0.170076944621907 
932	 0.175292694694578 
933	 0.172727211518104 
934	 0.167770996637341 
935	 0.171123041205813 
936	 0.176386455391486 
937	 0.17991348932885 
938	 0.177168924953458 
939	 0.173113742378008 
940	 0.170069996475065 
941	 0.169804760536297 
942	 0.170957935375665 
943	 0.171997359030819 
944	 0.16897497498234 
945	 0.16562766038441 
946	 0.168306554378441 
947	 0.174141937935571 
948	 0.179493866712861 
949	 0.176460071320374 
950	 0.171066895179257 
951	 0.167506777793762 
952	 0.171910314712158 
953	 0.176767931829175 
954	 0.175089003477973 
955	 0.171299359887263 
956	 0.168657402163211 
957	 0.171492558487173 
958	 0.17541499153083 
959	 0.176078259719732 
960	 0.162502529311839 
961	 0.156502018821945 
962	 0.16628655374858 
963	 0.174218000998571 
964	 0.17543942606304 
965	 0.167843818021886 
966	 0.165993204218107 
967	 0.169657093445925 
968	 0.17349784221113 
969	 0.171094529069721 
970	 0.163930117120808 
971	 0.165248183686184 
972	 0.168917288923681 
973	 0.17075488620527 
974	 0.166896919417448 
975	 0.165953982654853 
976	 0.176573508806626 
977	 0.177504464894864 
978	 0.170956079857429 
979	 0.17072641335698 
980	 0.170979204591618 
981	 0.17045135654314 
982	 0.169538179973292 
983	 0.170986872295054 
984	 0.175498059660202 
985	 0.177698784177592 
986	 0.178472616491414 
987	 0.179094794534919 
988	 0.174656691634826 
989	 0.170321900379823 
990	 0.178189421681817 
991	 0.178254860386224 
992	 0.170002888514895 
993	 0.173641604520721 
994	 0.178597100309132 
995	 0.179529440164069 
996	 0.178952546175479 
997	 0.177562150190625 
998	 0.176371932964904 
999	 0.179908839231041 
1000	 0.184066836778241 
1001	 0.180754710456731 
1002	 0.173733656692049 
1003	 0.167402750540935 
1004	 0.172910780406151 
1005	 0.175490218439959 
1006	 0.170350562658181 
1007	 0.166409093213037 
1008	 0.167795251633588 
1009	 0.175789318459881 
1010	 0.177971344728504 
1011	 0.174339275929593 
1012	 0.167664891101898 
1013	 0.16526762058433 
1014	 0.167453989930142 
1015	 0.170388513243861 
1016	 0.16959376137562 
1017	 0.166596148086558 
1018	 0.175183942758272 
1019	 0.18050486975541 
1020	 0.175322022503373 
1021	 0.169004721555517 
1022	 0.168942246892519 
1023	 0.179474114454564 
1024	 0.181103058359996 
1025	 0.175084649655147 
1026	 0.1692191801699 
1027	 0.171264933364417 
1028	 0.178978813625747 
1029	 0.179158735764139 
1030	 0.175009609084683 
1031	 0.168306448851857 
1032	 0.160290964073549 
1033	 0.165683321763253 
1034	 0.187955268287678 
1035	 0.188611039968543 
1036	 0.180267621055886 
1037	 0.179487173285099 
1038	 0.180731484658505 
1039	 0.180376871829413 
1040	 0.173410470119816 
1041	 0.180213759571448 
1042	 0.194032452499166 
1043	 0.181051042035813 
1044	 0.17828442453816 
1045	 0.193076273738473 
1046	 0.197313332256408 
1047	 0.181168769933783 
1048	 0.146742471159294 
1049	 0.154634852074728 
1050	 0.166106393066485 
1051	 0.145738131373866 
1052	 0.162744529887555 
1053	 0.196087862277027 
1054	 0.19669407866368 
1055	 0.173894263185496 
1056	 0.15706317905698 
1057	 0.210085372758074 
1058	 0.21131671939931 
1059	 0.149184568472265 
1060	 0.14873512187444 
1061	 0.153307604289898 
1062	 0.146177470383581 
1063	 0.182045618624865 
1064	 0.208132597439686 
1065	 0.190015986199203 
1066	 0.178633119587136 
1067	 0.179899778310255 
1068	 0.19294247902968 
1069	 0.196060158501651 
1070	 0.186196371653032 
1071	 0.168171528273769 
1072	 0.151010164591346 
1073	 0.140572993764502 
1074	 0.143398527653717 
1075	 0.146348962030427 
