Wavelength	A00272.asd
325	 4.01863648565262E-02 
326	 3.81568414195423E-02 
327	 4.23180200280603E-02 
328	 3.93707067554034E-02 
329	 4.17184633378737E-02 
330	 5.04432456551616E-02 
331	 4.75266596725057E-02 
332	 4.29123819664322E-02 
333	 4.69292972429345E-02 
334	 4.83756216062785E-02 
335	 4.70087945403684E-02 
336	 4.66509952580374E-02 
337	 4.57898614882789E-02 
338	 0.044647121307227 
339	 4.60588339960445E-02 
340	 4.63797009980422E-02 
341	 4.31636199355487E-02 
342	 4.43576282146686E-02 
343	 4.73330329720461E-02 
344	 4.54735966308695E-02 
345	 4.04656090377257E-02 
346	 3.51472541913975E-02 
347	 3.78129150305502E-02 
348	 0.042329419300223 
349	 0.044479899976761 
350	 4.72892514884746E-02 
351	 4.85684314944048E-02 
352	 4.44376250393535E-02 
353	 4.04778944767746E-02 
354	 3.91662537685699E-02 
355	 4.36940943242021E-02 
356	 4.54892407539893E-02 
357	 4.06325520981572E-02 
358	 4.15842451068866E-02 
359	 4.56905006639728E-02 
360	 4.68765096259211E-02 
361	 4.44124577683067E-02 
362	 4.07834800270819E-02 
363	 4.51745463025939E-02 
364	 4.75394349625104E-02 
365	 4.36540491138738E-02 
366	 4.34418194961829E-02 
367	 4.45060771820113E-02 
368	 4.23069802439636E-02 
369	 4.19125311469231E-02 
370	 4.34891092457445E-02 
371	 4.37375194691987E-02 
372	 4.32421282463266E-02 
373	 4.25499029742586E-02 
374	 4.34871540034577E-02 
375	 4.45417125665686E-02 
376	 4.34591975893139E-02 
377	 4.37152468499978E-02 
378	 4.49955689969497E-02 
379	 0.04347345617914 
380	 4.22653812717679E-02 
381	 4.28230535150479E-02 
382	 4.36056283817374E-02 
383	 4.37720128438276E-02 
384	 4.24727526328463E-02 
385	 4.34324529068355E-02 
386	 4.57530222438835E-02 
387	 4.39976390374005E-02 
388	 4.25881756320196E-02 
389	 4.31111336349648E-02 
390	 4.19986612779403E-02 
391	 4.17988179078181E-02 
392	 4.56052958671064E-02 
393	 4.55181472737013E-02 
394	 4.20558668256683E-02 
395	 4.15753672278676E-02 
396	 0.042027775850454 
397	 4.24378015886076E-02 
398	 4.24723896746698E-02 
399	 4.20539529539792E-02 
400	 4.11957011208147E-02 
401	 4.08099970144934E-02 
402	 4.10248114441569E-02 
403	 4.18491873418873E-02 
404	 4.20919397231965E-02 
405	 4.15276079872393E-02 
406	 4.22149328351627E-02 
407	 4.32160643168632E-02 
408	 4.31746720546628E-02 
409	 4.23575168093423E-02 
410	 4.13969532169227E-02 
411	 4.18562453138542E-02 
412	 4.23635444946907E-02 
413	 4.22876077069582E-02 
414	 4.21358754042682E-02 
415	 4.20240684230964E-02 
416	 4.20348917895619E-02 
417	 4.20837913297852E-02 
418	 4.22119525971654E-02 
419	 4.26760177676477E-02 
420	 4.28557933697401E-02 
421	 4.25189827899694E-02 
422	 4.26298077823269E-02 
423	 4.28615877428425E-02 
424	 4.25809058573726E-02 
425	 4.24591747931131E-02 
426	 4.26473884735057E-02 
427	 4.30495174270865E-02 
428	 4.33997981057232E-02 
429	 4.34557253900924E-02 
430	 4.28030581532687E-02 
431	 4.21403777752718E-02 
432	 0.042705903649984 
433	 4.26742259340159E-02 
434	 4.19881917558199E-02 
435	 4.22742573569023E-02 
436	 4.26542450899094E-02 
437	 4.26026675261346E-02 
438	 4.31083440705399E-02 
439	 4.36928520241074E-02 
440	 4.32238981548626E-02 
441	 4.29247166752825E-02 
442	 4.31311638251742E-02 
443	 4.36025888967272E-02 
444	 4.37637693737235E-02 
445	 4.32544903982298E-02 
446	 4.34208504610572E-02 
447	 4.39765752681233E-02 
448	 4.37579747729465E-02 
449	 4.36375658649397E-02 
450	 4.38376659191176E-02 
451	 4.39461153942615E-02 
452	 4.40954567089168E-02 
453	 4.44158609754878E-02 
454	 4.44791668538696E-02 
455	 4.43455604192855E-02 
456	 4.44179743158068E-02 
457	 4.45013388613462E-02 
458	 4.45434431701442E-02 
459	 4.47213493195092E-02 
460	 0.044759349741787 
461	 4.43398926873207E-02 
462	 4.42975317871947E-02 
463	 4.45400629140047E-02 
464	 4.40848102081871E-02 
465	 4.39468906624464E-02 
466	 4.45424606607822E-02 
467	 4.48488853050014E-02 
468	 4.48225559376912E-02 
469	 4.45810208180629E-02 
470	 4.46463522649901E-02 
471	 4.50663838362557E-02 
472	 4.54645327510764E-02 
473	 4.56904310963135E-02 
474	 4.56466929280686E-02 
475	 0.045424251360949 
476	 4.51868831522493E-02 
477	 4.51784296324719E-02 
478	 4.51270093494211E-02 
479	 4.50569171539728E-02 
480	 0.045409466213186 
481	 4.57707838035884E-02 
482	 4.57871877550611E-02 
483	 0.045466428531231 
484	 4.50909234112117E-02 
485	 4.53161874618151E-02 
486	 4.55802742337416E-02 
487	 4.57014761940096E-02 
488	 4.59510137267269E-02 
489	 4.60258456489012E-02 
490	 4.56321765970343E-02 
491	 4.49321304612888E-02 
492	 4.44898105025711E-02 
493	 0.045736815962813 
494	 4.67431442102405E-02 
495	 4.66993425332665E-02 
496	 4.64510629624768E-02 
497	 4.63381891032311E-02 
498	 4.66854081002221E-02 
499	 4.68887294715785E-02 
500	 4.68516485244114E-02 
501	 4.67872163489087E-02 
502	 0.046857354565074 
503	 0.047139879097693 
504	 4.73624673471992E-02 
505	 0.047590797556358 
506	 4.80045919764214E-02 
507	 4.83271328382896E-02 
508	 4.85410962692076E-02 
509	 4.88923236214812E-02 
510	 4.93564554085709E-02 
511	 4.98859272907181E-02 
512	 5.02505660600766E-02 
513	 5.04673314459699E-02 
514	 5.06057074163529E-02 
515	 5.11447831223155E-02 
516	 0.052087028804664 
517	 5.23595012292643E-02 
518	 5.24625918815472E-02 
519	 0.0530093190806 
520	 5.36506196296826E-02 
521	 0.05433749683386 
522	 5.51835617846696E-02 
523	 5.58722570032131E-02 
524	 5.63041649384336E-02 
525	 5.69222425231206E-02 
526	 5.74677399575065E-02 
527	 5.75002635489716E-02 
528	 5.78956698982978E-02 
529	 5.86604583042719E-02 
530	 0.058995568973294 
531	 5.92778748889457E-02 
532	 5.97607310591158E-02 
533	 6.03457830767723E-02 
534	 6.08394651084758E-02 
535	 6.08541970743878E-02 
536	 6.12221845033856E-02 
537	 6.20372404806839E-02 
538	 0.062416587277901 
539	 6.24840024339035E-02 
540	 6.24295460476861E-02 
541	 0.062737096789699 
542	 6.32456202974873E-02 
543	 6.32154487598793E-02 
544	 6.33097145464133E-02 
545	 6.37431103343401E-02 
546	 6.40096572920975E-02 
547	 6.42005815032969E-02 
548	 6.44942497900159E-02 
549	 6.46288659384813E-02 
550	 6.47498552429696E-02 
551	 6.56266142997616E-02 
552	 6.61999238507323E-02 
553	 0.065884011418692 
554	 6.58335944506739E-02 
555	 6.60623419373281E-02 
556	 6.62717971182141E-02 
557	 6.65592276840814E-02 
558	 6.68766292875766E-02 
559	 6.69700708778184E-02 
560	 6.69400326080558E-02 
561	 6.68961019780096E-02 
562	 6.68653657661476E-02 
563	 6.68203537220385E-02 
564	 6.66119694043251E-02 
565	 0.066674119398423 
566	 6.70234804249364E-02 
567	 6.66011697515705E-02 
568	 6.59237751778347E-02 
569	 6.57642214599519E-02 
570	 6.57414152926187E-02 
571	 6.57775350785943E-02 
572	 6.59583014138706E-02 
573	 6.58738360964713E-02 
574	 6.53577984234153E-02 
575	 6.53122343290038E-02 
576	 6.54420876852518E-02 
577	 6.49669875640224E-02 
578	 6.46073403322168E-02 
579	 6.45132822275403E-02 
580	 6.42590377795515E-02 
581	 6.41203999813388E-02 
582	 6.43091251314296E-02 
583	 6.41397207572206E-02 
584	 6.38127004330442E-02 
585	 6.42584587508576E-02 
586	 6.42973889922396E-02 
587	 6.36144774273255E-02 
588	 6.34688618896058E-02 
589	 6.36005691723898E-02 
590	 6.35181212837825E-02 
591	 0.063397796596886 
592	 6.32515887236922E-02 
593	 6.29712444959245E-02 
594	 6.28782256528642E-02 
595	 6.31144757502561E-02 
596	 6.31431919971497E-02 
597	 6.31091264067692E-02 
598	 6.34270771767703E-02 
599	 6.34202319902215E-02 
600	 6.30040635073412E-02 
601	 6.28007131085803E-02 
602	 6.26211107365362E-02 
603	 6.23150430796793E-02 
604	 6.24159786293529E-02 
605	 6.27341213482796E-02 
606	 6.25263694975467E-02 
607	 6.25363203201107E-02 
608	 6.29092022948174E-02 
609	 6.26963036502001E-02 
610	 6.21565261228951E-02 
611	 6.17249919267787E-02 
612	 6.14925246324115E-02 
613	 6.14191543680253E-02 
614	 0.061233643269495 
615	 0.061029234381357 
616	 0.060853554422029 
617	 0.060628306696972 
618	 6.03935339472029E-02 
619	 6.02266569110705E-02 
620	 6.01037729164144E-02 
621	 6.00126536030892E-02 
622	 5.99501343486654E-02 
623	 5.98191328672595E-02 
624	 5.95673044846287E-02 
625	 5.97374900847277E-02 
626	 6.00721047374026E-02 
627	 5.95901106660714E-02 
628	 5.93975712865017E-02 
629	 5.98333341485698E-02 
630	 0.060092486742719 
631	 0.060071482762872 
632	 5.97457595623319E-02 
633	 5.97932408786652E-02 
634	 0.060120077716733 
635	 5.98537592935098E-02 
636	 5.94448012501099E-02 
637	 5.91606466761922E-02 
638	 5.88417469489614E-02 
639	 5.85556000854637E-02 
640	 5.84371150214344E-02 
641	 5.85264904599369E-02 
642	 5.85991370358063E-02 
643	 5.76424571093666E-02 
644	 5.68307417163417E-02 
645	 5.71441245161108E-02 
646	 0.057034293199022 
647	 5.64153539193423E-02 
648	 5.58254424261169E-02 
649	 5.53816013506205E-02 
650	 5.51895309226918E-02 
651	 5.52731323192267E-02 
652	 5.54651776236836E-02 
653	 5.55706446763509E-02 
654	 5.54721254608043E-02 
655	 0.055138063061494 
656	 5.46319670640378E-02 
657	 5.41887319586764E-02 
658	 5.39572257344179E-02 
659	 5.37752429059491E-02 
660	 5.35095626776534E-02 
661	 5.30067871903065E-02 
662	 5.22371290182803E-02 
663	 5.14082411233299E-02 
664	 5.13462738585345E-02 
665	 0.051497585741068 
666	 5.13498028490065E-02 
667	 5.08249023195936E-02 
668	 5.01318267852321E-02 
669	 0.049819997993346 
670	 4.94775053309669E-02 
671	 4.90731360830528E-02 
672	 4.92580519036914E-02 
673	 4.94973282191352E-02 
674	 4.91513590581104E-02 
675	 4.92705768282676E-02 
676	 4.97880686497864E-02 
677	 4.97384606743582E-02 
678	 4.97725091202459E-02 
679	 5.01874180248178E-02 
680	 5.04460620461361E-02 
681	 5.06937611829371E-02 
682	 5.12606346853581E-02 
683	 5.17872731909497E-02 
684	 5.22787126056575E-02 
685	 5.32040461000691E-02 
686	 5.43187847421089E-02 
687	 5.53611529376726E-02 
688	 5.62329893980801E-02 
689	 5.71148414846135E-02 
690	 5.85698118406751E-02 
691	 6.03549708283525E-02 
692	 6.24076221592012E-02 
693	 6.46321709353435E-02 
694	 6.69558102506578E-02 
695	 6.92154407232008E-02 
696	 7.14788172584304E-02 
697	 7.37888057933444E-02 
698	 7.63170177659131E-02 
699	 7.87959113952576E-02 
700	 8.10695815294702E-02 
701	 8.33468306557782E-02 
702	 8.56627952299477E-02 
703	 0.088035521926543 
704	 9.05084054297498E-02 
705	 9.29862012195568E-02 
706	 9.51239839516273E-02 
707	 9.68167017217103E-02 
708	 9.80840996940672E-02 
709	 9.96631385997568E-02 
710	 0.101579793315137 
711	 0.103694016411773 
712	 0.105600246191079 
713	 0.107170122951379 
714	 0.108633905219642 
715	 0.109991888417564 
716	 0.111324995452925 
717	 0.112888233352887 
718	 0.114547283139635 
719	 0.115454634064416 
720	 0.116395905063779 
721	 0.117541900915215 
722	 0.11845083888923 
723	 0.11907777085149 
724	 0.11930914406359 
725	 0.120537795608386 
726	 0.122462245907847 
727	 0.123418491834843 
728	 0.123956665250498 
729	 0.124345226830142 
730	 0.124536167829795 
731	 0.124883103828986 
732	 0.125832983454258 
733	 0.126425299752394 
734	 0.126683343204517 
735	 0.127473624575287 
736	 0.128280302819721 
737	 0.128740982154217 
738	 0.129098235597794 
739	 0.129455402236924 
740	 0.129931979490986 
741	 0.130439078392739 
742	 0.130855779325253 
743	 0.130828123600035 
744	 0.130758561302623 
745	 0.130997414044256 
746	 0.131427309105948 
747	 0.131807955332292 
748	 0.131588577552558 
749	 0.131559328567359 
750	 0.131941621054281 
751	 0.132172668850919 
752	 0.132414608630137 
753	 0.132869027096633 
754	 0.133284877439896 
755	 0.133607162234481 
756	 0.133873504705072 
757	 0.133963616857433 
758	 0.13387487707641 
759	 0.133925005080563 
760	 0.134734712782623 
761	 0.136955336393601 
762	 0.137470732849838 
763	 0.136588731049753 
764	 0.136929033229664 
765	 0.137146887846533 
766	 0.136865871316669 
767	 0.136649036572112 
768	 0.136633040795708 
769	 0.136963646276139 
770	 0.137064358875857 
771	 0.136876491811634 
772	 0.136705159445237 
773	 0.136864625724237 
774	 0.13748710088226 
775	 0.137737902219369 
776	 0.137799677271012 
777	 0.138258187979746 
778	 0.138409212929416 
779	 0.138213454782365 
780	 0.13839907372364 
781	 0.138712309631469 
782	 0.138951766329905 
783	 0.13942703720428 
784	 0.139851742643969 
785	 0.139485993887051 
786	 0.139533272169103 
787	 0.140170827495936 
788	 0.140129503388531 
789	 0.139935439284631 
790	 0.140116654510144 
791	 0.140195375782819 
792	 0.14030740813739 
793	 0.141053496948419 
794	 0.141351332514983 
795	 0.140968360270352 
796	 0.14089910035727 
797	 0.141072661626612 
798	 0.141342373529754 
799	 0.14154233971161 
800	 0.141647561018058 
801	 0.141648351151609 
802	 0.141991771434885 
803	 0.142707894065215 
804	 0.142922708073346 
805	 0.142833405293122 
806	 0.142732718888642 
807	 0.142509710703482 
808	 0.142380569881461 
809	 0.143068726980718 
810	 0.143270925299768 
811	 0.142572459597587 
812	 0.14224838144356 
813	 0.142806201528398 
814	 0.144686856108614 
815	 0.145335862640243 
816	 0.144815841861234 
817	 0.145851856157514 
818	 0.146215168067616 
819	 0.145318953547914 
820	 0.1454328358192 
821	 0.145820615473232 
822	 0.145446295440857 
823	 0.145650906731186 
824	 0.14646087076794 
825	 0.147217105719249 
826	 0.147356764068907 
827	 0.146903802689058 
828	 0.147855338891494 
829	 0.148637191438281 
830	 0.147208385523312 
831	 0.146754110501144 
832	 0.147468043898594 
833	 0.147760302537936 
834	 0.1479340720897 
835	 0.148109569189093 
836	 0.148509313231994 
837	 0.148801815532204 
838	 0.148625279083538 
839	 0.148931391699261 
840	 0.149500965482245 
841	 0.149032954589949 
842	 0.149012403002405 
843	 0.149829474669034 
844	 0.149762195870123 
845	 0.149495158462441 
846	 0.149919637664428 
847	 0.150089687351987 
848	 0.1499256439774 
849	 0.149721556438639 
850	 0.149759910121549 
851	 0.15011116720801 
852	 0.150318712628571 
853	 0.150382475781626 
854	 0.150357512801206 
855	 0.150508123327998 
856	 0.150641897109245 
857	 0.150111507442032 
858	 0.149731415251452 
859	 0.149748513015372 
860	 0.14981884790716 
861	 0.14993782096317 
862	 0.150076584350778 
863	 0.14953668567938 
864	 0.149117143653756 
865	 0.151074899067577 
866	 0.152226536253131 
867	 0.15181969346839 
868	 0.15205558429605 
869	 0.152569578016391 
870	 0.152993169463133 
871	 0.153360861879346 
872	 0.153602237827899 
873	 0.153583316507156 
874	 0.153755278086699 
875	 0.153997166078775 
876	 0.153181930248288 
877	 0.152449054359169 
878	 0.152655669860389 
879	 0.153518158792018 
880	 0.15490106759412 
881	 0.156710775688092 
882	 0.155964265576476 
883	 0.153396218488392 
884	 0.154541843942405 
885	 0.156157194053526 
886	 0.156468043247352 
887	 0.15696412522675 
888	 0.157085695520394 
889	 0.155986839950217 
890	 0.156176898919312 
891	 0.157422289770982 
892	 0.156922460639877 
893	 0.15676966912722 
894	 0.157599360811343 
895	 0.1568417583106 
896	 0.156198642002826 
897	 0.157769733628572 
898	 0.158635220354704 
899	 0.158506535608426 
900	 0.158487815962004 
901	 0.1571210875421 
902	 0.155130579600039 
903	 0.157537853200612 
904	 0.159866107353511 
905	 0.158871150105324 
906	 0.159432228963657 
907	 0.160969541896101 
908	 0.161208512731747 
909	 0.160932720968159 
910	 0.160519898172659 
911	 0.160496672172287 
912	 0.161249891182238 
913	 0.162718485733801 
914	 0.163163823527851 
915	 0.162827705956059 
916	 0.162314377123701 
917	 0.163074842253494 
918	 0.163888075060223 
919	 0.160194353027466 
920	 0.159408618790627 
921	 0.162549383469168 
922	 0.15998043655745 
923	 0.157833408348182 
924	 0.161465935699535 
925	 0.161497757875915 
926	 0.159543089263677 
927	 0.16285645530691 
928	 0.162958796811959 
929	 0.158658379103665 
930	 0.16010750292919 
931	 0.163142302637832 
932	 0.164023115245867 
933	 0.162916469975538 
934	 0.160850655689973 
935	 0.159725650753037 
936	 0.16339440525526 
937	 0.167957273420287 
938	 0.161266695487491 
939	 0.157071634704602 
940	 0.159208033504558 
941	 0.164576110979306 
942	 0.164934312425229 
943	 0.156193152966448 
944	 0.156847963452143 
945	 0.162252706814968 
946	 0.161106095444991 
947	 0.16377522960745 
948	 0.169588443705192 
949	 0.168754303727612 
950	 0.166832006014669 
951	 0.166037709999239 
952	 0.164724260335783 
953	 0.161658415606832 
954	 0.156943914603613 
955	 0.164043801307813 
956	 0.174717422483366 
957	 0.170744341795545 
958	 0.165628358564424 
959	 0.162258716871915 
960	 0.156297570518824 
961	 0.15828995064357 
962	 0.16963361657382 
963	 0.169927779414281 
964	 0.166381956121438 
965	 0.167188664758327 
966	 0.167925510277551 
967	 0.167050453169903 
968	 0.162869119406623 
969	 0.158086014301298 
970	 0.155155169998657 
971	 0.159417363199307 
972	 0.164068788857552 
973	 0.165515820596564 
974	 0.16738434308798 
975	 0.168702459502756 
976	 0.168113662102628 
977	 0.166059709351643 
978	 0.164021576895996 
979	 0.164883439627545 
980	 0.166098989638776 
981	 0.166403157340673 
982	 0.164000370413641 
983	 0.163317467315704 
984	 0.166391572710956 
985	 0.169109654864484 
986	 0.172183684722964 
987	 0.176042570133953 
988	 0.1690407364766 
989	 0.158674715512405 
990	 0.163924515127569 
991	 0.166203885987862 
992	 0.162671787578075 
993	 0.162818704133952 
994	 0.166724489953775 
995	 0.172608996636436 
996	 0.170212035743765 
997	 0.166011733987662 
998	 0.16691283169832 
999	 0.166404518365833 
1000	 0.165550905225633 
1001	 0.167967165259604 
1002	 0.164617919727375 
1003	 0.15826501201158 
1004	 0.166579596836663 
1005	 0.169999980588291 
1006	 0.163300153626722 
1007	 0.163433650970652 
1008	 0.16698494139057 
1009	 0.169878027683464 
1010	 0.167965022442852 
1011	 0.16469747444207 
1012	 0.165554454090121 
1013	 0.165010987886681 
1014	 0.163895543155509 
1015	 0.166943781050883 
1016	 0.169429389534993 
1017	 0.171316178048755 
1018	 0.180247080498672 
1019	 0.181233093112824 
1020	 0.168915138246 
1021	 0.164963679697981 
1022	 0.166859757003238 
1023	 0.169564779860342 
1024	 0.170984574352059 
1025	 0.169156380076861 
1026	 0.161966778434848 
1027	 0.166587526112087 
1028	 0.177345354360333 
1029	 0.162515819860362 
1030	 0.155720223087648 
1031	 0.164067403733859 
1032	 0.161433918878766 
1033	 0.158891214840496 
1034	 0.164591601137087 
1035	 0.182395659029274 
1036	 0.189926993601783 
1037	 0.167685792530807 
1038	 0.163191706778377 
1039	 0.175046925585435 
1040	 0.184272158819918 
1041	 0.182386539199058 
1042	 0.172105406625562 
1043	 0.16715121200288 
1044	 0.169086633603824 
1045	 0.177660937896432 
1046	 0.189386176617377 
1047	 0.180675714243782 
1048	 0.146645345006909 
1049	 0.156786843365587 
1050	 0.18134688191954 
1051	 0.186866760106267 
1052	 0.177792882022801 
1053	 0.164327057810948 
1054	 0.162463898380769 
1055	 0.175497967860354 
1056	 0.194485273082758 
1057	 0.20032328095333 
1058	 0.176357707999815 
1059	 0.136446831952942 
1060	 0.169776170032619 
1061	 0.187075357653098 
1062	 0.159023282696068 
1063	 0.154952092989534 
1064	 0.154443506297313 
1065	 0.146984911599014 
1066	 0.188897186749014 
1067	 0.225702830300586 
1068	 0.199540599938096 
1069	 0.175402775208572 
1070	 0.165961616233885 
1071	 0.169803253812714 
1072	 0.16263659315517 
1073	 0.142153187817168 
1074	 0.116171298332809 
1075	 0.115058145287187 
