Wavelength	A00212.asd
325	 4.02679502233748E-02 
326	 3.96297057889333E-02 
327	 3.77886757486576E-02 
328	 3.61969664459926E-02 
329	 0.039790197960023 
330	 4.67729648924567E-02 
331	 3.92114850884687E-02 
332	 0.029041694262901 
333	 2.90113027136071E-02 
334	 3.53319573293548E-02 
335	 4.34633031544989E-02 
336	 4.64194688358102E-02 
337	 4.31999982844069E-02 
338	 3.66139969927402E-02 
339	 4.03959035014618E-02 
340	 4.44137357446983E-02 
341	 4.06735707221891E-02 
342	 4.04880466105345E-02 
343	 4.27894977574149E-02 
344	 4.27439559578609E-02 
345	 4.00371636316413E-02 
346	 3.65449946185137E-02 
347	 0.039735403589738 
348	 4.34846452060133E-02 
349	 4.36239967994364E-02 
350	 4.24947456149184E-02 
351	 4.03057805190988E-02 
352	 3.66052676462235E-02 
353	 0.035315444076619 
354	 3.73301869098706E-02 
355	 0.042430019786381 
356	 4.38508908007111E-02 
357	 3.87342316934122E-02 
358	 3.83625429599689E-02 
359	 4.07929318416368E-02 
360	 4.10283654715244E-02 
361	 4.03743819358573E-02 
362	 3.94326337169939E-02 
363	 3.94728178993853E-02 
364	 3.90123285283521E-02 
365	 3.76973978746906E-02 
366	 3.87948113396287E-02 
367	 4.01902922874897E-02 
368	 3.86902027566233E-02 
369	 3.85866988789276E-02 
370	 3.98943007118863E-02 
371	 3.90521975971597E-02 
372	 3.89100990217088E-02 
373	 0.040596418760848 
374	 4.04738186811374E-02 
375	 3.99378416002201E-02 
376	 4.13553693907615E-02 
377	 4.17372483294067E-02 
378	 4.07647486655627E-02 
379	 3.98473884461623E-02 
380	 3.86052108150341E-02 
381	 3.73598312728647E-02 
382	 3.90303213790344E-02 
383	 4.09501031036085E-02 
384	 3.93591476535173E-02 
385	 4.03078316121739E-02 
386	 4.28850683525031E-02 
387	 3.98514713184503E-02 
388	 3.79604168876911E-02 
389	 3.96072702657035E-02 
390	 3.95418525121659E-02 
391	 3.94508109097928E-02 
392	 4.17183856938337E-02 
393	 0.041551549825295 
394	 3.93840277462727E-02 
395	 3.93253352466447E-02 
396	 3.98156834305813E-02 
397	 4.00937339401137E-02 
398	 4.00080268566973E-02 
399	 3.91621827466632E-02 
400	 3.72741104772081E-02 
401	 3.73303736110569E-02 
402	 3.87933445594706E-02 
403	 3.91095964443692E-02 
404	 3.90062025293823E-02 
405	 3.88889579321337E-02 
406	 0.039482751664169 
407	 4.02397245325603E-02 
408	 4.04117718656126E-02 
409	 3.98205698831491E-02 
410	 3.89402585934119E-02 
411	 0.039140547383281 
412	 3.95924909436296E-02 
413	 3.98138985811639E-02 
414	 3.94333927035205E-02 
415	 3.90841924646214E-02 
416	 3.96096152408544E-02 
417	 3.96054693381709E-02 
418	 3.92291960532796E-02 
419	 4.01420147630426E-02 
420	 4.05473107931405E-02 
421	 3.97270968619755E-02 
422	 3.99729247707749E-02 
423	 4.07403701751023E-02 
424	 4.08785379473509E-02 
425	 0.04084898134415 
426	 4.08520939690817E-02 
427	 4.12252585031521E-02 
428	 4.16442721828332E-02 
429	 4.18303765405959E-02 
430	 4.14572373371893E-02 
431	 4.08461179682107E-02 
432	 4.05790430147484E-02 
433	 4.05216254017824E-02 
434	 4.06725402902076E-02 
435	 4.11756668273584E-02 
436	 4.14768155487245E-02 
437	 4.12659407570948E-02 
438	 4.12686291305015E-02 
439	 0.041441717367905 
440	 4.15180726774635E-02 
441	 4.14518286438538E-02 
442	 4.13018447220723E-02 
443	 4.13807686305867E-02 
444	 4.15584692381764E-02 
445	 0.041729152251783 
446	 4.20594764879376E-02 
447	 4.24189072126696E-02 
448	 4.25029519450474E-02 
449	 4.23742661339193E-02 
450	 0.042173443805822 
451	 4.24355398183697E-02 
452	 4.28685653810899E-02 
453	 4.31358568720376E-02 
454	 4.29774769350948E-02 
455	 4.26749549894485E-02 
456	 4.32048611081564E-02 
457	 0.043420482648646 
458	 4.30117704364374E-02 
459	 4.31651564572545E-02 
460	 4.33831657666521E-02 
461	 4.29893789510289E-02 
462	 4.30793826684992E-02 
463	 4.35103192883246E-02 
464	 4.30183575630201E-02 
465	 4.26918656317037E-02 
466	 4.30576634053515E-02 
467	 4.35726312283275E-02 
468	 0.043854779633886 
469	 4.34573568827825E-02 
470	 4.33909276956349E-02 
471	 4.37452323621682E-02 
472	 4.38171892107038E-02 
473	 0.043750783648559 
474	 4.36500981774194E-02 
475	 4.35829485561986E-02 
476	 4.36000334680618E-02 
477	 4.37844943462716E-02 
478	 4.36184482945152E-02 
479	 4.32437296692387E-02 
480	 4.39317017045932E-02 
481	 4.45718237432207E-02 
482	 4.42895755638161E-02 
483	 4.40496799700165E-02 
484	 4.40682848086561E-02 
485	 4.45110441870746E-02 
486	 4.45385913337044E-02 
487	 4.40678556306135E-02 
488	 4.45151097323146E-02 
489	 4.50333889926539E-02 
490	 4.47188233154467E-02 
491	 0.044375652879069 
492	 4.43518090982642E-02 
493	 4.52301778016501E-02 
494	 4.55959685501185E-02 
495	 0.045051819912754 
496	 4.54419126834979E-02 
497	 4.60391055764926E-02 
498	 4.56929340821047E-02 
499	 4.55346817743961E-02 
500	 4.57451169480661E-02 
501	 4.59085697766193E-02 
502	 4.62034869866741E-02 
503	 4.66742923092983E-02 
504	 4.68806509837004E-02 
505	 4.69350948263925E-02 
506	 4.71153442878152E-02 
507	 4.73573700869059E-02 
508	 4.76502177636082E-02 
509	 4.79811265543741E-02 
510	 4.83340886567649E-02 
511	 4.86863970879164E-02 
512	 4.89276833816826E-02 
513	 4.91246748410694E-02 
514	 4.94709255274011E-02 
515	 4.98276484268718E-02 
516	 5.01689939039505E-02 
517	 5.06088252562347E-02 
518	 5.11385957254872E-02 
519	 5.17152754615654E-02 
520	 0.05179221340459 
521	 5.16937435065059E-02 
522	 5.25943110332035E-02 
523	 5.34261080708835E-02 
524	 5.37636371811228E-02 
525	 5.42505827749281E-02 
526	 0.054894149774148 
527	 5.56189831990846E-02 
528	 5.58586846717682E-02 
529	 0.055715182120403 
530	 5.60316842675035E-02 
531	 0.056611877246878 
532	 5.72877207544105E-02 
533	 5.78310609599786E-02 
534	 5.80896265791085E-02 
535	 5.78110844681555E-02 
536	 5.79198790302743E-02 
537	 0.058556563172634 
538	 5.87830770329006E-02 
539	 5.88969814693466E-02 
540	 0.059221309281363 
541	 5.95526406723103E-02 
542	 5.98507135063592E-02 
543	 0.060132916672341 
544	 0.060279831485251 
545	 6.03509203761274E-02 
546	 6.10471208014697E-02 
547	 6.17304274173588E-02 
548	 6.15036977997226E-02 
549	 6.14755554643266E-02 
550	 6.18654174377566E-02 
551	 6.24351697646158E-02 
552	 6.28117721120825E-02 
553	 6.27776740739222E-02 
554	 6.26943274092067E-02 
555	 6.27705451353924E-02 
556	 6.32961819986963E-02 
557	 6.37065476112124E-02 
558	 6.38096077720151E-02 
559	 6.37233330769167E-02 
560	 6.36291601418452E-02 
561	 6.36923013021667E-02 
562	 6.38710565289398E-02 
563	 6.40466388226473E-02 
564	 6.39470265585642E-02 
565	 6.38037867972164E-02 
566	 6.36852179947653E-02 
567	 6.33764253854726E-02 
568	 0.063061113321158 
569	 6.29882036878705E-02 
570	 6.30385317302569E-02 
571	 6.31600200958355E-02 
572	 6.33653725438415E-02 
573	 6.31891893407011E-02 
574	 6.24975957290314E-02 
575	 6.27508875192343E-02 
576	 6.33324766023301E-02 
577	 6.27355448858296E-02 
578	 6.22740288024658E-02 
579	 6.22439864902494E-02 
580	 6.20196284904584E-02 
581	 6.18202965923781E-02 
582	 6.18431213600537E-02 
583	 6.18728617792907E-02 
584	 6.18509601241506E-02 
585	 6.17403243576082E-02 
586	 6.16502178885062E-02 
587	 6.15587178164303E-02 
588	 0.06099878587407 
589	 6.05162037401516E-02 
590	 6.08645568035651E-02 
591	 6.10026913187489E-02 
592	 6.07956524679889E-02 
593	 6.06960922944017E-02 
594	 6.06417422943912E-02 
595	 6.06458729560051E-02 
596	 6.10546998380301E-02 
597	 6.15351245615242E-02 
598	 6.14529150886829E-02 
599	 6.12240535126036E-02 
600	 6.09593031448013E-02 
601	 0.060514977881184 
602	 6.02506858858435E-02 
603	 0.060461636145814 
604	 6.07941512909045E-02 
605	 6.09397312707243E-02 
606	 6.02611454714204E-02 
607	 5.98247362781899E-02 
608	 6.00243129836165E-02 
609	 6.03265864032579E-02 
610	 6.02916410438834E-02 
611	 5.94560497784663E-02 
612	 5.91404476954205E-02 
613	 5.94029231299709E-02 
614	 5.92335259942811E-02 
615	 5.90086790220173E-02 
616	 5.89402500715411E-02 
617	 5.89060304296235E-02 
618	 5.87167227967158E-02 
619	 5.80412554432018E-02 
620	 5.77277355324221E-02 
621	 0.057931877961617 
622	 5.81542996466303E-02 
623	 5.80171366742618E-02 
624	 0.057280795621597 
625	 5.72713522952006E-02 
626	 5.78066395022288E-02 
627	 5.77216565769702E-02 
628	 5.77219568009562E-02 
629	 0.057976488918073 
630	 5.78785058475682E-02 
631	 5.76799041131837E-02 
632	 5.77514803752942E-02 
633	 5.81241977943042E-02 
634	 5.85535687601388E-02 
635	 5.82984358294922E-02 
636	 0.057736309299851 
637	 5.71519105760947E-02 
638	 5.68236791886627E-02 
639	 5.66706845928545E-02 
640	 0.056441019736866 
641	 5.65736491358706E-02 
642	 5.69640284979157E-02 
643	 5.66217828772477E-02 
644	 5.61769475696278E-02 
645	 5.61756633943169E-02 
646	 5.58601337044285E-02 
647	 5.53095511940538E-02 
648	 5.50911621071703E-02 
649	 5.48780346968412E-02 
650	 5.45656997064196E-02 
651	 5.42444012365013E-02 
652	 5.40383057437163E-02 
653	 5.40780657062012E-02 
654	 5.41766735965595E-02 
655	 5.41759802996835E-02 
656	 5.37363205917038E-02 
657	 5.33097631129945E-02 
658	 0.053121778753303 
659	 0.052508272630128 
660	 5.18503161562059E-02 
661	 5.19090730464005E-02 
662	 5.15017420453797E-02 
663	 5.05941564680271E-02 
664	 5.05607289956248E-02 
665	 5.07133770178457E-02 
666	 5.04168409064621E-02 
667	 4.95451085377191E-02 
668	 4.86069348502478E-02 
669	 4.89031289043248E-02 
670	 4.91573493218056E-02 
671	 0.048968864534175 
672	 0.048983892774368 
673	 4.89925063484963E-02 
674	 4.87184326282054E-02 
675	 4.87173854255855E-02 
676	 4.90076368766739E-02 
677	 4.92371082179586E-02 
678	 4.94692370203958E-02 
679	 4.97303363894096E-02 
680	 5.00401601533413E-02 
681	 5.03116003865107E-02 
682	 5.03838933347572E-02 
683	 5.09408830198125E-02 
684	 5.19003222088544E-02 
685	 5.20703549265851E-02 
686	 5.24745439642226E-02 
687	 5.39563027616225E-02 
688	 5.49413693969796E-02 
689	 5.55374699964765E-02 
690	 5.68132498825717E-02 
691	 5.83620261293087E-02 
692	 6.00253802423014E-02 
693	 6.14099492036337E-02 
694	 6.30046888966601E-02 
695	 6.52337567418203E-02 
696	 6.72712942548365E-02 
697	 6.90505762606602E-02 
698	 7.09596929613197E-02 
699	 7.27685174028719E-02 
700	 7.43981495772336E-02 
701	 7.62673011133156E-02 
702	 7.82074255501237E-02 
703	 7.99333125368359E-02 
704	 8.15443041801119E-02 
705	 8.30934089494707E-02 
706	 8.46458484676721E-02 
707	 8.60136171886203E-02 
708	 8.71016494175499E-02 
709	 8.81521768596214E-02 
710	 8.94138261618195E-02 
711	 9.13206009598087E-02 
712	 9.27382364543448E-02 
713	 9.34622656253556E-02 
714	 9.44070082470261E-02 
715	 0.09539552565755 
716	 0.096287009012366 
717	 9.71044141281759E-02 
718	 9.80135175016468E-02 
719	 9.94294531353664E-02 
720	 0.100385541612451 
721	 0.100644202802759 
722	 0.100979143054362 
723	 0.101326856303087 
724	 0.101535110484626 
725	 0.102208544286818 
726	 0.103310410710368 
727	 0.104527875099263 
728	 0.10514474903834 
729	 0.104923173186073 
730	 0.105085125995718 
731	 0.105549830795216 
732	 0.10599290861854 
733	 0.106197939815938 
734	 0.106244126468026 
735	 0.106563803000276 
736	 0.107017559181492 
737	 0.107463758114166 
738	 0.107610350644814 
739	 0.10766564199695 
740	 0.108097059431335 
741	 0.10848177625396 
742	 0.1087323643822 
743	 0.109136268459888 
744	 0.109281200222739 
745	 0.108880693259621 
746	 0.10884598084796 
747	 0.109219802103485 
748	 0.109730887321687 
749	 0.110068104509865 
750	 0.110096341996788 
751	 0.109947936730269 
752	 0.109847337333979 
753	 0.110012517174188 
754	 0.110261202642553 
755	 0.11050271560496 
756	 0.11062045927402 
757	 0.110651309333526 
758	 0.110662574852257 
759	 0.111037185565775 
760	 0.111964622437846 
761	 0.112783310523743 
762	 0.11292636829852 
763	 0.112761900654685 
764	 0.113230852420874 
765	 0.113866503028532 
766	 0.114303737780518 
767	 0.113718312265728 
768	 0.112917221352494 
769	 0.112859242678766 
770	 0.113069721978515 
771	 0.113334807248902 
772	 0.113238219585664 
773	 0.113296903174692 
774	 0.11375825477891 
775	 0.113542423212883 
776	 0.113104035801135 
777	 0.113539759494241 
778	 0.113848202418965 
779	 0.113768981709364 
780	 0.113472005733304 
781	 0.113586382359577 
782	 0.114503764373089 
783	 0.114894393772157 
784	 0.114824564425124 
785	 0.114930114433253 
786	 0.115065466139965 
787	 0.115195534920537 
788	 0.1152937730851 
789	 0.115220776140835 
790	 0.114920605139489 
791	 0.115426609457214 
792	 0.116249500654341 
793	 0.115661894918773 
794	 0.115513543862373 
795	 0.116210948014462 
796	 0.116259480506196 
797	 0.11597217518073 
798	 0.115766383218026 
799	 0.115722119944867 
800	 0.115891599241384 
801	 0.116351771382335 
802	 0.116714375254283 
803	 0.116795607123164 
804	 0.116630557070003 
805	 0.116522698794263 
806	 0.116778326216123 
807	 0.117012338127628 
808	 0.117182200017353 
809	 0.117474045332609 
810	 0.117380408282125 
811	 0.116890038675814 
812	 0.117415233092227 
813	 0.118306042014269 
814	 0.118548688297151 
815	 0.118819237911124 
816	 0.119196348811433 
817	 0.11960829131458 
818	 0.119098391607259 
819	 0.117780647902421 
820	 0.118527491729652 
821	 0.119930841827027 
822	 0.120081452937978 
823	 0.119433458058896 
824	 0.118508496955369 
825	 0.118340952890192 
826	 0.118792565888802 
827	 0.119712633512829 
828	 0.120510056649899 
829	 0.120637371212408 
830	 0.119602074021603 
831	 0.119572135077965 
832	 0.120444348992305 
833	 0.120419276509322 
834	 0.12033789776716 
835	 0.120435152833818 
836	 0.119991968653839 
837	 0.119610175256327 
838	 0.119992085376712 
839	 0.120274757194152 
840	 0.120343260477318 
841	 0.120366302355207 
842	 0.120811199640591 
843	 0.121671947379556 
844	 0.121672239704051 
845	 0.121276062312719 
846	 0.121128578937107 
847	 0.12103896458772 
848	 0.121003339993865 
849	 0.121039358675482 
850	 0.121261209972466 
851	 0.12161557256786 
852	 0.12159751206772 
853	 0.121276201370832 
854	 0.120834329471367 
855	 0.121152378957604 
856	 0.121856902088928 
857	 0.12155228382761 
858	 0.121460183241221 
859	 0.12170605315052 
860	 0.120619904880209 
861	 0.12004774579731 
862	 0.121623300448579 
863	 0.121865596281245 
864	 0.121238304709275 
865	 0.122465626079053 
866	 0.123274196750351 
867	 0.123033998307718 
868	 0.122638097559124 
869	 0.122409489383569 
870	 0.122579975181929 
871	 0.122969882999149 
872	 0.123434674595567 
873	 0.123795177892511 
874	 0.123882177208369 
875	 0.123664089550555 
876	 0.123198007117229 
877	 0.123195070194973 
878	 0.123939309852701 
879	 0.123302981830114 
880	 0.122427492240146 
881	 0.123633644061258 
882	 0.123814254350508 
883	 0.122776212794864 
884	 0.122830838580482 
885	 0.123607377854516 
886	 0.12467522332825 
887	 0.124470364877109 
888	 0.124166870050717 
889	 0.125500178647065 
890	 0.126297286443381 
891	 0.126065233544797 
892	 0.124860446340327 
893	 0.124182797056565 
894	 0.12459968880298 
895	 0.123853531305112 
896	 0.124398405557475 
897	 0.128806252095289 
898	 0.128534177748009 
899	 0.124702681555565 
900	 0.12495822734301 
901	 0.124907628351152 
902	 0.123821148433432 
903	 0.12446506372884 
904	 0.125706280002493 
905	 0.126550323660455 
906	 0.126880901885474 
907	 0.127285239347781 
908	 0.128947130249897 
909	 0.128254429769528 
910	 0.125597573159428 
911	 0.126647821490306 
912	 0.128182225188514 
913	 0.128440374269719 
914	 0.12936512501538 
915	 0.129588880517481 
916	 0.12744908158858 
917	 0.12832652040062 
918	 0.130688399964698 
919	 0.126849691664133 
920	 0.126353372366931 
921	 0.130713433988769 
922	 0.129194972041222 
923	 0.127365856011378 
924	 0.130133211646964 
925	 0.128785511245813 
926	 0.1252764294529 
927	 0.127218671100108 
928	 0.128566843555384 
929	 0.127156765565386 
930	 0.122971484906531 
931	 0.122246532179012 
932	 0.129116905870822 
933	 0.129220006611173 
934	 0.127045370206498 
935	 0.132262940050439 
936	 0.134150745364301 
937	 0.131686295625971 
938	 0.128726936040059 
939	 0.127049119753872 
940	 0.127638935004469 
941	 0.131743863237956 
942	 0.132604087191542 
943	 0.126486834699859 
944	 0.125108762435248 
945	 0.129159658824805 
946	 0.136996336996337 
947	 0.13651307466312 
948	 0.129646725880248 
949	 0.135149092358791 
950	 0.13310373983193 
951	 0.120244593057765 
952	 0.128075287348899 
953	 0.136413847554557 
954	 0.127005879570342 
955	 0.127251415741479 
956	 0.134870150422032 
957	 0.138249533555273 
958	 0.133521233187581 
959	 0.124543901735454 
960	 0.127226022526306 
961	 0.131961143413147 
962	 0.133938723688019 
963	 0.135782788169357 
964	 0.136800639665833 
965	 0.136152793929093 
966	 0.132715929811276 
967	 0.1280786035401 
968	 0.125219756755448 
969	 0.123583667918829 
970	 0.123830510901138 
971	 0.129546393964541 
972	 0.129755267225048 
973	 0.121535388298329 
974	 0.12643566371822 
975	 0.136770870818943 
976	 0.141366595916431 
977	 0.140067483773006 
978	 0.134536249645354 
979	 0.128675545030052 
980	 0.125940891571496 
981	 0.12750222127196 
982	 0.133307454628367 
983	 0.134910157550455 
984	 0.129415406916265 
985	 0.130071414460044 
986	 0.134758859597125 
987	 0.139255233932838 
988	 0.135725995477292 
989	 0.128013740714002 
990	 0.126650762337899 
991	 0.127291972482584 
992	 0.128728845195655 
993	 0.130673301633945 
994	 0.132602214443039 
995	 0.133651202783419 
996	 0.131116312866401 
997	 0.12780928404839 
998	 0.126927498714727 
999	 0.128747876221442 
1000	 0.132769530591322 
1001	 0.138108700659628 
1002	 0.135996949923068 
1003	 0.128530531206121 
1004	 0.130814595424736 
1005	 0.133316097353602 
1006	 0.132167771377283 
1007	 0.128338233057935 
1008	 0.126115886235539 
1009	 0.12857832531926 
1010	 0.132526877684962 
1011	 0.133079154814584 
1012	 0.124789859152091 
1013	 0.12382953961714 
1014	 0.13060648659504 
1015	 0.137370870140143 
1016	 0.138627157380408 
1017	 0.134673832092391 
1018	 0.137013756532001 
1019	 0.136750465306766 
1020	 0.130419339552884 
1021	 0.128530991593655 
1022	 0.131848192801762 
1023	 0.138879564717827 
1024	 0.138458728864458 
1025	 0.133673097505084 
1026	 0.132889787588478 
1027	 0.134946005903179 
1028	 0.138045727453716 
1029	 0.138183535748354 
1030	 0.131529687839956 
1031	 0.12135191260018 
1032	 0.127961453015358 
1033	 0.133908569960492 
1034	 0.130500330939132 
1035	 0.142963145555863 
1036	 0.153382119124966 
1037	 0.143290386530897 
1038	 0.140375701012587 
1039	 0.143223709488689 
1040	 0.140355837564789 
1041	 0.142131831088474 
1042	 0.145788560170044 
1043	 0.135971678927018 
1044	 0.132508150813967 
1045	 0.141115723055692 
1046	 0.152931447267221 
1047	 0.1481643277487 
1048	 0.122288410677029 
1049	 0.134550043782007 
1050	 0.141256106570153 
1051	 0.104833080382936 
1052	 0.11217487125187 
1053	 0.138792511663299 
1054	 0.126625794618918 
1055	 0.141943471556288 
1056	 0.178968198381805 
1057	 0.194934330803622 
1058	 0.171687402570664 
1059	 0.12063048978186 
1060	 0.129065421237071 
1061	 0.129050638931755 
1062	 0.102168824059525 
1063	 0.128387009812181 
1064	 0.159829746989996 
1065	 0.159035727392798 
1066	 0.150950456246984 
1067	 0.142064904220013 
1068	 0.136162029214782 
1069	 0.126651350636907 
1070	 0.1271619138163 
1071	 0.159603887967615 
1072	 0.16252636035728 
1073	 0.140444439918897 
1074	 0.141205629766938 
1075	 0.14353881122387 
