Wavelength	A00205.asd
325	 3.91946051775666E-02 
326	 4.19767254339732E-02 
327	 4.19494951141461E-02 
328	 3.42066149668426E-02 
329	 3.06084054986627E-02 
330	 3.39599839300778E-02 
331	 3.41927055198404E-02 
332	 3.22884000102161E-02 
333	 3.02011116026142E-02 
334	 3.28730679336895E-02 
335	 3.86850733218459E-02 
336	 4.32959502534975E-02 
337	 4.26056817518311E-02 
338	 3.74118034620783E-02 
339	 3.78921036080076E-02 
340	 3.86174068699259E-02 
341	 3.53262685234291E-02 
342	 3.52307167691823E-02 
343	 3.83894183095714E-02 
344	 4.39036132539724E-02 
345	 4.13740518573801E-02 
346	 0.032482500073603 
347	 3.52725058929992E-02 
348	 3.88189690480024E-02 
349	 3.62836325046267E-02 
350	 3.72566432352872E-02 
351	 3.94569474228062E-02 
352	 3.75990606151457E-02 
353	 3.49362160291658E-02 
354	 3.34983526065767E-02 
355	 3.76092522211893E-02 
356	 3.95853087317356E-02 
357	 3.58170195075924E-02 
358	 3.68952084098867E-02 
359	 4.00928776574926E-02 
360	 3.95482948398447E-02 
361	 3.72381888489874E-02 
362	 3.50254763516781E-02 
363	 3.74933541700568E-02 
364	 3.88639824780548E-02 
365	 3.67351058433437E-02 
366	 3.70100970112242E-02 
367	 3.84400220419297E-02 
368	 3.85849679291737E-02 
369	 3.82604275081528E-02 
370	 3.74930863381443E-02 
371	 0.03551950644962 
372	 3.52168916230354E-02 
373	 3.77005596339671E-02 
374	 3.85883762475653E-02 
375	 3.89302259847731E-02 
376	 4.08048807623156E-02 
377	 4.08028561815659E-02 
378	 3.87369312804161E-02 
379	 3.64820024426538E-02 
380	 3.52958026817499E-02 
381	 0.035777052955774 
382	 3.66426989814182E-02 
383	 3.74444547461171E-02 
384	 3.78036745977027E-02 
385	 3.81961848690825E-02 
386	 3.85013223853219E-02 
387	 3.81400891806329E-02 
388	 3.74324985511827E-02 
389	 3.66269996416015E-02 
390	 3.56967064899469E-02 
391	 3.63999391260882E-02 
392	 4.05649737741895E-02 
393	 4.08271878422393E-02 
394	 0.037773633124798 
395	 3.77484941015501E-02 
396	 3.84055160955822E-02 
397	 3.86400678000601E-02 
398	 3.80881299347543E-02 
399	 3.71956608119975E-02 
400	 3.64429055846899E-02 
401	 0.036551008129561 
402	 3.72183545690296E-02 
403	 3.74142878204012E-02 
404	 3.76178560572767E-02 
405	 3.80346848487584E-02 
406	 3.87442020837804E-02 
407	 3.92975993500337E-02 
408	 3.91597649225026E-02 
409	 3.86898773498212E-02 
410	 3.82564733099309E-02 
411	 3.86027027015825E-02 
412	 3.89046661392151E-02 
413	 3.88096001874473E-02 
414	 3.88426631304127E-02 
415	 3.88102929858456E-02 
416	 0.038407719151623 
417	 3.81234937307957E-02 
418	 3.81783138898556E-02 
419	 3.89535249237683E-02 
420	 3.92421120369543E-02 
421	 3.86109272608612E-02 
422	 3.91005362926657E-02 
423	 3.98708301380368E-02 
424	 3.93894882354308E-02 
425	 3.90458097017719E-02 
426	 3.92100542714594E-02 
427	 0.039856639815993 
428	 4.05050590581872E-02 
429	 4.07865388057854E-02 
430	 4.06168492528295E-02 
431	 4.02717556203226E-02 
432	 4.02295373880355E-02 
433	 3.99527430408148E-02 
434	 3.95287273955221E-02 
435	 3.97259983293483E-02 
436	 3.99819430669491E-02 
437	 3.99665747443904E-02 
438	 4.03929685579203E-02 
439	 4.08577582142258E-02 
440	 4.04374909354605E-02 
441	 4.01647376364584E-02 
442	 4.02917393539218E-02 
443	 4.04168401907655E-02 
444	 4.05345982348215E-02 
445	 4.06795432271588E-02 
446	 4.12524848350077E-02 
447	 4.19284124155672E-02 
448	 4.18804303414738E-02 
449	 4.16500834609056E-02 
450	 4.15201375567316E-02 
451	 4.18999725159718E-02 
452	 4.23006451400368E-02 
453	 4.22242975098805E-02 
454	 4.19420796963538E-02 
455	 0.041744212199627 
456	 4.22967508854994E-02 
457	 4.26249877815525E-02 
458	 0.042417903245088 
459	 4.25171348211806E-02 
460	 4.25874005946053E-02 
461	 4.21775780966377E-02 
462	 4.23750261719291E-02 
463	 4.29323928818495E-02 
464	 0.042243455383228 
465	 4.18297998916722E-02 
466	 4.23891556003352E-02 
467	 4.28466792854695E-02 
468	 0.043001251541283 
469	 4.27537940500474E-02 
470	 4.26809285855395E-02 
471	 4.29397533546374E-02 
472	 4.35413893562031E-02 
473	 4.36392208841484E-02 
474	 4.28507917789475E-02 
475	 4.27267207748083E-02 
476	 4.31687919333154E-02 
477	 4.36726659203381E-02 
478	 4.33308388080898E-02 
479	 0.042380901815287 
480	 4.30270596425677E-02 
481	 4.39556260522131E-02 
482	 0.044070135097108 
483	 4.40004220105491E-02 
484	 4.39321359444466E-02 
485	 4.41154074156021E-02 
486	 4.39839678233617E-02 
487	 4.35220474594876E-02 
488	 4.38252590544487E-02 
489	 4.41016244465609E-02 
490	 4.35350965750797E-02 
491	 4.30788279455828E-02 
492	 4.31697967242258E-02 
493	 4.45569802562141E-02 
494	 4.54557314416147E-02 
495	 4.51331948580903E-02 
496	 4.45681835230206E-02 
497	 4.42007551238505E-02 
498	 4.44503497207365E-02 
499	 4.50293832658934E-02 
500	 4.56078323171434E-02 
501	 0.045379036512691 
502	 4.52353640771034E-02 
503	 4.56791602416683E-02 
504	 4.60653307387895E-02 
505	 4.63331445490589E-02 
506	 4.65338714274719E-02 
507	 4.66216131326479E-02 
508	 4.67002342057417E-02 
509	 4.71996170654691E-02 
510	 4.77088027303588E-02 
511	 0.047899259246141 
512	 4.79960300394427E-02 
513	 4.81825716824848E-02 
514	 4.88028088975301E-02 
515	 4.94064287456161E-02 
516	 4.98046772841538E-02 
517	 4.99970524514556E-02 
518	 5.02441778356828E-02 
519	 5.08042216456165E-02 
520	 5.11856606218713E-02 
521	 0.051489212976882 
522	 0.052322679660429 
523	 5.29245739605606E-02 
524	 5.30661761958894E-02 
525	 5.37914638714525E-02 
526	 5.44864840006501E-02 
527	 5.41227962835714E-02 
528	 5.44243811391754E-02 
529	 5.54506229783161E-02 
530	 5.58042034312108E-02 
531	 5.60101807273172E-02 
532	 5.64170513390384E-02 
533	 5.68325475482794E-02 
534	 5.72051975869408E-02 
535	 5.74947131009045E-02 
536	 5.76462810541627E-02 
537	 5.77275105358842E-02 
538	 5.80830532585502E-02 
539	 5.85879849418939E-02 
540	 5.90754940252996E-02 
541	 5.91392762331481E-02 
542	 5.89560643083413E-02 
543	 5.91875000823687E-02 
544	 5.95662520385025E-02 
545	 5.99636362910717E-02 
546	 6.02638706763676E-02 
547	 6.05089734207672E-02 
548	 6.07740188235144E-02 
549	 6.08271698445824E-02 
550	 0.060800800759197 
551	 6.13066609801135E-02 
552	 6.19200246749108E-02 
553	 6.23111790449149E-02 
554	 6.21581736633166E-02 
555	 6.18468498062901E-02 
556	 6.21709201840867E-02 
557	 6.24829718431586E-02 
558	 6.26040732390134E-02 
559	 6.27287722221928E-02 
560	 6.27952821108073E-02 
561	 6.27573044261356E-02 
562	 6.28229695338374E-02 
563	 6.29835264936647E-02 
564	 6.31259725171053E-02 
565	 6.32053353281944E-02 
566	 0.063148647313355 
567	 6.27240162439073E-02 
568	 6.22333749068627E-02 
569	 6.20770656936325E-02 
570	 6.21780515542149E-02 
571	 6.24201632791402E-02 
572	 6.25252951192793E-02 
573	 6.24214868814275E-02 
574	 6.21011862805526E-02 
575	 6.19191467327203E-02 
576	 6.18666292543607E-02 
577	 6.18235745157791E-02 
578	 6.18379654645215E-02 
579	 6.18084849419108E-02 
580	 0.061256695464417 
581	 6.07881502004321E-02 
582	 6.09305089492469E-02 
583	 6.12475365137963E-02 
584	 6.14375638222335E-02 
585	 6.08997919452374E-02 
586	 6.06678770557188E-02 
587	 6.10457819063113E-02 
588	 6.10438334198765E-02 
589	 6.07137553704344E-02 
590	 6.02609148899068E-02 
591	 5.99535996722086E-02 
592	 5.98878817464032E-02 
593	 6.00572810672695E-02 
594	 6.02782514887217E-02 
595	 6.04308071121526E-02 
596	 0.060585171150814 
597	 6.06808345918035E-02 
598	 6.06172312017107E-02 
599	 6.03731801261186E-02 
600	 5.99968350382939E-02 
601	 5.96471398878393E-02 
602	 5.95612339586121E-02 
603	 5.99049346652799E-02 
604	 6.02180163334193E-02 
605	 6.03034274263259E-02 
606	 5.98778508386967E-02 
607	 5.96317901403278E-02 
608	 5.97826291310341E-02 
609	 5.97181537736451E-02 
610	 5.94373082499377E-02 
611	 0.059015762823437 
612	 5.89419786957588E-02 
613	 5.91235062945143E-02 
614	 5.87847039778143E-02 
615	 5.85270636717582E-02 
616	 5.86452734400908E-02 
617	 5.83306031193158E-02 
618	 5.79076205357857E-02 
619	 5.81335147962671E-02 
620	 5.81538943769626E-02 
621	 5.78043437373116E-02 
622	 5.75615553150709E-02 
623	 5.73696979532141E-02 
624	 5.71759106979292E-02 
625	 5.70920525893361E-02 
626	 5.71179868395013E-02 
627	 5.71534531155028E-02 
628	 5.75184847660339E-02 
629	 5.81415743043508E-02 
630	 5.79008906019943E-02 
631	 5.72962315205122E-02 
632	 5.70716400578951E-02 
633	 0.057215760117825 
634	 5.75166880956634E-02 
635	 5.73023430693898E-02 
636	 5.68292699040613E-02 
637	 5.63313218442647E-02 
638	 5.63241172989461E-02 
639	 5.66068848134491E-02 
640	 5.67092839025607E-02 
641	 5.66820471645295E-02 
642	 5.64660541150081E-02 
643	 5.58316580251847E-02 
644	 0.055246804906744 
645	 0.055122023618908 
646	 5.52098304669404E-02 
647	 5.53047152989645E-02 
648	 5.50430191309411E-02 
649	 5.45967623655568E-02 
650	 5.41193815679199E-02 
651	 5.40033615081004E-02 
652	 0.05402754755753 
653	 5.38874164813177E-02 
654	 5.38596777044579E-02 
655	 5.38329482071255E-02 
656	 5.32341724984633E-02 
657	 0.052623193906989 
658	 5.23248416610528E-02 
659	 5.18266902453164E-02 
660	 5.13755572693175E-02 
661	 5.15194605499379E-02 
662	 5.09436011481149E-02 
663	 4.96814796506653E-02 
664	 0.049572127460013 
665	 4.97212220036099E-02 
666	 4.93504342498497E-02 
667	 4.89586813340816E-02 
668	 4.87340117635496E-02 
669	 4.90066551335739E-02 
670	 4.89271964490185E-02 
671	 4.83918704038137E-02 
672	 4.88348571059933E-02 
673	 4.93150198145953E-02 
674	 4.86761449929987E-02 
675	 4.85744118051366E-02 
676	 4.90341989351278E-02 
677	 4.89007838943849E-02 
678	 4.88839629664526E-02 
679	 4.93183577650502E-02 
680	 4.97984524093154E-02 
681	 5.00683487533415E-02 
682	 4.97848354776967E-02 
683	 5.00759747582485E-02 
684	 5.10503998767547E-02 
685	 5.17279970948003E-02 
686	 5.24493207837255E-02 
687	 5.34874219599645E-02 
688	 5.44607666058725E-02 
689	 5.53970974283732E-02 
690	 5.67086406071411E-02 
691	 5.80432135851573E-02 
692	 5.93852640443481E-02 
693	 6.10665154804946E-02 
694	 6.29081684608383E-02 
695	 6.46376841333527E-02 
696	 0.066585838133714 
697	 6.85942280953195E-02 
698	 0.070077609916271 
699	 7.18253128924571E-02 
700	 7.40879880076862E-02 
701	 7.59713964162797E-02 
702	 7.76143188727605E-02 
703	 7.93641538352404E-02 
704	 8.08002780304135E-02 
705	 8.20122779584386E-02 
706	 8.36067521752186E-02 
707	 8.49630238492462E-02 
708	 8.57736842018368E-02 
709	 8.70715978582444E-02 
710	 8.86764180393243E-02 
711	 0.089997317543923 
712	 0.091258492823372 
713	 9.24780476480219E-02 
714	 9.35495030176941E-02 
715	 9.45051371256888E-02 
716	 9.54367848588548E-02 
717	 9.64941332495953E-02 
718	 9.75745588263509E-02 
719	 9.80980138138674E-02 
720	 9.86311558457296E-02 
721	 9.93281553774092E-02 
722	 9.99844177699037E-02 
723	 0.100345266533474 
724	 0.100072603760084 
725	 0.100486658012889 
726	 0.101606453906306 
727	 0.102566194623434 
728	 0.103212774675894 
729	 0.103466342206709 
730	 0.103575639176848 
731	 0.103847334612892 
732	 0.104633282601693 
733	 0.105004880110232 
734	 0.104971252047363 
735	 0.105301000296372 
736	 0.105738296487563 
737	 0.106096741392297 
738	 0.106408311553089 
739	 0.106672745064733 
740	 0.106890941603796 
741	 0.107072832956182 
742	 0.107195796006364 
743	 0.10712319754618 
744	 0.107121255991144 
745	 0.107407392779021 
746	 0.107759015846909 
747	 0.108072447811058 
748	 0.10820026987757 
749	 0.108426027072244 
750	 0.108770225417426 
751	 0.108741376718315 
752	 0.108658783815767 
753	 0.108893043537914 
754	 0.109354994348127 
755	 0.109804262873276 
756	 0.109643399753968 
757	 0.109345208413482 
758	 0.109175675614206 
759	 0.109504410722101 
760	 0.110604056108963 
761	 0.111839875973727 
762	 0.111935272777994 
763	 0.111251759001183 
764	 0.111025275260962 
765	 0.11132389308464 
766	 0.111973705050518 
767	 0.11223821495557 
768	 0.112176350591983 
769	 0.111866997864543 
770	 0.111879696857589 
771	 0.112136627488251 
772	 0.111700022040333 
773	 0.111500906695698 
774	 0.112093792668837 
775	 0.112514408719834 
776	 0.112692873317757 
777	 0.112783939609923 
778	 0.112735246940845 
779	 0.112620885476811 
780	 0.112730650485148 
781	 0.112934269240174 
782	 0.113113209680484 
783	 0.113232406168912 
784	 0.113350154664389 
785	 0.113628497226861 
786	 0.113758830428173 
787	 0.113669779534624 
788	 0.113545829124896 
789	 0.113523916576809 
790	 0.113721531625647 
791	 0.114048879627432 
792	 0.114440340181826 
793	 0.114812726756353 
794	 0.115115360169969 
795	 0.115267352558548 
796	 0.115003448159171 
797	 0.114780716037847 
798	 0.115031084739287 
799	 0.114946100311188 
800	 0.114668958812272 
801	 0.115005290431278 
802	 0.115437632906568 
803	 0.115732436328167 
804	 0.115847872025417 
805	 0.115786825439075 
806	 0.11557778310576 
807	 0.115416831180078 
808	 0.115516478985724 
809	 0.116451611822019 
810	 0.116762822974878 
811	 0.115973859293706 
812	 0.115674349069642 
813	 0.115767948834716 
814	 0.115974354505999 
815	 0.117322716049438 
816	 0.119106786337704 
817	 0.118626088500747 
818	 0.117207110490695 
819	 0.11596459899703 
820	 0.117149857723538 
821	 0.118807679658291 
822	 0.118477011326227 
823	 0.118374081768155 
824	 0.118762109657855 
825	 0.119008271860938 
826	 0.118931695406625 
827	 0.118569193835366 
828	 0.118858193021962 
829	 0.11897529282851 
830	 0.117894071016992 
831	 0.118151340642983 
832	 0.119565679267686 
833	 0.120084924750274 
834	 0.119893026015813 
835	 0.119294763041793 
836	 0.11988630230001 
837	 0.120435993008849 
838	 0.119472635261572 
839	 0.119065621814595 
840	 0.119312963587998 
841	 0.119063081823926 
842	 0.119389849920231 
843	 0.120454448852982 
844	 0.120550637751282 
845	 0.120153120025541 
846	 0.119960365778442 
847	 0.119787141019761 
848	 0.119577981988967 
849	 0.119144532715456 
850	 0.119112433190136 
851	 0.119626064963522 
852	 0.119889280066603 
853	 0.119808352565974 
854	 0.119413522988202 
855	 0.119577216268134 
856	 0.120215538870893 
857	 0.120679800480697 
858	 0.121061026892237 
859	 0.12127082635755 
860	 0.120889346552863 
861	 0.120420559972584 
862	 0.1203493759419 
863	 0.120115214748323 
864	 0.120111579862643 
865	 0.121566220429607 
866	 0.12240119723902 
867	 0.121974489717598 
868	 0.121032662057933 
869	 0.12083230427266 
870	 0.122138374973091 
871	 0.122308568774505 
872	 0.121737329081982 
873	 0.122056126285643 
874	 0.121958516504914 
875	 0.1213648673981 
876	 0.121426975190796 
877	 0.121947696975061 
878	 0.12264477657798 
879	 0.122593593607223 
880	 0.12216832041356 
881	 0.122202974505331 
882	 0.122067112633133 
883	 0.121886368324508 
884	 0.122616668943209 
885	 0.123473299264132 
886	 0.123906888027178 
887	 0.123617880687593 
888	 0.122995340690158 
889	 0.122607696157223 
890	 0.122866242974871 
891	 0.12357631851984 
892	 0.123784018657839 
893	 0.12381051167231 
894	 0.123908998912187 
895	 0.124747842736922 
896	 0.125884692213014 
897	 0.126606052713378 
898	 0.12537987848455 
899	 0.123630911904908 
900	 0.125893886367289 
901	 0.125898498993659 
902	 0.122935198163422 
903	 0.12345810644287 
904	 0.125167364059179 
905	 0.126087084214976 
906	 0.126822405194449 
907	 0.127094860128391 
908	 0.126333249526775 
909	 0.125955061527184 
910	 0.126228399966411 
911	 0.126083586735277 
912	 0.127045380115989 
913	 0.129418966640617 
914	 0.129515365969363 
915	 0.128111096125954 
916	 0.126709021648384 
917	 0.125816605919565 
918	 0.124860281082846 
919	 0.121192819709697 
920	 0.120912044210865 
921	 0.124938070551376 
922	 0.126164906299155 
923	 0.125699656595114 
924	 0.124833187561941 
925	 0.123205732565127 
926	 0.122246863430687 
927	 0.125179673849608 
928	 0.126148313241924 
929	 0.123545864653023 
930	 0.121250994677657 
931	 0.121420538571484 
932	 0.124685775176307 
933	 0.119144860892303 
934	 0.111457361597177 
935	 0.113941825404662 
936	 0.118499705549346 
937	 0.122284924185169 
938	 0.123773282380786 
939	 0.123929120485837 
940	 0.123628623405757 
941	 0.125679861207199 
942	 0.123739745508489 
943	 0.114929155772478 
944	 0.116750380783494 
945	 0.125329743472613 
946	 0.131003282126517 
947	 0.129349031013118 
948	 0.123674232481681 
949	 0.129654739366076 
950	 0.133107462969791 
951	 0.129263304082973 
952	 0.127914087833168 
953	 0.127534829904876 
954	 0.126762785336406 
955	 0.134463518793292 
956	 0.14218115698792 
957	 0.132923337500047 
958	 0.123035340575806 
959	 0.117242183650767 
960	 0.114464013997762 
961	 0.115443385511289 
962	 0.120147595492187 
963	 0.12809250298282 
964	 0.133929606563924 
965	 0.133070563854847 
966	 0.129280485536212 
967	 0.126180305992224 
968	 0.129425804762409 
969	 0.127327104471711 
970	 0.120173481185654 
971	 0.121969990986358 
972	 0.124697175808869 
973	 0.124701219295998 
974	 0.129217568704749 
975	 0.133930069698213 
976	 0.133439692550204 
977	 0.129566207808837 
978	 0.125186141097816 
979	 0.125645125349096 
980	 0.126521509245656 
981	 0.126981420776397 
982	 0.129167220761685 
983	 0.131049946463438 
984	 0.131615556836228 
985	 0.132312591769227 
986	 0.133149198474726 
987	 0.13376658479075 
988	 0.130635151437313 
989	 0.125805650016837 
990	 0.124538589895433 
991	 0.123199100776347 
992	 0.121771245817631 
993	 0.123640385813468 
994	 0.126567374836889 
995	 0.128330347488499 
996	 0.123256106447127 
997	 0.120713861687136 
998	 0.128997300263461 
999	 0.129677487516063 
1000	 0.126897032754969 
1001	 0.133359397962832 
1002	 0.129440266794926 
1003	 0.118007305827455 
1004	 0.125954750809487 
1005	 0.130725726143495 
1006	 0.125133089085915 
1007	 0.122534720462264 
1008	 0.122529360198129 
1009	 0.123914348421467 
1010	 0.123139233362751 
1011	 0.122038980346099 
1012	 0.12371945311448 
1013	 0.123880553536551 
1014	 0.122696914492275 
1015	 0.12257950849335 
1016	 0.125739804630182 
1017	 0.130898269363346 
1018	 0.12977489481197 
1019	 0.128343488850748 
1020	 0.129627547534193 
1021	 0.1299750941715 
1022	 0.129138307849653 
1023	 0.127702334320585 
1024	 0.13211909884729 
1025	 0.135077166095727 
1026	 0.123175924157279 
1027	 0.121974974019177 
1028	 0.130816847204151 
1029	 0.127067856580559 
1030	 0.12256650704508 
1031	 0.122166625878168 
1032	 0.129888322655509 
1033	 0.130687074765991 
1034	 0.118586068234292 
1035	 0.121636854306811 
1036	 0.128980376023578 
1037	 0.127411857303674 
1038	 0.126208880446569 
1039	 0.126916331129707 
1040	 0.129448298941499 
1041	 0.131848919957662 
1042	 0.133799482992133 
1043	 0.137699282436511 
1044	 0.133511124826995 
1045	 0.122349910250847 
1046	 0.126923698226207 
1047	 0.118074191298114 
1048	 8.80430463107372E-02 
1049	 0.110373256998548 
1050	 0.139706764347287 
1051	 0.131865944583129 
1052	 0.12304633711885 
1053	 0.114863949275632 
1054	 0.102478961883206 
1055	 0.106299867021277 
1056	 0.121736728610013 
1057	 0.129221891493875 
1058	 0.114694549839701 
1059	 8.78383130196753E-02 
1060	 0.114312128103397 
1061	 0.133027281467054 
1062	 0.123687567534009 
1063	 0.130425214925462 
1064	 0.123340307353556 
1065	 9.12996510405544E-02 
1066	 0.114058895688988 
1067	 0.150498077019393 
1068	 0.151151051760997 
1069	 0.139325297183302 
1070	 0.129304652726535 
1071	 0.138587312453507 
1072	 0.143888248995848 
1073	 0.130767262808609 
1074	 7.37107819331359E-02 
1075	 7.76436965169934E-02 
