Wavelength	A00282.asd
325	 4.48188217839297E-02 
326	 4.10292996558105E-02 
327	 4.31132137775551E-02 
328	 3.93273872488642E-02 
329	 3.83504887019574E-02 
330	 4.17877979324567E-02 
331	 4.11485192226806E-02 
332	 3.93701041222141E-02 
333	 3.98795500949799E-02 
334	 4.29960470325711E-02 
335	 4.56866748509135E-02 
336	 4.04279969124378E-02 
337	 3.91659176380806E-02 
338	 4.35358842244978E-02 
339	 4.31468668732421E-02 
340	 3.95592322330682E-02 
341	 3.50700148615618E-02 
342	 3.60117806948679E-02 
343	 0.039398745391102 
344	 3.81313713378646E-02 
345	 0.035560425337343 
346	 3.37061335916516E-02 
347	 3.67002482360736E-02 
348	 0.039608513208075 
349	 3.92834856433228E-02 
350	 3.89638631138954E-02 
351	 3.83193360566409E-02 
352	 3.60391505219365E-02 
353	 3.48265429709305E-02 
354	 3.54503575184311E-02 
355	 3.81942739615683E-02 
356	 3.90046143425695E-02 
357	 3.62319590563079E-02 
358	 3.73359111566229E-02 
359	 3.98628326941588E-02 
360	 3.88850506797352E-02 
361	 3.70507784699218E-02 
362	 0.036024412418996 
363	 3.93629601745126E-02 
364	 0.040399936891299 
365	 0.036603374979157 
366	 3.62448921076476E-02 
367	 3.73375568970213E-02 
368	 0.036110494319932 
369	 3.45600567350757E-02 
370	 3.36574369978911E-02 
371	 3.51209748740174E-02 
372	 3.63360110964263E-02 
373	 3.59992243838906E-02 
374	 3.61757423393151E-02 
375	 3.64477842580198E-02 
376	 3.59789270692742E-02 
377	 3.53598994752955E-02 
378	 3.48250130464618E-02 
379	 3.43672287868524E-02 
380	 3.52168123820476E-02 
381	 3.74923704151758E-02 
382	 3.79683352101877E-02 
383	 3.72615030897571E-02 
384	 0.036635368130514 
385	 3.76652862116267E-02 
386	 3.93241087066748E-02 
387	 3.72979374730671E-02 
388	 3.58256466966197E-02 
389	 3.63650729896625E-02 
390	 3.52945822996834E-02 
391	 3.41053823920973E-02 
392	 3.48098888795887E-02 
393	 3.51826402025345E-02 
394	 3.50280432433734E-02 
395	 3.51986729183005E-02 
396	 3.56362423037739E-02 
397	 3.59366753073257E-02 
398	 3.40966302480603E-02 
399	 3.22864348420715E-02 
400	 3.26528626297797E-02 
401	 3.28335276212205E-02 
402	 3.28748225077162E-02 
403	 3.42736154176319E-02 
404	 3.46457362276588E-02 
405	 3.35078035822844E-02 
406	 3.45983445968021E-02 
407	 3.60000011639797E-02 
408	 0.035013401173323 
409	 3.43417468706261E-02 
410	 0.034309472971908 
411	 3.39413605396782E-02 
412	 3.39762737152404E-02 
413	 3.45856210364779E-02 
414	 3.46516982175586E-02 
415	 3.43569266986709E-02 
416	 3.40836120289749E-02 
417	 3.39339294480407E-02 
418	 3.39461545315921E-02 
419	 3.41267006181313E-02 
420	 3.41863049954366E-02 
421	 0.034026751913516 
422	 3.42054360880553E-02 
423	 3.44230892126789E-02 
424	 3.41544370422236E-02 
425	 3.42163797318446E-02 
426	 3.46796645698673E-02 
427	 3.49960824120559E-02 
428	 3.52958313290962E-02 
429	 3.55999777619535E-02 
430	 3.55080756122261E-02 
431	 3.50903746757147E-02 
432	 3.45584949920658E-02 
433	 3.39763284938926E-02 
434	 0.033555839198078 
435	 3.38413246033674E-02 
436	 0.034190914325217 
437	 0.034219551159698 
438	 3.46361153195797E-02 
439	 3.51301556099935E-02 
440	 3.49622109419064E-02 
441	 3.48333029132259E-02 
442	 3.49043690076513E-02 
443	 3.48680318167824E-02 
444	 3.48729016271781E-02 
445	 3.50491671031623E-02 
446	 3.54692805609108E-02 
447	 3.57932987984646E-02 
448	 3.51979439185173E-02 
449	 3.49739069179923E-02 
450	 0.035423047792897 
451	 3.56094506635766E-02 
452	 3.57210370934858E-02 
453	 3.59732631826307E-02 
454	 3.58854716107424E-02 
455	 3.56499611864439E-02 
456	 3.60749376773992E-02 
457	 3.62908089286042E-02 
458	 3.60791147042414E-02 
459	 3.64706821578645E-02 
460	 0.03675680476716 
461	 0.036040735248639 
462	 3.56253724347636E-02 
463	 3.56082562037428E-02 
464	 3.52259173660527E-02 
465	 3.51599001547929E-02 
466	 3.56616003340025E-02 
467	 3.59279656904261E-02 
468	 3.58613027203239E-02 
469	 3.54644383101054E-02 
470	 3.56610550042003E-02 
471	 3.63486794286931E-02 
472	 0.036218289635799 
473	 3.60962436238989E-02 
474	 0.036414974243972 
475	 3.61267485975992E-02 
476	 3.56443563506446E-02 
477	 0.035929851453302 
478	 3.59909807766776E-02 
479	 3.57139257095484E-02 
480	 0.035864679953029 
481	 0.036163949633251 
482	 3.63456335431572E-02 
483	 3.61901003752155E-02 
484	 3.59078379709337E-02 
485	 3.61172666667149E-02 
486	 3.61942642623563E-02 
487	 3.60272940616889E-02 
488	 3.63191113067894E-02 
489	 3.65455516024334E-02 
490	 3.61678204097515E-02 
491	 3.56551743883615E-02 
492	 3.54619700615622E-02 
493	 3.66005477960089E-02 
494	 3.73822449143197E-02 
495	 3.71476043600896E-02 
496	 3.69554917466064E-02 
497	 3.69432899701284E-02 
498	 3.71483612535289E-02 
499	 3.74093627496502E-02 
500	 3.75737201248598E-02 
501	 3.72475787034031E-02 
502	 3.72572246099196E-02 
503	 3.79756942222343E-02 
504	 3.81057087782106E-02 
505	 3.79670005959234E-02 
506	 3.83699453142838E-02 
507	 3.87677492391157E-02 
508	 3.90777334272359E-02 
509	 3.95840087154148E-02 
510	 4.00852176358392E-02 
511	 4.04363221584353E-02 
512	 4.09710276098804E-02 
513	 4.15715678773598E-02 
514	 4.17919502334534E-02 
515	 4.22550213128171E-02 
516	 4.30860687780657E-02 
517	 4.36400636943617E-02 
518	 4.40770286045329E-02 
519	 4.46102361784803E-02 
520	 4.49402813434926E-02 
521	 4.52441736152604E-02 
522	 4.61300402940125E-02 
523	 4.71126315471366E-02 
524	 4.79276345899564E-02 
525	 4.84573392461685E-02 
526	 0.04878579843754 
527	 4.90419135217472E-02 
528	 4.96326962200613E-02 
529	 5.04513416513719E-02 
530	 5.06818774045016E-02 
531	 5.11560590552689E-02 
532	 5.23347290014456E-02 
533	 5.30719314402198E-02 
534	 5.33174850715574E-02 
535	 5.33003686674048E-02 
536	 5.34537274548973E-02 
537	 0.053890034353252 
538	 0.054225762824197 
539	 5.46712391510759E-02 
540	 5.54076280316836E-02 
541	 5.57992034420192E-02 
542	 5.58275030393331E-02 
543	 5.57478723623905E-02 
544	 0.055934904439541 
545	 5.65088475163106E-02 
546	 5.70151085944823E-02 
547	 5.73498731653362E-02 
548	 5.74437613434768E-02 
549	 5.77115919356323E-02 
550	 5.81841914555365E-02 
551	 5.85776254964866E-02 
552	 5.89023753647564E-02 
553	 5.91427306775592E-02 
554	 5.91666321387539E-02 
555	 5.90875407827479E-02 
556	 5.91320236373071E-02 
557	 0.059232217193235 
558	 5.93692833873374E-02 
559	 5.95286763756134E-02 
560	 5.96672606586885E-02 
561	 5.97443417101781E-02 
562	 0.059761487494337 
563	 5.96869132838357E-02 
564	 5.94197749505076E-02 
565	 5.92081232098152E-02 
566	 5.91095684225282E-02 
567	 5.87775921205502E-02 
568	 5.82877149987762E-02 
569	 5.77766340222576E-02 
570	 5.76680364019156E-02 
571	 5.78434496859716E-02 
572	 5.75383945992747E-02 
573	 5.70707241189042E-02 
574	 5.66733186035281E-02 
575	 5.65995994455807E-02 
576	 5.66602879618023E-02 
577	 5.64516901834351E-02 
578	 5.61400263118719E-02 
579	 5.57667789607841E-02 
580	 5.52554472999162E-02 
581	 5.49556031950751E-02 
582	 5.51357735943122E-02 
583	 5.51830570364493E-02 
584	 5.50431376843541E-02 
585	 0.054895715378893 
586	 5.47941951110404E-02 
587	 5.47106146479235E-02 
588	 5.42728090029878E-02 
589	 5.37825490539946E-02 
590	 5.36819013476644E-02 
591	 5.34040936538158E-02 
592	 5.29834327150017E-02 
593	 5.29363396850025E-02 
594	 5.30475051473554E-02 
595	 5.31648717763529E-02 
596	 5.31378241978063E-02 
597	 5.30749515973697E-02 
598	 5.32399728926229E-02 
599	 5.30268374771368E-02 
600	 5.24559208629507E-02 
601	 5.24848067475312E-02 
602	 5.25762423255701E-02 
603	 0.05225385582088 
604	 5.21153532195173E-02 
605	 5.20882316839146E-02 
606	 5.16650423128597E-02 
607	 5.15176868525398E-02 
608	 0.051825171350437 
609	 5.19558269968462E-02 
610	 5.17076345981637E-02 
611	 5.09237698781903E-02 
612	 5.06573066739065E-02 
613	 5.08732025867679E-02 
614	 5.04730387732553E-02 
615	 5.00639127682364E-02 
616	 4.99820886339846E-02 
617	 4.98030081174122E-02 
618	 4.95063782996179E-02 
619	 4.91244525916457E-02 
620	 4.90645500996092E-02 
621	 4.93423950418217E-02 
622	 4.95378825010762E-02 
623	 4.92429756466961E-02 
624	 0.048203612353034 
625	 0.047911752080857 
626	 4.82190565717678E-02 
627	 4.78800620902577E-02 
628	 4.79303478094527E-02 
629	 4.85876788618885E-02 
630	 4.87565687882306E-02 
631	 4.84509689423235E-02 
632	 4.78318599613465E-02 
633	 4.79124652073042E-02 
634	 4.84630317476435E-02 
635	 4.78395516053719E-02 
636	 4.72043058744369E-02 
637	 0.047196300177556 
638	 4.70188920052313E-02 
639	 4.66867641239527E-02 
640	 4.64028079033847E-02 
641	 4.61948313332162E-02 
642	 4.60245737407699E-02 
643	 4.56828323775756E-02 
644	 4.51861426397548E-02 
645	 4.45655646627931E-02 
646	 4.39797325346794E-02 
647	 4.34562015360071E-02 
648	 4.29355722583383E-02 
649	 4.25525451232292E-02 
650	 4.23876499143292E-02 
651	 4.25376881559493E-02 
652	 4.26808505047525E-02 
653	 4.24400979625062E-02 
654	 4.23339758715354E-02 
655	 4.23045689385607E-02 
656	 4.17020319938499E-02 
657	 4.11558855467481E-02 
658	 4.10155291786263E-02 
659	 0.040738215588447 
660	 0.040371972884753 
661	 4.01218269936992E-02 
662	 3.95471406485707E-02 
663	 3.87836155672664E-02 
664	 3.89495359672601E-02 
665	 3.91277578752178E-02 
666	 3.85574338645259E-02 
667	 3.79682456836311E-02 
668	 3.75830048651595E-02 
669	 3.76654404332587E-02 
670	 3.74760938384278E-02 
671	 3.69422568993319E-02 
672	 3.74366738246878E-02 
673	 3.78957814928823E-02 
674	 3.70393608670007E-02 
675	 0.036738456758944 
676	 0.037170013003552 
677	 3.75331308340948E-02 
678	 3.76945397894958E-02 
679	 3.76180637191563E-02 
680	 3.77918184086479E-02 
681	 0.038143803134055 
682	 0.038444406322519 
683	 0.039061558670124 
684	 3.99646797522315E-02 
685	 0.040642583673669 
686	 4.14723510133956E-02 
687	 4.27518819823287E-02 
688	 4.38928070212142E-02 
689	 0.045033077021159 
690	 4.69279878792652E-02 
691	 0.048935494438829 
692	 5.09730026532587E-02 
693	 5.34539460137803E-02 
694	 5.62622866617145E-02 
695	 0.059122857639675 
696	 6.18264359722682E-02 
697	 6.44372228112683E-02 
698	 6.73343183808129E-02 
699	 7.03461231582165E-02 
700	 7.33949154853131E-02 
701	 7.68155174046993E-02 
702	 8.02760170660402E-02 
703	 8.33049404663381E-02 
704	 8.59898178762139E-02 
705	 8.85749191610316E-02 
706	 9.17155399574871E-02 
707	 0.094605026337588 
708	 9.68193010330269E-02 
709	 9.95253572765504E-02 
710	 0.102592802090784 
711	 0.105522293308839 
712	 0.108186717583852 
713	 0.11050671354286 
714	 0.112536740829215 
715	 0.114451511724603 
716	 0.116512317155095 
717	 0.118451178983499 
718	 0.120376407892732 
719	 0.122502205981539 
720	 0.124562810960589 
721	 0.126286893532368 
722	 0.127415830170471 
723	 0.128353370359649 
724	 0.129433207717103 
725	 0.131084312487418 
726	 0.13304769044649 
727	 0.134659994119877 
728	 0.135713118542623 
729	 0.136197672216319 
730	 0.136937312965501 
731	 0.137874354261674 
732	 0.13878199759417 
733	 0.139457398498407 
734	 0.140000311226212 
735	 0.14088938641475 
736	 0.141725434337348 
737	 0.142250575762509 
738	 0.142925966473058 
739	 0.143709057034958 
740	 0.144415252927754 
741	 0.144853725793334 
742	 0.145051477817503 
743	 0.145431913736209 
744	 0.145809390415975 
745	 0.146034709469043 
746	 0.146343756211671 
747	 0.146792047266917 
748	 0.147460793082904 
749	 0.1479153438863 
750	 0.148023334449295 
751	 0.148078613400593 
752	 0.148234602209793 
753	 0.14861809008963 
754	 0.148979666228159 
755	 0.149226844213345 
756	 0.149253495832903 
757	 0.149349365993111 
758	 0.149657391805208 
759	 0.149832380654768 
760	 0.150686977328774 
761	 0.153515344294077 
762	 0.15408736079417 
763	 0.152837441706317 
764	 0.153290341217072 
765	 0.153725025822466 
766	 0.153589004134866 
767	 0.153382515427776 
768	 0.153253693569832 
769	 0.153340364932679 
770	 0.15335269209236 
771	 0.153254526045846 
772	 0.153119380605827 
773	 0.153341947989756 
774	 0.154097652557504 
775	 0.154476990038579 
776	 0.154565923837621 
777	 0.154766976097803 
778	 0.155153223183904 
779	 0.155604458336359 
780	 0.155428199597138 
781	 0.155395199193741 
782	 0.156066281052818 
783	 0.156461773481828 
784	 0.156540736326497 
785	 0.15655489471619 
786	 0.156717371926123 
787	 0.157028876966756 
788	 0.157033276009152 
789	 0.156962198802763 
790	 0.1570483592765 
791	 0.157110178814824 
792	 0.157238737442731 
793	 0.157770766232093 
794	 0.158036914276221 
795	 0.157878460644698 
796	 0.157871742540333 
797	 0.157936153774349 
798	 0.157965741974071 
799	 0.158172711207117 
800	 0.158448024439476 
801	 0.158329394165705 
802	 0.15855130750688 
803	 0.159297647680488 
804	 0.159934297511459 
805	 0.160118553579272 
806	 0.159580088188464 
807	 0.158942940613978 
808	 0.158611625298977 
809	 0.159299252274352 
810	 0.159866726567245 
811	 0.15986950366039 
812	 0.16011919582309 
813	 0.160431448993116 
814	 0.160499706575379 
815	 0.161250707499744 
816	 0.162371879117836 
817	 0.162165710271916 
818	 0.161996835142925 
819	 0.1624373997494 
820	 0.163000772304379 
821	 0.163623610021146 
822	 0.164250434162286 
823	 0.16438720050711 
824	 0.164165815285802 
825	 0.164239845529086 
826	 0.164719826118565 
827	 0.165484632546872 
828	 0.165391753710082 
829	 0.164655785457177 
830	 0.163759269188491 
831	 0.164673597397549 
832	 0.166735368067844 
833	 0.166857067217887 
834	 0.16647057311803 
835	 0.166264774022232 
836	 0.166553821095786 
837	 0.166975965203506 
838	 0.167080003090344 
839	 0.16675588927847 
840	 0.166444861125429 
841	 0.167508420495651 
842	 0.168326033936689 
843	 0.168244855538915 
844	 0.168002440478318 
845	 0.167795808794243 
846	 0.167772140970868 
847	 0.167698878084594 
848	 0.167536347691807 
849	 0.167216664295579 
850	 0.167488839859867 
851	 0.168404001213734 
852	 0.168281662067124 
853	 0.167885107018478 
854	 0.168179569922091 
855	 0.168903690693593 
856	 0.169498705868353 
857	 0.168670641759127 
858	 0.168170399039214 
859	 0.168449534908287 
860	 0.168373211673851 
861	 0.168322279282341 
862	 0.168687130096375 
863	 0.168931704918095 
864	 0.169242804802891 
865	 0.170345571060309 
866	 0.171007765255635 
867	 0.17091614978821 
868	 0.17087227309586 
869	 0.170853456971981 
870	 0.170902837747222 
871	 0.171935756715277 
872	 0.173136323624342 
873	 0.172677073443759 
874	 0.172586572113316 
875	 0.173015619652555 
876	 0.171736368700108 
877	 0.171288105034156 
878	 0.17314300459074 
879	 0.173520549124184 
880	 0.173370099068409 
881	 0.175121012587918 
882	 0.175064771712746 
883	 0.173350856591208 
884	 0.173999575124385 
885	 0.17538826018185 
886	 0.176462476166389 
887	 0.176663546841487 
888	 0.176762148264273 
889	 0.177847863326191 
890	 0.177970556545111 
891	 0.17725765243563 
892	 0.177672726318643 
893	 0.177538751266784 
894	 0.176514184791798 
895	 0.177516874158784 
896	 0.179165879159207 
897	 0.179542722599205 
898	 0.179635900902468 
899	 0.180092470041261 
900	 0.182312154665514 
901	 0.181883626846011 
902	 0.178709450730966 
903	 0.179134593689238 
904	 0.180464365263214 
905	 0.180506581967825 
906	 0.18078280343705 
907	 0.180975485048271 
908	 0.180182916879205 
909	 0.179682464411785 
910	 0.180154126896962 
911	 0.182768425166285 
912	 0.183528182764096 
913	 0.180921995102684 
914	 0.181397845541351 
915	 0.183256334411927 
916	 0.183609676035902 
917	 0.184611936501372 
918	 0.185722937229836 
919	 0.184292509903202 
920	 0.184257465646554 
921	 0.185949825856076 
922	 0.183250278560829 
923	 0.181059209074949 
924	 0.183519285846301 
925	 0.182250698844805 
926	 0.178553630193336 
927	 0.178501065336634 
928	 0.179077614167731 
929	 0.179712207582489 
930	 0.182376890503328 
931	 0.184025967103385 
932	 0.182028075756412 
933	 0.178116397045299 
934	 0.176730627601208 
935	 0.183105965095052 
936	 0.185381512631599 
937	 0.183407306173304 
938	 0.184946256552774 
939	 0.185646408059494 
940	 0.184671274194403 
941	 0.184072704391546 
942	 0.183003477731141 
943	 0.181167161657346 
944	 0.181927017416706 
945	 0.184966420036775 
946	 0.189187908796381 
947	 0.185981676279992 
948	 0.179266220736831 
949	 0.190093823815199 
950	 0.192763661213671 
951	 0.180939662583105 
952	 0.185392597354702 
953	 0.191377761022752 
954	 0.184826741070014 
955	 0.183642943288323 
956	 0.18534110621409 
957	 0.18040062365755 
958	 0.177238359144824 
959	 0.177508251336383 
960	 0.179086227393856 
961	 0.181108264211214 
962	 0.18307605658636 
963	 0.186295981728809 
964	 0.187385305137827 
965	 0.183527801383547 
966	 0.181323368330721 
967	 0.180766625680629 
968	 0.179481158450918 
969	 0.176376061017319 
970	 0.17325902056885 
971	 0.178248198060331 
972	 0.1823016669923 
973	 0.181131364301904 
974	 0.181353995017622 
975	 0.184261877138526 
976	 0.189800458213015 
977	 0.185619297751218 
978	 0.177448995286876 
979	 0.183121802159933 
980	 0.185053193262097 
981	 0.180990055463863 
982	 0.182250151602192 
983	 0.184506608841181 
984	 0.185491339888232 
985	 0.186998729251742 
986	 0.188480154721886 
987	 0.18907553918442 
988	 0.186224273087138 
989	 0.182469596927748 
990	 0.183673787326215 
991	 0.184379090196238 
992	 0.183809526931448 
993	 0.185481881722999 
994	 0.185210534079265 
995	 0.181777801274404 
996	 0.180638505560713 
997	 0.181987764264242 
998	 0.185333471503954 
999	 0.188719825095516 
1000	 0.190351958720935 
1001	 0.188169855865573 
1002	 0.182867325879544 
1003	 0.177946619814409 
1004	 0.183609334156192 
1005	 0.188861246076408 
1006	 0.189027119091544 
1007	 0.186433042728978 
1008	 0.182944311299518 
1009	 0.180619386761877 
1010	 0.182460446524211 
1011	 0.185199076792766 
1012	 0.184006675235141 
1013	 0.187364036892016 
1014	 0.192516173454019 
1015	 0.188333164667748 
1016	 0.189424811141258 
1017	 0.196947016971813 
1018	 0.196109398043468 
1019	 0.191283337982694 
1020	 0.185712323116798 
1021	 0.183034725793025 
1022	 0.183200037344944 
1023	 0.185516349618046 
1024	 0.191087430753674 
1025	 0.193094037268558 
1026	 0.180664048904009 
1027	 0.181264900906288 
1028	 0.195044167672556 
1029	 0.200844880203944 
1030	 0.199832837018777 
1031	 0.194130006682551 
1032	 0.194460364232643 
1033	 0.195536366081807 
1034	 0.19414959538265 
1035	 0.194937655078401 
1036	 0.191559550492736 
1037	 0.178810873621459 
1038	 0.180018507906845 
1039	 0.191619262292349 
1040	 0.199382607068793 
1041	 0.200979454138355 
1042	 0.198474200214965 
1043	 0.200922291417905 
1044	 0.20187411517392 
1045	 0.200533337601457 
1046	 0.205532824928091 
1047	 0.198523455898838 
1048	 0.175714708554048 
1049	 0.192263747733104 
1050	 0.207299784188022 
1051	 0.184874602950812 
1052	 0.190526765930999 
1053	 0.212310382979104 
1054	 0.215427249607602 
1055	 0.206047176231146 
1056	 0.199984611165586 
1057	 0.232414741355217 
1058	 0.230657204203485 
1059	 0.190625152149569 
1060	 0.200173318063976 
1061	 0.201610974277421 
1062	 0.179348648186553 
1063	 0.197896339502069 
1064	 0.218403756451486 
1065	 0.212305433856323 
1066	 0.207782966675598 
1067	 0.214513429231941 
1068	 0.236594914759711 
1069	 0.221923319092966 
1070	 0.189298916928547 
1071	 0.189550160268688 
1072	 0.201213061834963 
1073	 0.207523454712771 
1074	 0.179156162435234 
1075	 0.16506647879206 
