Wavelength	A00278.asd
325	 2.77276823726457E-02 
326	 3.03683506337171E-02 
327	 4.39381516719486E-02 
328	 4.34483703420583E-02 
329	 4.29436454161769E-02 
330	 4.53208897805714E-02 
331	 0.036784453300487 
332	 3.08494697431622E-02 
333	 4.03651022979038E-02 
334	 4.21994660639863E-02 
335	 3.78849996062336E-02 
336	 3.96485687633474E-02 
337	 0.04416609163431 
338	 4.89295879522109E-02 
339	 4.85508726857716E-02 
340	 4.32617601960489E-02 
341	 3.47149745090067E-02 
342	 3.58412413508691E-02 
343	 0.042563854566375 
344	 4.41996838885344E-02 
345	 4.25823657087185E-02 
346	 3.95335367815664E-02 
347	 4.06494020580052E-02 
348	 4.20556452909512E-02 
349	 4.12899711735456E-02 
350	 4.13492253933022E-02 
351	 4.18294018958347E-02 
352	 4.15940945159664E-02 
353	 4.02925964019948E-02 
354	 3.89003194011718E-02 
355	 4.14472684159101E-02 
356	 4.22968323500206E-02 
357	 3.89598135661342E-02 
358	 4.03528188764482E-02 
359	 4.36514244313041E-02 
360	 4.31561035536422E-02 
361	 4.15746083808242E-02 
362	 4.04783054454009E-02 
363	 4.29469465926483E-02 
364	 4.42192676432467E-02 
365	 4.22398826411803E-02 
366	 4.14385045088438E-02 
367	 4.10987074798515E-02 
368	 3.96238559350425E-02 
369	 3.94794930064898E-02 
370	 0.040564693512993 
371	 4.05490687214005E-02 
372	 4.08529186450855E-02 
373	 4.19779430650054E-02 
374	 4.18328437831661E-02 
375	 4.16457161538814E-02 
376	 0.043318910795194 
377	 0.043200161137749 
378	 4.13607083030286E-02 
379	 4.08450528973551E-02 
380	 4.08875731098725E-02 
381	 4.11986592807341E-02 
382	 4.23637223591955E-02 
383	 4.30774528158567E-02 
384	 4.16472982926241E-02 
385	 4.21006546872982E-02 
386	 4.36475291830707E-02 
387	 4.06462266812386E-02 
388	 3.93647786015318E-02 
389	 4.16803731409298E-02 
390	 4.07300793716254E-02 
391	 3.95866945960793E-02 
392	 0.042351049201759 
393	 4.27839667278253E-02 
394	 4.10204333410797E-02 
395	 4.12698770252457E-02 
396	 4.19686888569745E-02 
397	 4.23673501129356E-02 
398	 4.23907727135838E-02 
399	 4.15056490206887E-02 
400	 3.93047474178004E-02 
401	 3.90128768688406E-02 
402	 4.02726650723017E-02 
403	 4.08823113482508E-02 
404	 4.08974360180847E-02 
405	 4.05075245054275E-02 
406	 4.10219198159092E-02 
407	 4.17646834586261E-02 
408	 4.17687342481765E-02 
409	 4.16329524299884E-02 
410	 4.13831451786501E-02 
411	 0.040536288332103 
412	 0.040486769867789 
413	 4.15929581446614E-02 
414	 4.16781413976748E-02 
415	 4.11865285701565E-02 
416	 4.09705475209472E-02 
417	 4.09267012093225E-02 
418	 4.10610090980044E-02 
419	 4.14631120028265E-02 
420	 4.14952151288511E-02 
421	 4.09585423543206E-02 
422	 4.10874283573937E-02 
423	 4.15471625766871E-02 
424	 4.16519707326524E-02 
425	 4.17411232587422E-02 
426	 4.18930963937488E-02 
427	 4.21586817792396E-02 
428	 4.21843488609134E-02 
429	 4.18401451150819E-02 
430	 4.20553122801527E-02 
431	 4.24787201383368E-02 
432	 4.23483441938061E-02 
433	 4.18131652500298E-02 
434	 0.041200462957148 
435	 4.14929441668981E-02 
436	 4.16457607136288E-02 
437	 4.11074489649553E-02 
438	 4.16926239021707E-02 
439	 4.26216673422201E-02 
440	 4.19808879220047E-02 
441	 4.16413484640524E-02 
442	 4.20181253046503E-02 
443	 0.042342872271934 
444	 0.042503350343161 
445	 4.24521791295483E-02 
446	 4.24920263026908E-02 
447	 4.26656610310963E-02 
448	 4.29628250649523E-02 
449	 4.31261220315469E-02 
450	 4.31023745785963E-02 
451	 4.31371589128393E-02 
452	 0.043264346537423 
453	 4.34847288449857E-02 
454	 4.34297818081831E-02 
455	 4.32315817500025E-02 
456	 4.34720046403244E-02 
457	 4.36187675475352E-02 
458	 4.35686001090932E-02 
459	 4.41289193872407E-02 
460	 4.45212496783469E-02 
461	 4.37953126659529E-02 
462	 4.34589298746016E-02 
463	 4.35569692447576E-02 
464	 4.29739966516937E-02 
465	 4.28783254968717E-02 
466	 4.37037718038769E-02 
467	 4.39528452589114E-02 
468	 4.38614790989682E-02 
469	 4.40301050108565E-02 
470	 4.42917849400463E-02 
471	 4.45315218515077E-02 
472	 4.44490136307615E-02 
473	 4.44587118622751E-02 
474	 4.47243586959729E-02 
475	 4.42049669585108E-02 
476	 4.35871027712296E-02 
477	 4.43305802845722E-02 
478	 4.44929248351211E-02 
479	 4.38543494543845E-02 
480	 4.39877536241523E-02 
481	 4.44681860053118E-02 
482	 4.48625414823698E-02 
483	 4.45840682148724E-02 
484	 4.40321506280563E-02 
485	 4.44459871700623E-02 
486	 4.47053954595579E-02 
487	 4.45438939966832E-02 
488	 4.48852578409523E-02 
489	 4.50655128307592E-02 
490	 4.44278877765917E-02 
491	 4.41460325711061E-02 
492	 4.44088900872149E-02 
493	 4.51723143574237E-02 
494	 4.53662785978647E-02 
495	 4.47279958858367E-02 
496	 4.49415747552951E-02 
497	 4.55173481817006E-02 
498	 4.56187054051151E-02 
499	 4.56689588968487E-02 
500	 4.57598808951004E-02 
501	 4.58473291366085E-02 
502	 4.61252359889796E-02 
503	 4.66104630889778E-02 
504	 4.64413964688369E-02 
505	 4.62098597881895E-02 
506	 4.70872715683129E-02 
507	 4.76260273269906E-02 
508	 4.76303391898537E-02 
509	 4.81023825204861E-02 
510	 4.85930445996669E-02 
511	 4.87496836373068E-02 
512	 4.89455979124754E-02 
513	 4.93590166979365E-02 
514	 5.03239422272845E-02 
515	 5.09533363323413E-02 
516	 5.10053785595348E-02 
517	 5.12136417326441E-02 
518	 5.15421094067243E-02 
519	 5.18969584801667E-02 
520	 5.25408055695821E-02 
521	 5.34098415999716E-02 
522	 5.43153498281107E-02 
523	 5.48456459838707E-02 
524	 5.49329573967015E-02 
525	 5.55779048946498E-02 
526	 5.63323157440001E-02 
527	 5.64021387404314E-02 
528	 5.67624530902019E-02 
529	 0.057530485141387 
530	 5.82556566363097E-02 
531	 5.87711331676625E-02 
532	 5.90179310215567E-02 
533	 5.96206536734869E-02 
534	 6.02267105690347E-02 
535	 0.05991205952244 
536	 6.00172328554718E-02 
537	 6.07833218668242E-02 
538	 6.11492857859381E-02 
539	 6.13829731512809E-02 
540	 6.17771025212633E-02 
541	 6.20420401348153E-02 
542	 6.21886033460902E-02 
543	 6.23539932989245E-02 
544	 6.26773262698687E-02 
545	 6.31761095152197E-02 
546	 6.35626865612263E-02 
547	 6.37331339777171E-02 
548	 6.35959534597113E-02 
549	 6.37043534065693E-02 
550	 6.41359084177699E-02 
551	 6.46412054821265E-02 
552	 6.49880865047417E-02 
553	 6.50316892225066E-02 
554	 6.49334301841287E-02 
555	 6.49158377215434E-02 
556	 0.065338510825168 
557	 6.57121265742873E-02 
558	 6.58741005743799E-02 
559	 6.59321218976761E-02 
560	 0.065934419536463 
561	 6.59235742740485E-02 
562	 6.58463757336463E-02 
563	 0.065757872694914 
564	 6.58256809081998E-02 
565	 6.58436411704118E-02 
566	 6.57297131472456E-02 
567	 6.55783380456012E-02 
568	 6.53840354385055E-02 
569	 6.51298670244507E-02 
570	 6.49938119738614E-02 
571	 6.49996006376835E-02 
572	 6.50938604183311E-02 
573	 6.49865282532712E-02 
574	 6.45640395107406E-02 
575	 0.064523603912136 
576	 6.46147492589731E-02 
577	 6.41925555980025E-02 
578	 6.38831107456795E-02 
579	 6.38157886170165E-02 
580	 0.063652338527497 
581	 6.33978686624097E-02 
582	 6.31011407479662E-02 
583	 6.32513727019381E-02 
584	 6.36267495452351E-02 
585	 6.34532524196526E-02 
586	 6.31723399900369E-02 
587	 6.29367954579688E-02 
588	 6.25807112962196E-02 
589	 6.23002358566118E-02 
590	 6.23609792310009E-02 
591	 6.21474323932948E-02 
592	 6.17175098225565E-02 
593	 6.17202022405268E-02 
594	 6.19107734775857E-02 
595	 6.21074112117783E-02 
596	 6.20233718272519E-02 
597	 6.19432333010524E-02 
598	 6.24847108108523E-02 
599	 6.24730874343137E-02 
600	 6.17896584876252E-02 
601	 6.16102535014702E-02 
602	 0.061667455560608 
603	 6.16759049748597E-02 
604	 0.061619958244744 
605	 6.14668622261102E-02 
606	 6.11124918963357E-02 
607	 0.061032926078365 
608	 6.13215648517278E-02 
609	 6.12541239372738E-02 
610	 6.08877214313448E-02 
611	 6.03894665915424E-02 
612	 6.03732605326957E-02 
613	 6.06940663955371E-02 
614	 6.03026993994819E-02 
615	 5.98885565556008E-02 
616	 5.98345574167839E-02 
617	 5.96009769075953E-02 
618	 5.92724286920565E-02 
619	 5.91066486667759E-02 
620	 5.89674872095293E-02 
621	 5.88817919911367E-02 
622	 5.91988451207492E-02 
623	 0.059236704907654 
624	 5.84677874022179E-02 
625	 5.84806016415793E-02 
626	 5.90729487668806E-02 
627	 5.89162516748139E-02 
628	 5.87858482080797E-02 
629	 5.89287199180723E-02 
630	 5.90361388094184E-02 
631	 5.89989594831668E-02 
632	 5.87230319217743E-02 
633	 5.88840844067146E-02 
634	 5.93183612337355E-02 
635	 5.89456433081374E-02 
636	 0.05850036402349 
637	 5.83970190040256E-02 
638	 0.058227919502198 
639	 5.79192578648316E-02 
640	 5.74070831445723E-02 
641	 0.057175669012938 
642	 5.72471628532613E-02 
643	 5.69931138544458E-02 
644	 5.65747848602965E-02 
645	 5.61567658350996E-02 
646	 5.57595031132432E-02 
647	 0.055405301916822 
648	 5.51055202581679E-02 
649	 0.054898822159281 
650	 5.47607289435289E-02 
651	 5.44412524696707E-02 
652	 0.054169768240108 
653	 5.42337716107132E-02 
654	 5.42995133832984E-02 
655	 5.42451920888405E-02 
656	 5.40228373513435E-02 
657	 5.35861639068301E-02 
658	 5.29808121181652E-02 
659	 5.24503568332419E-02 
660	 5.20739254272561E-02 
661	 5.19765165182169E-02 
662	 5.13592363254778E-02 
663	 5.02958014897371E-02 
664	 5.01536008352333E-02 
665	 5.01777096162194E-02 
666	 4.97232985977837E-02 
667	 4.93418367581473E-02 
668	 4.90834422504924E-02 
669	 4.89029583759448E-02 
670	 4.83643315164878E-02 
671	 4.75815644043132E-02 
672	 4.81680498974898E-02 
673	 4.89974168561214E-02 
674	 4.86717538820668E-02 
675	 4.82750699498245E-02 
676	 4.81447164385543E-02 
677	 4.85416456835234E-02 
678	 0.048887965495683 
679	 4.89000824907108E-02 
680	 4.90127874629557E-02 
681	 4.93139842035718E-02 
682	 4.98572912897551E-02 
683	 5.04126728858427E-02 
684	 5.09257425415241E-02 
685	 5.14610447399214E-02 
686	 5.23748138337199E-02 
687	 5.39380167031477E-02 
688	 5.53862565513296E-02 
689	 5.65759057897391E-02 
690	 5.77906402019651E-02 
691	 5.94951359941627E-02 
692	 6.17664844378824E-02 
693	 6.39051601736405E-02 
694	 6.60847910238001E-02 
695	 6.84251238145327E-02 
696	 7.06773554788061E-02 
697	 7.28909561909536E-02 
698	 7.54465103237006E-02 
699	 7.78335713895259E-02 
700	 7.98396909059573E-02 
701	 8.20671652755322E-02 
702	 8.46077834360665E-02 
703	 8.74922060552707E-02 
704	 8.97923128550406E-02 
705	 9.15076431991751E-02 
706	 9.33773149841716E-02 
707	 9.54833394807945E-02 
708	 9.77771946234928E-02 
709	 9.92324634545206E-02 
710	 0.100507006583343 
711	 0.103133220454338 
712	 0.105315890833211 
713	 0.106651460227816 
714	 0.108099241502152 
715	 0.109529758952944 
716	 0.110860039863975 
717	 0.111892626691933 
718	 0.112950630183448 
719	 0.115064140703688 
720	 0.116574414507476 
721	 0.1170715444252 
722	 0.117986363279409 
723	 0.118814796022622 
724	 0.118826532726394 
725	 0.119697210143662 
726	 0.121292663626406 
727	 0.122134196520062 
728	 0.122779473867745 
729	 0.123459427693359 
730	 0.12384111974837 
731	 0.124294205161624 
732	 0.125344610806929 
733	 0.126124145413218 
734	 0.126526114357687 
735	 0.126828711960008 
736	 0.127369128460481 
737	 0.128255884027962 
738	 0.128410484284285 
739	 0.128199781175182 
740	 0.128567985446097 
741	 0.129149928173578 
742	 0.129771724920355 
743	 0.130206878169687 
744	 0.130377231625305 
745	 0.13027415634412 
746	 0.130454576872817 
747	 0.130914643489783 
748	 0.131418524112043 
749	 0.131769174139804 
750	 0.131889749408108 
751	 0.131923182043591 
752	 0.131995940011712 
753	 0.132225925873836 
754	 0.132517622415803 
755	 0.132816970262598 
756	 0.13305718608958 
757	 0.133201874015415 
758	 0.133287427407916 
759	 0.133655910609415 
760	 0.134666674792531 
761	 0.136028921486914 
762	 0.136043654741302 
763	 0.135257945486619 
764	 0.135592542412725 
765	 0.136223720321418 
766	 0.13671016061096 
767	 0.136661999251337 
768	 0.136363510116839 
769	 0.136122551984323 
770	 0.136276724273869 
771	 0.136712710077981 
772	 0.136669313664281 
773	 0.136478108391373 
774	 0.136406693099464 
775	 0.136695394283181 
776	 0.137147220082475 
777	 0.137341701928656 
778	 0.137592944613847 
779	 0.137940053920586 
780	 0.138195585533318 
781	 0.138295366578899 
782	 0.138252270242792 
783	 0.138716273056764 
784	 0.139411500279016 
785	 0.139537367580057 
786	 0.139575032381682 
787	 0.139616766074067 
788	 0.139345443030525 
789	 0.139057337601404 
790	 0.139069435763417 
791	 0.13961723081821 
792	 0.14042170071279 
793	 0.140769035301204 
794	 0.140764488235183 
795	 0.140559183072977 
796	 0.140807816466146 
797	 0.141116463559934 
798	 0.141060881106403 
799	 0.140937930331085 
800	 0.140871592797169 
801	 0.141003736235919 
802	 0.141315163585745 
803	 0.141717332058418 
804	 0.141751247734859 
805	 0.14192582194568 
806	 0.142761378517325 
807	 0.142737550221763 
808	 0.1420882755716 
809	 0.142378050585353 
810	 0.142864473024354 
811	 0.143184458308394 
812	 0.143131457720674 
813	 0.142732447139226 
814	 0.142102936077776 
815	 0.142595970292417 
816	 0.143989571667036 
817	 0.144424930659291 
818	 0.144482216544922 
819	 0.144449484282402 
820	 0.144438428607118 
821	 0.14477763611096 
822	 0.145798770896801 
823	 0.146185381922891 
824	 0.145965878514634 
825	 0.146216656359301 
826	 0.146370131662587 
827	 0.146348135023089 
828	 0.147218673956842 
829	 0.147581494037135 
830	 0.145759584348231 
831	 0.145707018427729 
832	 0.147430877812092 
833	 0.148500827557886 
834	 0.148363749768825 
835	 0.147124703180765 
836	 0.147279528002521 
837	 0.148057730122373 
838	 0.148335763881827 
839	 0.148165692895731 
840	 0.147773859674146 
841	 0.14776732212446 
842	 0.14815432560527 
843	 0.148776839177548 
844	 0.148667978045357 
845	 0.148296326475843 
846	 0.148291903540834 
847	 0.148796813229209 
848	 0.149396586918987 
849	 0.148748904931957 
850	 0.148455717377058 
851	 0.148985428004159 
852	 0.148853794413929 
853	 0.148516148737744 
854	 0.148592219532912 
855	 0.149064253403308 
856	 0.149643135508062 
857	 0.14962840197725 
858	 0.149666818483426 
859	 0.149884021167146 
860	 0.149671131044837 
861	 0.149662383362473 
862	 0.150404584204889 
863	 0.150521862202622 
864	 0.150215535783149 
865	 0.150539041302291 
866	 0.151243013560564 
867	 0.151992909816341 
868	 0.151640244864373 
869	 0.151241452618185 
870	 0.151632412944987 
871	 0.151793148335705 
872	 0.15176761017977 
873	 0.151953947626617 
874	 0.151981405238314 
875	 0.151850340424807 
876	 0.151919603751938 
877	 0.152432218268188 
878	 0.153429355600497 
879	 0.153860151112026 
880	 0.153960135309964 
881	 0.15438758975263 
882	 0.154107446102115 
883	 0.153219075762331 
884	 0.152900157960654 
885	 0.153308579396158 
886	 0.154279275596308 
887	 0.153936378540014 
888	 0.153411053034183 
889	 0.15443293236992 
890	 0.155226944646564 
891	 0.155415210150673 
892	 0.155129722925557 
893	 0.155160251188451 
894	 0.155820040040713 
895	 0.156098100535911 
896	 0.156721511655505 
897	 0.158425197116207 
898	 0.157712914948453 
899	 0.155703728710542 
900	 0.157126533049584 
901	 0.157832241708335 
902	 0.156971941251659 
903	 0.157074479553725 
904	 0.157655981834052 
905	 0.158186686732022 
906	 0.15775951070066 
907	 0.157455552164016 
908	 0.159495942835869 
909	 0.159762979688369 
910	 0.157991939243651 
911	 0.158004052577175 
912	 0.159113000509889 
913	 0.160559269558828 
914	 0.160043207748795 
915	 0.159547857804152 
916	 0.161646332174824 
917	 0.162304480825133 
918	 0.160976681730404 
919	 0.158187241243172 
920	 0.157608986362239 
921	 0.159694225243218 
922	 0.158745783076852 
923	 0.158128562418255 
924	 0.160663889855039 
925	 0.15982135502486 
926	 0.156801624845743 
927	 0.156790568059161 
928	 0.156399273981354 
929	 0.155031010028633 
930	 0.155141157633144 
931	 0.157220435424456 
932	 0.160665370698508 
933	 0.157222909713455 
934	 0.152679793787359 
935	 0.157144652756014 
936	 0.160868510918376 
937	 0.162043652327126 
938	 0.163210492019623 
939	 0.159728290972835 
940	 0.153241452496612 
941	 0.156998654898257 
942	 0.160873287340636 
943	 0.158074270380682 
944	 0.159236942989169 
945	 0.162274047567962 
946	 0.161817889000174 
947	 0.163489861371429 
948	 0.167628766234492 
949	 0.17222924649577 
950	 0.168364497598576 
951	 0.1562682409151 
952	 0.159224223743014 
953	 0.165609440350528 
954	 0.163491495223216 
955	 0.157575917855305 
956	 0.153748334221864 
957	 0.161071957058395 
958	 0.167039775632052 
959	 0.166754129595841 
960	 0.155242693173676 
961	 0.150170663838437 
962	 0.157911263760622 
963	 0.161901316504002 
964	 0.161553033593945 
965	 0.158080906908787 
966	 0.157495644362122 
967	 0.15919727134296 
968	 0.159914472950804 
969	 0.157801198150124 
970	 0.154807402643014 
971	 0.160656256978912 
972	 0.165015611678493 
973	 0.163075359720178 
974	 0.163264897692379 
975	 0.164445931352186 
976	 0.164391177762416 
977	 0.161652796664787 
978	 0.158530465254639 
979	 0.160750408396402 
980	 0.160811819884219 
981	 0.158707202230501 
982	 0.163472477135841 
983	 0.165066448321471 
984	 0.159919922341279 
985	 0.162484269424682 
986	 0.168376755916668 
987	 0.171113987230854 
988	 0.165150749274119 
989	 0.157184766389417 
990	 0.162532636095569 
991	 0.166674578125049 
992	 0.166451056448291 
993	 0.166835465746039 
994	 0.166762130105451 
995	 0.165324266739019 
996	 0.159639425684122 
997	 0.15582476822801 
998	 0.15943687481816 
999	 0.159998792572597 
1000	 0.160242341610029 
1001	 0.168104924820648 
1002	 0.164538995103361 
1003	 0.152187730887595 
1004	 0.157248470889547 
1005	 0.159445227922578 
1006	 0.153407662612635 
1007	 0.15571050230625 
1008	 0.16059368386391 
1009	 0.162316114018688 
1010	 0.159347105438693 
1011	 0.153595356239235 
1012	 0.148587531554372 
1013	 0.15680044676257 
1014	 0.171564844433606 
1015	 0.170871809712414 
1016	 0.172440021165689 
1017	 0.177208989396999 
1018	 0.166160638461591 
1019	 0.156652059836321 
1020	 0.15806952439463 
1021	 0.163203020187623 
1022	 0.170535178513077 
1023	 0.17787192701552 
1024	 0.173099952173302 
1025	 0.162845641493525 
1026	 0.161260639649619 
1027	 0.163433550669143 
1028	 0.166127470959853 
1029	 0.162944058396677 
1030	 0.159902393993527 
1031	 0.15892593949861 
1032	 0.157609173111547 
1033	 0.15907226309422 
1034	 0.163513211689369 
1035	 0.15861145881326 
1036	 0.1561089454665 
1037	 0.167759082515815 
1038	 0.172824515004624 
1039	 0.171868964374516 
1040	 0.173047096303284 
1041	 0.171877141607798 
1042	 0.168855765301778 
1043	 0.168097542587698 
1044	 0.161367635298818 
1045	 0.152203952282379 
1046	 0.168795101275192 
1047	 0.166205981742888 
1048	 0.129125104081373 
1049	 0.150008703150674 
1050	 0.176168263176342 
1051	 0.158134083061723 
1052	 0.16943336460702 
1053	 0.187522615557121 
1054	 0.162402187849158 
1055	 0.15311204549995 
1056	 0.167723695451021 
1057	 0.194537136469087 
1058	 0.184214661775767 
1059	 0.138963273122677 
1060	 0.147271506908299 
1061	 0.152279735469232 
1062	 0.136082537214226 
1063	 0.15076080396776 
1064	 0.155972306724445 
1065	 0.13084942493225 
1066	 0.15548571763217 
1067	 0.176372776182982 
1068	 0.135484189471185 
1069	 0.132884161680787 
1070	 0.155956711095859 
1071	 0.149036287203466 
1072	 0.14840904635477 
1073	 0.150180802710577 
1074	 0.123895789309247 
1075	 0.124303355513958 
