Wavelength	A00261.asd
325	 0.031005026255564 
326	 3.32226276038528E-02 
327	 3.22391241038316E-02 
328	 3.39520151233558E-02 
329	 3.63968475734074E-02 
330	 3.86400896555467E-02 
331	 3.99197638569274E-02 
332	 4.14677485465019E-02 
333	 4.43146133438927E-02 
334	 4.56605885896674E-02 
335	 4.56929453542638E-02 
336	 4.61500507157966E-02 
337	 4.51665943225761E-02 
338	 4.27419840120625E-02 
339	 4.15451156656472E-02 
340	 3.90250434675465E-02 
341	 0.033919256755896 
342	 3.74076797095564E-02 
343	 4.43139106980035E-02 
344	 4.27076922727551E-02 
345	 0.038324740426473 
346	 0.034271248272935 
347	 3.59518894847835E-02 
348	 3.82318463614519E-02 
349	 3.78893723620531E-02 
350	 3.95168858046976E-02 
351	 4.08175265227719E-02 
352	 3.73535027422441E-02 
353	 3.44527338371548E-02 
354	 0.034281739266749 
355	 3.93439349877606E-02 
356	 4.23242976251839E-02 
357	 3.96597167957801E-02 
358	 4.06405696113609E-02 
359	 4.28348598713716E-02 
360	 4.09871377646281E-02 
361	 3.92124930325083E-02 
362	 3.87161234161911E-02 
363	 4.01686334823849E-02 
364	 4.00007221537932E-02 
365	 3.71830820906289E-02 
366	 0.038553947065399 
367	 4.04393063025883E-02 
368	 3.70960704019011E-02 
369	 0.036117550744891 
370	 3.78376608142876E-02 
371	 3.70206046240495E-02 
372	 3.69117426951599E-02 
373	 3.88449486291729E-02 
374	 3.93584803745291E-02 
375	 3.92009009856606E-02 
376	 3.98925428872904E-02 
377	 3.91872271259972E-02 
378	 3.72947664854544E-02 
379	 3.62483719422315E-02 
380	 3.67644995515744E-02 
381	 0.038857180215326 
382	 0.040071012602604 
383	 4.03199130154063E-02 
384	 3.98774141455165E-02 
385	 4.09217254113913E-02 
386	 4.22404494003267E-02 
387	 3.82728058100711E-02 
388	 3.65418828695146E-02 
389	 3.93193528815775E-02 
390	 3.82584875613052E-02 
391	 3.70058325126078E-02 
392	 4.04479180223886E-02 
393	 4.06653131178085E-02 
394	 3.79872760915234E-02 
395	 3.83888972318166E-02 
396	 3.83512870139884E-02 
397	 3.69014959915813E-02 
398	 3.69853460393477E-02 
399	 3.71482770463516E-02 
400	 0.03580175341762 
401	 3.60569464108897E-02 
402	 3.74024946328648E-02 
403	 3.72659938561175E-02 
404	 3.69708613181183E-02 
405	 3.70954428838843E-02 
406	 3.77360719386151E-02 
407	 3.82460018751713E-02 
408	 3.78489562761481E-02 
409	 3.74632377464208E-02 
410	 0.037363335175118 
411	 3.76612251766384E-02 
412	 3.80197247144532E-02 
413	 0.038193504067347 
414	 3.78904854514621E-02 
415	 3.72972991446928E-02 
416	 3.66813045940843E-02 
417	 3.65041412529018E-02 
418	 3.68683049072833E-02 
419	 0.037833050877089 
420	 3.81472716520293E-02 
421	 3.73465575655906E-02 
422	 3.74110194553715E-02 
423	 3.79473714691973E-02 
424	 3.80574519367898E-02 
425	 3.79760377855373E-02 
426	 3.79086387901365E-02 
427	 3.84457790191349E-02 
428	 3.89134299225408E-02 
429	 3.88793700324187E-02 
430	 3.87211156608403E-02 
431	 3.85674567214598E-02 
432	 3.85792762032058E-02 
433	 3.78865026046302E-02 
434	 3.67932421423105E-02 
435	 3.70681457125663E-02 
436	 3.77603124395251E-02 
437	 3.81852004643166E-02 
438	 3.83950426719786E-02 
439	 3.83931225233326E-02 
440	 3.81972927241963E-02 
441	 3.79901384006472E-02 
442	 3.79035941668127E-02 
443	 3.81404545677051E-02 
444	 3.83931922866974E-02 
445	 3.84338582173097E-02 
446	 3.87202931063311E-02 
447	 3.90435323795196E-02 
448	 3.87367010770732E-02 
449	 3.87171436351998E-02 
450	 3.91540554898468E-02 
451	 3.92130831870347E-02 
452	 3.91694199867779E-02 
453	 3.93225380754201E-02 
454	 3.92121510012215E-02 
455	 3.90216433767202E-02 
456	 3.95426903281232E-02 
457	 3.97317691769257E-02 
458	 3.93381568653166E-02 
459	 3.96283092937273E-02 
460	 4.00762724719601E-02 
461	 3.99483966194915E-02 
462	 3.96195745079646E-02 
463	 3.92647368350176E-02 
464	 3.90854737368325E-02 
465	 0.039202215589015 
466	 3.96088913123157E-02 
467	 3.98175676543976E-02 
468	 3.97065358194818E-02 
469	 0.039195174626959 
470	 3.92571034489418E-02 
471	 3.99083146821538E-02 
472	 4.02690852784618E-02 
473	 4.02267346792744E-02 
474	 3.98042521254377E-02 
475	 3.98699358317635E-02 
476	 4.01440391771841E-02 
477	 0.039913683467414 
478	 3.97170136623764E-02 
479	 3.97287952912172E-02 
480	 3.99962405137596E-02 
481	 4.02217276878142E-02 
482	 4.01696773930239E-02 
483	 4.00203613390355E-02 
484	 0.039920359391548 
485	 4.01513525644057E-02 
486	 0.040263021227721 
487	 0.04019282875998 
488	 4.06427178901877E-02 
489	 4.08448909304126E-02 
490	 4.00687593354934E-02 
491	 3.97834234558699E-02 
492	 4.01700380298112E-02 
493	 4.09650326658494E-02 
494	 4.13899652481486E-02 
495	 4.11410125007556E-02 
496	 4.08641283105613E-02 
497	 4.07958721847079E-02 
498	 4.11432668222239E-02 
499	 4.14788359338128E-02 
500	 4.16497200440596E-02 
501	 4.15191634908146E-02 
502	 0.041665573982929 
503	 4.23488626870894E-02 
504	 4.26903309943711E-02 
505	 4.27216952439901E-02 
506	 0.042678068027536 
507	 4.28705365351846E-02 
508	 4.33594362241427E-02 
509	 4.39303554528785E-02 
510	 4.44235830858408E-02 
511	 4.47332925190899E-02 
512	 4.51469633823081E-02 
513	 4.56046855295726E-02 
514	 4.57877767787412E-02 
515	 4.63249932420569E-02 
516	 4.72748144645978E-02 
517	 4.75927803497067E-02 
518	 4.78516043295974E-02 
519	 4.87107699671332E-02 
520	 4.92647858209407E-02 
521	 4.95723504218208E-02 
522	 5.03299577780642E-02 
523	 5.09633863310434E-02 
524	 5.12973240054566E-02 
525	 5.20413900626231E-02 
526	 5.27291803464765E-02 
527	 5.25956245565353E-02 
528	 5.28599305979429E-02 
529	 0.053645491652698 
530	 5.41852788414532E-02 
531	 5.48363497423244E-02 
532	 5.57430095164034E-02 
533	 5.59407406159912E-02 
534	 5.57597907036059E-02 
535	 5.60855062121626E-02 
536	 5.66656632285481E-02 
537	 5.73465728130448E-02 
538	 5.77003026845968E-02 
539	 5.80720397537567E-02 
540	 5.87638772091446E-02 
541	 5.87543625186215E-02 
542	 5.83264770928909E-02 
543	 5.87282673014838E-02 
544	 5.92656506175806E-02 
545	 5.96561732887943E-02 
546	 6.00044557614327E-02 
547	 6.03090967751853E-02 
548	 6.05644016008766E-02 
549	 0.060719890771339 
550	 6.08569312560448E-02 
551	 6.12645885783953E-02 
552	 6.17528724698618E-02 
553	 6.21442428822513E-02 
554	 6.20397860823163E-02 
555	 6.18087128123138E-02 
556	 0.062240376741988 
557	 0.062605680584288 
558	 6.26720949638588E-02 
559	 6.25433825153686E-02 
560	 6.23943982513989E-02 
561	 6.23864287446181E-02 
562	 6.24795781178959E-02 
563	 6.25925364518202E-02 
564	 6.25497735603392E-02 
565	 6.24433513264006E-02 
566	 6.23111719301148E-02 
567	 6.22045039756637E-02 
568	 0.06191994231032 
569	 6.12015366613131E-02 
570	 6.09286456179941E-02 
571	 6.11683196835297E-02 
572	 6.14007968894121E-02 
573	 6.11833884855699E-02 
574	 6.03868265908175E-02 
575	 6.04869487671796E-02 
576	 6.09441516973243E-02 
577	 6.03798236497416E-02 
578	 5.99804398434011E-02 
579	 5.99844943268984E-02 
580	 5.97420167388492E-02 
581	 5.94477431760025E-02 
582	 5.92909977200482E-02 
583	 0.05918673965662 
584	 5.91421672237218E-02 
585	 5.92556006996517E-02 
586	 5.91961557534565E-02 
587	 5.88282099808026E-02 
588	 5.82637125422064E-02 
589	 5.78741237497944E-02 
590	 5.81171729496264E-02 
591	 5.80522607219194E-02 
592	 5.76550626305478E-02 
593	 5.76262069210056E-02 
594	 5.77327982675836E-02 
595	 5.78255144594331E-02 
596	 5.77947257159891E-02 
597	 5.78009703963509E-02 
598	 0.058201525910678 
599	 5.80644630888607E-02 
600	 5.73463692903332E-02 
601	 5.71977268371666E-02 
602	 5.72792670396736E-02 
603	 5.72564530017129E-02 
604	 5.73524645818231E-02 
605	 5.74263172817266E-02 
606	 5.70014709345676E-02 
607	 5.68256157981904E-02 
608	 5.70954497357306E-02 
609	 0.057036354410467 
610	 0.056610418579024 
611	 5.58749127753364E-02 
612	 5.57674114782558E-02 
613	 5.61794821440397E-02 
614	 5.58864109070548E-02 
615	 5.55741266681331E-02 
616	 5.56047907961725E-02 
617	 5.53866717661512E-02 
618	 5.49510994919934E-02 
619	 5.44594108028625E-02 
620	 5.42053996057168E-02 
621	 5.42594986540692E-02 
622	 5.45006140880209E-02 
623	 5.45100077119415E-02 
624	 5.39657835320066E-02 
625	 5.37199354151217E-02 
626	 5.37999585347695E-02 
627	 5.38444904981298E-02 
628	 0.053801986362324 
629	 5.36366521053502E-02 
630	 5.33531494272136E-02 
631	 0.053287285426384 
632	 5.38303725427832E-02 
633	 5.43335550018701E-02 
634	 5.45037218563314E-02 
635	 5.39938269355474E-02 
636	 5.35218039517818E-02 
637	 5.34860915250426E-02 
638	 5.32707883224643E-02 
639	 5.29108322001686E-02 
640	 5.26175312186755E-02 
641	 5.22412340430358E-02 
642	 5.17853423146279E-02 
643	 5.13775688968117E-02 
644	 5.11670580758171E-02 
645	 5.12393664768595E-02 
646	 5.10357312628694E-02 
647	 5.05043838578139E-02 
648	 4.97597152238228E-02 
649	 4.93232269481477E-02 
650	 4.93247208644044E-02 
651	 4.89921761062861E-02 
652	 4.86327932110323E-02 
653	 4.86815315859866E-02 
654	 4.91544092526546E-02 
655	 4.95833900093281E-02 
656	 4.82612124854102E-02 
657	 4.71726237868764E-02 
658	 4.74005627191569E-02 
659	 0.047225973020712 
660	 4.68425871630582E-02 
661	 4.69462623194341E-02 
662	 4.61822753549637E-02 
663	 4.47028958247931E-02 
664	 4.48341280219395E-02 
665	 4.51993797266329E-02 
666	 4.46308404966862E-02 
667	 4.41533436087899E-02 
668	 4.39050735457636E-02 
669	 4.38436526360463E-02 
670	 4.35159344197323E-02 
671	 0.042942413975661 
672	 4.33127220152904E-02 
673	 4.38408881518962E-02 
674	 4.35513629173403E-02 
675	 4.34846049276996E-02 
676	 4.37447922967136E-02 
677	 4.39361363555778E-02 
678	 4.40091660679742E-02 
679	 4.39716746349674E-02 
680	 4.41540394239808E-02 
681	 4.44591915407164E-02 
682	 4.46395083769819E-02 
683	 4.53869811815118E-02 
684	 4.66444451461687E-02 
685	 4.74561591820982E-02 
686	 4.81690548879322E-02 
687	 4.90861779614471E-02 
688	 0.05020328000658 
689	 0.051463366128946 
690	 5.28697709218381E-02 
691	 5.48663101853582E-02 
692	 5.73978903367646E-02 
693	 5.92466412547565E-02 
694	 6.12190526110546E-02 
695	 6.40893621681087E-02 
696	 0.066755115272857 
697	 6.90909486669337E-02 
698	 7.14143156822604E-02 
699	 7.40068869285495E-02 
700	 7.69267734450764E-02 
701	 7.97231096928764E-02 
702	 8.23300769156133E-02 
703	 0.084755442421036 
704	 8.71132815920458E-02 
705	 8.94444204912398E-02 
706	 9.16448719872043E-02 
707	 9.38153678841502E-02 
708	 0.095989360991112 
709	 9.78459694051447E-02 
710	 9.96257520643422E-02 
711	 0.101873871381667 
712	 0.104001012164622 
713	 0.105822452624344 
714	 0.107485492396546 
715	 0.109012637309678 
716	 0.110507696079224 
717	 0.112023721777485 
718	 0.113588468549946 
719	 0.115010840632433 
720	 0.116339119441778 
721	 0.117489680013045 
722	 0.118237958532564 
723	 0.118922488645437 
724	 0.119848244443283 
725	 0.12112255786513 
726	 0.122492345651483 
727	 0.123456233435131 
728	 0.124093619377779 
729	 0.124515390637115 
730	 0.125157569948868 
731	 0.126034171254786 
732	 0.127079772231198 
733	 0.127821057957 
734	 0.128201622003091 
735	 0.128315889208141 
736	 0.128775887011813 
737	 0.129862462505785 
738	 0.130241114625427 
739	 0.130216254177136 
740	 0.13071551934387 
741	 0.131201284250997 
742	 0.131561529288877 
743	 0.132041865223699 
744	 0.132333560713422 
745	 0.132235732193021 
746	 0.132642234158307 
747	 0.133326679156974 
748	 0.133388544846007 
749	 0.133304681986827 
750	 0.133276955510447 
751	 0.133403593409367 
752	 0.133780084295596 
753	 0.13445969885697 
754	 0.13474145870752 
755	 0.134693373356024 
756	 0.135014670946339 
757	 0.1350416910179 
758	 0.134592819783996 
759	 0.134802821101252 
760	 0.136130684662747 
761	 0.137990242771554 
762	 0.138845637568765 
763	 0.138661812158169 
764	 0.138266232433961 
765	 0.138154251562575 
766	 0.138402316103787 
767	 0.138372726508325 
768	 0.13821902164804 
769	 0.138161343899161 
770	 0.138156116671254 
771	 0.138215022009541 
772	 0.138337221284751 
773	 0.138714656082703 
774	 0.139371340326646 
775	 0.13935333711446 
776	 0.139076769614896 
777	 0.139551532406144 
778	 0.139809702154514 
779	 0.139760685153502 
780	 0.140308158037541 
781	 0.140769684643121 
782	 0.140640247310226 
783	 0.140727318905205 
784	 0.141076123125254 
785	 0.141536414755884 
786	 0.141607584607522 
787	 0.141263128638281 
788	 0.141233127303822 
789	 0.141679258016609 
790	 0.142618751834118 
791	 0.142766517254733 
792	 0.142390123188291 
793	 0.142773183092402 
794	 0.143186030458206 
795	 0.143313409737687 
796	 0.142849322938533 
797	 0.142419328594344 
798	 0.142638920451974 
799	 0.142871122098932 
800	 0.142996439236134 
801	 0.142944179895974 
802	 0.143529346169557 
803	 0.14469525693455 
804	 0.144225375433954 
805	 0.14347578611757 
806	 0.144035421720405 
807	 0.144542638430366 
808	 0.144741896289171 
809	 0.144720743780169 
810	 0.144587975204337 
811	 0.144493243243243 
812	 0.144900134723829 
813	 0.145476860117608 
814	 0.145729801498431 
815	 0.145890809505385 
816	 0.146207847384157 
817	 0.147460040547422 
818	 0.147578375462036 
819	 0.146196503753027 
820	 0.146546104969548 
821	 0.147664389394579 
822	 0.148135908875622 
823	 0.148590094444019 
824	 0.14892705670952 
825	 0.148533668591547 
826	 0.148654281340098 
827	 0.14962361476816 
828	 0.149931851024216 
829	 0.149594411378846 
830	 0.148854954522378 
831	 0.148471564535844 
832	 0.148646196870975 
833	 0.149322181593628 
834	 0.15007691108785 
835	 0.150615407081292 
836	 0.150684791816185 
837	 0.150535183379938 
838	 0.150482378260436 
839	 0.150723658484209 
840	 0.151072021868573 
841	 0.150746863925051 
842	 0.151037290669351 
843	 0.15214256300151 
844	 0.151788017502654 
845	 0.151074961001888 
846	 0.15141432665659 
847	 0.15171068517244 
848	 0.151805417521438 
849	 0.151964009215483 
850	 0.151656499116438 
851	 0.150956067533206 
852	 0.151534801989918 
853	 0.152405591416587 
854	 0.152409644760882 
855	 0.153028902353232 
856	 0.153856474641144 
857	 0.153221269571257 
858	 0.152504149696378 
859	 0.152109590768831 
860	 0.15130974227977 
861	 0.151212677467138 
862	 0.152737945747136 
863	 0.153294801275842 
864	 0.153111169075231 
865	 0.154034911133408 
866	 0.154155557082646 
867	 0.153279979406887 
868	 0.153507629808935 
869	 0.154357402000602 
870	 0.155269370714676 
871	 0.155562938442515 
872	 0.155235617456623 
873	 0.154467371915805 
874	 0.15468377126397 
875	 0.155666627958951 
876	 0.154224166944412 
877	 0.154030494318334 
878	 0.157134143989508 
879	 0.157592607721277 
880	 0.156580329325874 
881	 0.157393411899721 
882	 0.156802416269332 
883	 0.155130468188533 
884	 0.15640467128713 
885	 0.157856435422276 
886	 0.157952068232354 
887	 0.157790350504778 
888	 0.157892715984087 
889	 0.15877324186957 
890	 0.159319420019974 
891	 0.159297102799545 
892	 0.158793368029961 
893	 0.158877740843656 
894	 0.159724873030216 
895	 0.158492511869574 
896	 0.157793757309492 
897	 0.160690803269157 
898	 0.161563476222397 
899	 0.160949438847318 
900	 0.163577464378938 
901	 0.164003972084962 
902	 0.161380864682187 
903	 0.159945997274322 
904	 0.160139150636013 
905	 0.16186806892585 
906	 0.161905849468132 
907	 0.161090792485182 
908	 0.161836381998351 
909	 0.1628102657445 
910	 0.163569729841232 
911	 0.163989922048333 
912	 0.163722355106558 
913	 0.163027309994586 
914	 0.164972736404015 
915	 0.166716396545121 
916	 0.164610681026286 
917	 0.163507302152975 
918	 0.163713245349148 
919	 0.16299598157464 
920	 0.162996193080395 
921	 0.163852640267252 
922	 0.163163817729648 
923	 0.163598906396844 
924	 0.167027866226976 
925	 0.164818391449176 
926	 0.160094097079391 
927	 0.163237537745998 
928	 0.163889787908782 
929	 0.160278818977173 
930	 0.162890599081902 
931	 0.166596536774628 
932	 0.166575625163572 
933	 0.161644358855675 
934	 0.157125126313806 
935	 0.16087036265866 
936	 0.1677658883324 
937	 0.172949272317641 
938	 0.168648902883715 
939	 0.163134389880495 
940	 0.159654928352665 
941	 0.159316217248409 
942	 0.158262887945554 
943	 0.154738327409111 
944	 0.159914581248528 
945	 0.169105741700754 
946	 0.173207291211142 
947	 0.170400761554848 
948	 0.164078089657437 
949	 0.167080333164839 
950	 0.169297563986928 
951	 0.166922707973623 
952	 0.164815383504171 
953	 0.162999094280214 
954	 0.161498145980963 
955	 0.163880464445223 
956	 0.167035300005185 
957	 0.164455488647983 
958	 0.164296885475969 
959	 0.166379693704458 
960	 0.162370065829198 
961	 0.160941101438077 
962	 0.165513859116831 
963	 0.170682763087881 
964	 0.172446285987256 
965	 0.168189052389898 
966	 0.168948678579691 
967	 0.170917604616376 
968	 0.162490502479383 
969	 0.159293440789852 
970	 0.163359655085396 
971	 0.164778745052751 
972	 0.165153537433809 
973	 0.165578174830443 
974	 0.166955817541512 
975	 0.17022752951092 
976	 0.175437639672588 
977	 0.16876420830547 
978	 0.157436735481851 
979	 0.16289879305512 
980	 0.166787426015383 
981	 0.165395008835313 
982	 0.165758848157147 
983	 0.167945635645453 
984	 0.171174299331769 
985	 0.170128659642816 
986	 0.169212281666304 
987	 0.172855292361862 
988	 0.169045415139603 
989	 0.161964282188856 
990	 0.164085935930957 
991	 0.167008000910182 
992	 0.167981988624882 
993	 0.166003137439954 
994	 0.165480394259897 
995	 0.167976913899939 
996	 0.168221778766077 
997	 0.168242095956823 
998	 0.16988791951427 
999	 0.16579843293172 
1000	 0.162645992073366 
1001	 0.173803485707306 
1002	 0.171546268161658 
1003	 0.157521362619044 
1004	 0.162054630064968 
1005	 0.169034248077756 
1006	 0.171087985785999 
1007	 0.165333645901972 
1008	 0.162441526696755 
1009	 0.169694610666116 
1010	 0.174353466914811 
1011	 0.173003392442755 
1012	 0.163900062961767 
1013	 0.161747518044931 
1014	 0.166969718703829 
1015	 0.172356262138247 
1016	 0.170747216374137 
1017	 0.16379088207059 
1018	 0.169622045840984 
1019	 0.176317585450275 
1020	 0.176943193682603 
1021	 0.172341298620381 
1022	 0.170016253538221 
1023	 0.176157390016329 
1024	 0.178538591188252 
1025	 0.17724464426237 
1026	 0.175914875749089 
1027	 0.17176517040422 
1028	 0.167749564985656 
1029	 0.175145131992902 
1030	 0.174165330752745 
1031	 0.162533925252646 
1032	 0.164160617086597 
1033	 0.165909576132245 
1034	 0.162567833442738 
1035	 0.180636968974135 
1036	 0.196368515493109 
1037	 0.185477843445819 
1038	 0.176862467459346 
1039	 0.178330562342673 
1040	 0.192963881327751 
1041	 0.194852609477993 
1042	 0.185309886075116 
1043	 0.188333047421489 
1044	 0.188611331288858 
1045	 0.183806442969571 
1046	 0.188770159200118 
1047	 0.182560504709166 
1048	 0.157926136054973 
1049	 0.157249791074461 
1050	 0.167381751976272 
1051	 0.172121341549383 
1052	 0.17712647603003 
1053	 0.177872938913054 
1054	 0.167858012115962 
1055	 0.169085490335631 
1056	 0.179708046190178 
1057	 0.184375848342234 
1058	 0.173031979932183 
1059	 0.150840406597746 
1060	 0.157628979938163 
1061	 0.171244515493299 
1062	 0.180444466781274 
1063	 0.176767831486593 
1064	 0.175493872381638 
1065	 0.187516976265367 
1066	 0.206806053441559 
1067	 0.207254869398116 
1068	 0.167733164113766 
1069	 0.17658152984846 
1070	 0.206332903047431 
1071	 0.180194769087049 
1072	 0.170510722331724 
1073	 0.173219942901728 
1074	 0.134645237489861 
1075	 0.129268929174505 
