Wavelength	A00309.asd
325	 5.96343264262366E-02 
326	 6.06087051538617E-02 
327	 7.00948502130235E-02 
328	 7.42297729182084E-02 
329	 7.56685926958673E-02 
330	 7.52437557906404E-02 
331	 7.21545539238008E-02 
332	 7.04986564115713E-02 
333	 7.40043943357187E-02 
334	 7.90853762546485E-02 
335	 8.26681905761137E-02 
336	 7.89420556490512E-02 
337	 7.95894819717974E-02 
338	 8.51679332394654E-02 
339	 8.08024099062837E-02 
340	 7.40292533165396E-02 
341	 7.16612790115019E-02 
342	 0.07275086153326 
343	 7.58969596013076E-02 
344	 7.95579832906023E-02 
345	 7.76994030291117E-02 
346	 7.16753136073831E-02 
347	 7.33299692163429E-02 
348	 7.59424293719169E-02 
349	 7.50315526728476E-02 
350	 0.074319661576894 
351	 7.39423335945285E-02 
352	 7.33629096345051E-02 
353	 7.25982415481251E-02 
354	 7.24577840855544E-02 
355	 7.63357800129832E-02 
356	 7.71888854423814E-02 
357	 7.19962809824692E-02 
358	 7.23102483167258E-02 
359	 0.075376922844837 
360	 7.50403740222884E-02 
361	 7.34232438455374E-02 
362	 7.21041493374601E-02 
363	 7.49395407572159E-02 
364	 7.60110370621508E-02 
365	 7.29657994226739E-02 
366	 7.23907094172767E-02 
367	 7.31759689879353E-02 
368	 7.29276692787525E-02 
369	 0.072471212876528 
370	 0.072139803555102 
371	 7.25570192744242E-02 
372	 7.28361033692111E-02 
373	 7.25470838925473E-02 
374	 7.22051043093923E-02 
375	 7.27041961273059E-02 
376	 7.50881174310774E-02 
377	 7.47411340565666E-02 
378	 7.19953416255412E-02 
379	 7.16710455055981E-02 
380	 7.17202347218936E-02 
381	 7.13369614721761E-02 
382	 7.20610939209937E-02 
383	 7.28284779874354E-02 
384	 0.072119623804963 
385	 7.27367431084874E-02 
386	 7.42284798116777E-02 
387	 7.32319859226335E-02 
388	 7.23770557612657E-02 
389	 7.26728556310582E-02 
390	 7.26188512368904E-02 
391	 7.22835326170338E-02 
392	 7.19011704728484E-02 
393	 7.15771333210068E-02 
394	 7.13537707636428E-02 
395	 7.12690149227167E-02 
396	 7.10589740998316E-02 
397	 0.070758922836862 
398	 7.12782757785342E-02 
399	 7.15577554320842E-02 
400	 7.05650522822283E-02 
401	 7.00091032999976E-02 
402	 7.02563060221861E-02 
403	 7.15978028510082E-02 
404	 7.21057921329229E-02 
405	 7.12955471432454E-02 
406	 7.17450140390179E-02 
407	 7.25225710216774E-02 
408	 7.22188424988934E-02 
409	 7.19409808375978E-02 
410	 7.18457494821384E-02 
411	 7.15869263732661E-02 
412	 7.16560205786438E-02 
413	 7.21526087533636E-02 
414	 7.22131940128098E-02 
415	 7.19791018923611E-02 
416	 7.17467050009753E-02 
417	 7.15938920822379E-02 
418	 7.16491013054562E-02 
419	 7.22945772059214E-02 
420	 7.24842151211534E-02 
421	 7.18193202105436E-02 
422	 7.18374250948784E-02 
423	 7.22133519459356E-02 
424	 7.22213307215656E-02 
425	 7.21887304117351E-02 
426	 7.22019764061242E-02 
427	 7.23240694613101E-02 
428	 7.23606292245128E-02 
429	 7.22322306574339E-02 
430	 7.23861562234985E-02 
431	 7.26643571331557E-02 
432	 7.27245419119375E-02 
433	 7.24977141233493E-02 
434	 7.21115365508328E-02 
435	 7.20613288143405E-02 
436	 7.20170463381418E-02 
437	 7.18264524017088E-02 
438	 7.22761506988845E-02 
439	 7.29351998839229E-02 
440	 7.28401740391588E-02 
441	 7.26230400873242E-02 
442	 7.25318765250624E-02 
443	 7.27672169658363E-02 
444	 0.072973632722656 
445	 7.28809635102606E-02 
446	 7.28855848972144E-02 
447	 7.29792995929571E-02 
448	 0.072970243299287 
449	 7.31386743337934E-02 
450	 7.34639236680882E-02 
451	 7.33876144853557E-02 
452	 7.31957586393659E-02 
453	 7.32076482418902E-02 
454	 7.34329313111817E-02 
455	 7.37655923475597E-02 
456	 7.39609521417616E-02 
457	 7.38058559886064E-02 
458	 7.33993335353034E-02 
459	 7.39037426167914E-02 
460	 7.44847716063371E-02 
461	 7.40715795332465E-02 
462	 0.073783533694507 
463	 7.37390234663153E-02 
464	 7.34450102520202E-02 
465	 7.32591630731275E-02 
466	 7.33744675457737E-02 
467	 7.37466207592114E-02 
468	 7.41155975240726E-02 
469	 7.41271812850999E-02 
470	 7.40956653420744E-02 
471	 7.41363038240318E-02 
472	 7.43854030204254E-02 
473	 7.43844307130455E-02 
474	 7.39121343346996E-02 
475	 7.36336962744539E-02 
476	 7.37306336658032E-02 
477	 7.43751189131193E-02 
478	 7.45317756176917E-02 
479	 7.41490698526102E-02 
480	 7.44613243480441E-02 
481	 7.48857444896081E-02 
482	 7.49072925137163E-02 
483	 7.44360027446637E-02 
484	 0.07394137457111 
485	 7.46361674196827E-02 
486	 7.49248553115522E-02 
487	 7.44830666580064E-02 
488	 7.50408937607929E-02 
489	 7.54576665230801E-02 
490	 0.074573670321533 
491	 7.42088362116889E-02 
492	 7.45355774286115E-02 
493	 7.49893053914826E-02 
494	 7.55774367098462E-02 
495	 7.61108033032968E-02 
496	 7.57143082304949E-02 
497	 0.07505154481994 
498	 7.50659413974285E-02 
499	 7.54831201609827E-02 
500	 7.60573920333865E-02 
501	 0.076140353486714 
502	 7.63749236912668E-02 
503	 7.70586436778868E-02 
504	 7.73039235319184E-02 
505	 7.73537131677685E-02 
506	 7.78114645530442E-02 
507	 7.80304684319275E-02 
508	 7.80363388359979E-02 
509	 7.86227708125742E-02 
510	 7.94156572679304E-02 
511	 8.00746341345314E-02 
512	 0.080458123283249 
513	 8.07402621074903E-02 
514	 8.14014310656151E-02 
515	 8.19839964219928E-02 
516	 8.24493339509887E-02 
517	 8.34795679690469E-02 
518	 8.46495854586683E-02 
519	 0.085444084849775 
520	 8.59485550798697E-02 
521	 8.64231278651188E-02 
522	 8.75538246421292E-02 
523	 8.84834848348255E-02 
524	 0.088936313970175 
525	 8.99313300540958E-02 
526	 9.09468606237973E-02 
527	 9.10941730476793E-02 
528	 9.15248945633765E-02 
529	 9.24107733178749E-02 
530	 9.32950997518033E-02 
531	 9.39770183018261E-02 
532	 9.43698173509857E-02 
533	 9.50444664338293E-02 
534	 9.57532634470187E-02 
535	 0.095817597712141 
536	 9.60691401751116E-02 
537	 9.66950535072612E-02 
538	 9.71983294402204E-02 
539	 9.76790991882531E-02 
540	 9.82323497067858E-02 
541	 9.84800637082601E-02 
542	 9.85314227301223E-02 
543	 9.88422589486419E-02 
544	 9.92962341515839E-02 
545	 9.97978053887387E-02 
546	 0.100029617148731 
547	 0.100174243296986 
548	 0.100506743269958 
549	 0.100770583071196 
550	 0.101052768223019 
551	 0.101925784025124 
552	 0.10248199180866 
553	 0.102229422759305 
554	 0.10224670970571 
555	 0.102530365714704 
556	 0.102785606896211 
557	 0.102934103815835 
558	 0.102961730576162 
559	 0.103046416385439 
560	 0.103034813788992 
561	 0.102793011363831 
562	 0.102505426257225 
563	 0.10226364103527 
564	 0.102206463856846 
565	 0.102086182124071 
566	 0.101808587888439 
567	 0.101524733114394 
568	 0.10121104613739 
569	 0.100820785984425 
570	 0.100473210780369 
571	 0.100220580960654 
572	 0.100161004986793 
573	 9.98710286221134E-02 
574	 9.91673919249468E-02 
575	 9.88943004735867E-02 
576	 9.88056460169203E-02 
577	 9.82247368855293E-02 
578	 9.78107977688155E-02 
579	 9.76532059464698E-02 
580	 9.71610779365353E-02 
581	 9.67916752573312E-02 
582	 9.69246032143931E-02 
583	 9.69054422782662E-02 
584	 9.66734562373917E-02 
585	 9.63944869699147E-02 
586	 9.61636920956663E-02 
587	 9.60113107981413E-02 
588	 9.57597871986969E-02 
589	 9.55430823809573E-02 
590	 9.55558726144733E-02 
591	 0.095327210698086 
592	 9.49348168408169E-02 
593	 9.49959384274193E-02 
594	 0.095076845876685 
595	 0.09494416714147 
596	 9.49173740214342E-02 
597	 9.49176622859312E-02 
598	 0.094752366881769 
599	 9.43967095594295E-02 
600	 9.39377976635646E-02 
601	 9.37561454003212E-02 
602	 9.37361712173162E-02 
603	 9.37486608625352E-02 
604	 0.09372150071331 
605	 9.35822900206768E-02 
606	 9.31769183089803E-02 
607	 9.28621102367518E-02 
608	 9.27877850163587E-02 
609	 9.28812225804711E-02 
610	 9.27578161645723E-02 
611	 9.19654299583128E-02 
612	 9.14388893184816E-02 
613	 9.13072363508487E-02 
614	 0.091134468105166 
615	 9.09350236187545E-02 
616	 9.07180106887287E-02 
617	 9.05841194556555E-02 
618	 9.04401385135668E-02 
619	 9.00846172533597E-02 
620	 8.99280456507721E-02 
621	 9.00042899435532E-02 
622	 8.99234960427677E-02 
623	 8.96420871836955E-02 
624	 8.91794105037877E-02 
625	 8.91843077108765E-02 
626	 8.94754147701036E-02 
627	 8.92604754685161E-02 
628	 8.89820338648756E-02 
629	 0.088859147836096 
630	 8.91444415183328E-02 
631	 8.93991471024077E-02 
632	 8.90676833590747E-02 
633	 8.91115304617135E-02 
634	 8.94037657041539E-02 
635	 0.088765102579932 
636	 8.80366685880761E-02 
637	 0.087718852037808 
638	 8.75144826690901E-02 
639	 8.72043349052852E-02 
640	 8.64322073143774E-02 
641	 0.086150411769218 
642	 8.63030395862757E-02 
643	 8.52265432727243E-02 
644	 8.41400341743309E-02 
645	 8.41065972527355E-02 
646	 8.39452126031409E-02 
647	 8.34659716296269E-02 
648	 8.27419709795227E-02 
649	 8.21694546460556E-02 
650	 8.19009220762219E-02 
651	 8.16101437944873E-02 
652	 8.13928664910998E-02 
653	 8.13899626707733E-02 
654	 8.16462432320536E-02 
655	 8.19051010830318E-02 
656	 8.12288083186541E-02 
657	 8.06586600910602E-02 
658	 8.07099927754393E-02 
659	 8.00713910542685E-02 
660	 7.92933454057902E-02 
661	 7.95343387645972E-02 
662	 7.91415437945824E-02 
663	 7.80262183578387E-02 
664	 7.79360814564825E-02 
665	 7.80244045792067E-02 
666	 7.75620218490326E-02 
667	 7.70908495800634E-02 
668	 7.67862403749166E-02 
669	 0.076883921579765 
670	 7.68309158460897E-02 
671	 7.65153011574546E-02 
672	 7.66270260584951E-02 
673	 7.68225372286186E-02 
674	 7.66570150873005E-02 
675	 7.63214635856914E-02 
676	 7.60850762560512E-02 
677	 7.66422096673978E-02 
678	 7.70698351485493E-02 
679	 7.69583378094191E-02 
680	 0.077279156803897 
681	 7.78375324422182E-02 
682	 7.81357705878452E-02 
683	 7.86701598203181E-02 
684	 7.94663553729891E-02 
685	 8.00339742409385E-02 
686	 8.09462578100874E-02 
687	 8.26627617133339E-02 
688	 8.41992464681283E-02 
689	 8.55227334081056E-02 
690	 8.72538009736874E-02 
691	 8.94509777595117E-02 
692	 9.20901913524159E-02 
693	 0.094616526078857 
694	 9.72997038965509E-02 
695	 0.100334953094799 
696	 0.103677237593353 
697	 0.107160916767857 
698	 0.110490881993978 
699	 0.113936653920088 
700	 0.11757006127347 
701	 0.121277969018933 
702	 0.125191795565378 
703	 0.129522937874911 
704	 0.132924812996504 
705	 0.135619704922123 
706	 0.139402917543319 
707	 0.143355522662788 
708	 0.146821484039805 
709	 0.149593966192329 
710	 0.152290381769338 
711	 0.156172398971623 
712	 0.15947092831218 
713	 0.161950075943682 
714	 0.165362361876628 
715	 0.168541489694365 
716	 0.170537578629507 
717	 0.172789828446071 
718	 0.175572434245305 
719	 0.178277936674557 
720	 0.180601511868233 
721	 0.182388596344249 
722	 0.183994006823999 
723	 0.18559825611354 
724	 0.187219124930228 
725	 0.189360378750654 
726	 0.191604542581635 
727	 0.192850768091107 
728	 0.19389373494573 
729	 0.195077468503073 
730	 0.195729178872004 
731	 0.196451208274235 
732	 0.198128047356515 
733	 0.199342527916283 
734	 0.199967531450946 
735	 0.200670659078174 
736	 0.201458073051464 
737	 0.202292829233542 
738	 0.202945283790827 
739	 0.203514062738199 
740	 0.204226229668938 
741	 0.205081966514282 
742	 0.205946848241343 
743	 0.206304403134471 
744	 0.206508453625761 
745	 0.206868075943239 
746	 0.207091792771721 
747	 0.207327124649296 
748	 0.208093548984671 
749	 0.208523615479717 
750	 0.208401991944833 
751	 0.208409042766927 
752	 0.208733554631506 
753	 0.209491578314267 
754	 0.210138514373473 
755	 0.210516896994656 
756	 0.2105561953352 
757	 0.210623240069978 
758	 0.210945231588186 
759	 0.211583793660307 
760	 0.212986946444041 
761	 0.214723830022091 
762	 0.214975032348165 
763	 0.214351263822411 
764	 0.215101808381744 
765	 0.215428422885721 
766	 0.214891989390688 
767	 0.214599834617362 
768	 0.214489277338891 
769	 0.214402678180106 
770	 0.214312233605541 
771	 0.214298888471023 
772	 0.214708970507209 
773	 0.215037985391805 
774	 0.215007778857263 
775	 0.215360144459323 
776	 0.215937997667237 
777	 0.216279679025365 
778	 0.216583525915649 
779	 0.216835476626995 
780	 0.216723293511325 
781	 0.216859478201427 
782	 0.217627403256209 
783	 0.217641379442361 
784	 0.217198559451062 
785	 0.21743268623987 
786	 0.217567344298519 
787	 0.217410988635082 
788	 0.217195213214508 
789	 0.217290113190803 
790	 0.21798275365038 
791	 0.218600304588797 
792	 0.218895541796648 
793	 0.21859464397619 
794	 0.21849811423474 
795	 0.218785136327798 
796	 0.218654162537709 
797	 0.218391046745159 
798	 0.218344979071073 
799	 0.218782126428578 
800	 0.219317231791501 
801	 0.218658573775928 
802	 0.21860821924327 
803	 0.21961291430004 
804	 0.219861975903932 
805	 0.219824742383267 
806	 0.220132028961116 
807	 0.220090642477186 
808	 0.219894774902425 
809	 0.220522173467684 
810	 0.220896005227427 
811	 0.220620792854183 
812	 0.220359146857436 
813	 0.22060621650216 
814	 0.221895126752046 
815	 0.22274531164999 
816	 0.22305872326352 
817	 0.224203854278812 
818	 0.22382746179966 
819	 0.22178342182721 
820	 0.222928377005415 
821	 0.225066807521991 
822	 0.225211760096831 
823	 0.224991530158509 
824	 0.224994885903341 
825	 0.225953823117373 
826	 0.226511410043927 
827	 0.226238919097165 
828	 0.226430644770342 
829	 0.226428826804988 
830	 0.22537542222039 
831	 0.225812814627501 
832	 0.227299002243192 
833	 0.22685056987737 
834	 0.226795342850679 
835	 0.22787979385697 
836	 0.228397647983003 
837	 0.228435330042789 
838	 0.228279361598526 
839	 0.228709769530199 
840	 0.22935048959035 
841	 0.228512786626006 
842	 0.228167178463671 
843	 0.228911394991269 
844	 0.228856584943814 
845	 0.228585193173836 
846	 0.228901872248004 
847	 0.229307245061082 
848	 0.229403540349086 
849	 0.228211211999235 
850	 0.227795436002982 
851	 0.228892666905752 
852	 0.230271972265996 
853	 0.230617941207827 
854	 0.228842886761411 
855	 0.228658301502023 
856	 0.22978579341577 
857	 0.229547295083573 
858	 0.229361039777139 
859	 0.229518242991921 
860	 0.229126505818953 
861	 0.229020531522178 
862	 0.229894239369442 
863	 0.229364228302803 
864	 0.228471055614165 
865	 0.230859190728336 
866	 0.231936045446216 
867	 0.230818420438156 
868	 0.231468004409779 
869	 0.232138132455284 
870	 0.231492767994339 
871	 0.232045254723839 
872	 0.233319105651298 
873	 0.233672593034681 
874	 0.233828457872984 
875	 0.233989632196276 
876	 0.234229601723476 
877	 0.234236849633949 
878	 0.233879579684228 
879	 0.233856895082909 
880	 0.234381263602483 
881	 0.235634472768231 
882	 0.235696935644694 
883	 0.234741292079308 
884	 0.235315014539379 
885	 0.236423751715982 
886	 0.23730695547171 
887	 0.236817727774807 
888	 0.236274648331757 
889	 0.237537000391755 
890	 0.23866091856776 
891	 0.239132998708971 
892	 0.238944271916226 
893	 0.238360495170021 
894	 0.23767819167127 
895	 0.237497437197091 
896	 0.238025982824883 
897	 0.239304029109032 
898	 0.239341342047711 
899	 0.23924565650704 
900	 0.243225728908618 
901	 0.243957513620222 
902	 0.240416536173965 
903	 0.239381345375944 
904	 0.240033238105145 
905	 0.241373767056958 
906	 0.241804039386719 
907	 0.241706235644882 
908	 0.242284407628653 
909	 0.24290122632194 
910	 0.243277389677089 
911	 0.243017385317251 
912	 0.242864498049571 
913	 0.243273265891283 
914	 0.244046849576045 
915	 0.244809121769501 
916	 0.245140089491759 
917	 0.245296322874561 
918	 0.244890744446239 
919	 0.242440178673622 
920	 0.241769462355029 
921	 0.243401733215687 
922	 0.242233416002999 
923	 0.240794061529981 
924	 0.241364318364721 
925	 0.240175538039299 
926	 0.238705162484574 
927	 0.2417941325565 
928	 0.240837360132282 
929	 0.234844746225613 
930	 0.235645506350773 
931	 0.240064142112291 
932	 0.244694792868067 
933	 0.244763990416898 
934	 0.243643775084352 
935	 0.247481967716715 
936	 0.248849029163681 
937	 0.24597205844366 
938	 0.238717356513 
939	 0.234145282311957 
940	 0.234226146464322 
941	 0.236405551208457 
942	 0.236518198521186 
943	 0.232556249548662 
944	 0.234692319578526 
945	 0.23846053575672 
946	 0.234914561262443 
947	 0.233585418554402 
948	 0.236528013248876 
949	 0.242981537181263 
950	 0.243021938890097 
951	 0.234735978208187 
952	 0.23350371691643 
953	 0.234966829791068 
954	 0.234182030746549 
955	 0.23341594932037 
956	 0.232959873409522 
957	 0.232932851804446 
958	 0.231580251190876 
959	 0.229099451132843 
960	 0.227437116074615 
961	 0.22679915681106 
962	 0.227524751654449 
963	 0.231490691334545 
964	 0.232482183158752 
965	 0.22549022348451 
966	 0.224982356331564 
967	 0.229005473720449 
968	 0.228867468757241 
969	 0.228089503519596 
970	 0.227171522478702 
971	 0.224513145859386 
972	 0.223839900107577 
973	 0.226629432281293 
974	 0.228085750402039 
975	 0.230318197766705 
976	 0.235633408760833 
977	 0.235738789132626 
978	 0.23235451855908 
979	 0.232816220986415 
980	 0.231246706665574 
981	 0.22789223420722 
982	 0.229455816777333 
983	 0.231324557536058 
984	 0.231222434380682 
985	 0.232043806079184 
986	 0.234331602523698 
987	 0.237800846638018 
988	 0.233642155671044 
989	 0.226451412040772 
990	 0.228455578308798 
991	 0.230660075327865 
992	 0.231179532191708 
993	 0.233361769835923 
994	 0.232397785064289 
995	 0.227934141173936 
996	 0.232137308687401 
997	 0.2388262595117 
998	 0.24059560305589 
999	 0.236236621273146 
1000	 0.232207119332623 
1001	 0.239893384138911 
1002	 0.238334660736621 
1003	 0.2281203159032 
1004	 0.230379373529094 
1005	 0.231627666926137 
1006	 0.22832155561483 
1007	 0.230596203558214 
1008	 0.236401174795016 
1009	 0.242501005667169 
1010	 0.241808229492991 
1011	 0.237865986504452 
1012	 0.236961748976556 
1013	 0.238317990079995 
1014	 0.240812474000545 
1015	 0.242126844233695 
1016	 0.242093902104935 
1017	 0.241086984463568 
1018	 0.240905355383826 
1019	 0.24296845064444 
1020	 0.24621120789481 
1021	 0.237508479203549 
1022	 0.234599581566875 
1023	 0.252512701359016 
1024	 0.255707609260978 
1025	 0.24603337105153 
1026	 0.236641511864672 
1027	 0.237719705730788 
1028	 0.246389576899563 
1029	 0.244202471663172 
1030	 0.240747308114526 
1031	 0.240260530723884 
1032	 0.246654791679429 
1033	 0.251405082152044 
1034	 0.24999250960813 
1035	 0.252064641243479 
1036	 0.259570259432661 
1037	 0.271918180318519 
1038	 0.26451362515316 
1039	 0.249123175108997 
1040	 0.253720036152928 
1041	 0.25754624409066 
1042	 0.257705982435442 
1043	 0.262452401320913 
1044	 0.256412257228365 
1045	 0.242534340610484 
1046	 0.258208643049853 
1047	 0.263326086861487 
1048	 0.239743560618407 
1049	 0.239047426014067 
1050	 0.249507247693946 
1051	 0.254703771587174 
1052	 0.2489338760808 
1053	 0.239331041127182 
1054	 0.238926696704236 
1055	 0.235258013060633 
1056	 0.237352646978166 
1057	 0.273579209439131 
1058	 0.27846407247272 
1059	 0.247665687499662 
1060	 0.256955789420361 
1061	 0.258705254690748 
1062	 0.240189245506232 
1063	 0.254575494770207 
1064	 0.263485520112909 
1065	 0.247083192512404 
1066	 0.288001276983665 
1067	 0.314956545119531 
1068	 0.253681246692619 
1069	 0.243320049974528 
1070	 0.26500174923649 
1071	 0.239419424515549 
1072	 0.251125971661402 
1073	 0.282938104505367 
1074	 0.245466649323927 
1075	 0.24039671467341 
