Wavelength	A00318.asd
325	 7.22126011185951E-02 
326	 6.45747665479975E-02 
327	 6.16044932816043E-02 
328	 7.31871333871725E-02 
329	 7.61374607332134E-02 
330	 0.066476620472459 
331	 7.10781932756706E-02 
332	 7.92712213698626E-02 
333	 7.90699103358703E-02 
334	 7.75250561075173E-02 
335	 7.61625964900273E-02 
336	 7.54596863911967E-02 
337	 7.50599263484196E-02 
338	 0.075306773700586 
339	 7.83762161374229E-02 
340	 0.080538946237148 
341	 0.078869748762105 
342	 7.55247121776299E-02 
343	 7.30547934028512E-02 
344	 7.54655093323281E-02 
345	 7.52334647105793E-02 
346	 7.21319127216981E-02 
347	 0.073569550800981 
348	 7.61962388471793E-02 
349	 7.74446358205411E-02 
350	 7.67411243205721E-02 
351	 7.52103378424297E-02 
352	 7.47568581794092E-02 
353	 7.27422503779812E-02 
354	 7.00694601905583E-02 
355	 7.21485897243803E-02 
356	 7.40726127209279E-02 
357	 7.32845686646899E-02 
358	 7.49598685668122E-02 
359	 7.72046354514746E-02 
360	 7.64354403240474E-02 
361	 7.43032646872191E-02 
362	 7.23332237160267E-02 
363	 7.39914273480495E-02 
364	 7.50780738157185E-02 
365	 7.37076152169201E-02 
366	 0.073495340406574 
367	 7.34011875857096E-02 
368	 7.15537297213777E-02 
369	 7.11004788336295E-02 
370	 7.19481689036415E-02 
371	 7.11000409363392E-02 
372	 7.08589102201443E-02 
373	 7.22220784903127E-02 
374	 7.30423569386853E-02 
375	 7.29793930643758E-02 
376	 7.19623882510453E-02 
377	 7.22551244293888E-02 
378	 7.33516600167378E-02 
379	 7.15038572234069E-02 
380	 7.07324261198259E-02 
381	 7.25672406092241E-02 
382	 7.27386666368468E-02 
383	 7.21979737292452E-02 
384	 7.27330777606066E-02 
385	 7.44597279409296E-02 
386	 7.61135987280381E-02 
387	 0.074117106655298 
388	 7.19237091487506E-02 
389	 7.11330513132615E-02 
390	 7.06581627150045E-02 
391	 7.13206545677705E-02 
392	 7.40428885501029E-02 
393	 7.34454929904659E-02 
394	 7.05197993561546E-02 
395	 7.14974720929068E-02 
396	 7.25236081316798E-02 
397	 0.072159545785623 
398	 7.20977588493311E-02 
399	 7.17426562816078E-02 
400	 7.04378579986235E-02 
401	 7.05267048725406E-02 
402	 7.16394576127898E-02 
403	 7.18421766658982E-02 
404	 7.20656559050131E-02 
405	 7.26472057315478E-02 
406	 7.33609055336142E-02 
407	 0.073664129578878 
408	 7.29566500288237E-02 
409	 7.23791510682622E-02 
410	 7.21732258903097E-02 
411	 7.21345111922467E-02 
412	 0.072296028349853 
413	 7.25444751500391E-02 
414	 7.21801789972776E-02 
415	 0.071657701256192 
416	 7.16347067309067E-02 
417	 7.15690909896483E-02 
418	 7.15242952473593E-02 
419	 7.21617571231336E-02 
420	 7.24483831826091E-02 
421	 0.071974304873095 
422	 7.21259449237167E-02 
423	 7.25853643436861E-02 
424	 7.26598384300571E-02 
425	 7.29676437699831E-02 
426	 7.34580632782658E-02 
427	 7.34807865628905E-02 
428	 7.30945476527735E-02 
429	 7.25035427100608E-02 
430	 7.29427360965397E-02 
431	 7.37399735556375E-02 
432	 0.073545058032666 
433	 7.28141786063384E-02 
434	 7.20237043386189E-02 
435	 7.23266173171644E-02 
436	 7.26781130804025E-02 
437	 7.24521004074645E-02 
438	 0.072792203427966 
439	 7.32871464936694E-02 
440	 7.28912094110064E-02 
441	 7.26002568936619E-02 
442	 7.26944564238318E-02 
443	 7.29661898853921E-02 
444	 7.32440675159314E-02 
445	 7.33932941880161E-02 
446	 7.34817224438995E-02 
447	 7.35313744422434E-02 
448	 0.073561539547021 
449	 0.07361227292261 
450	 7.36804605021589E-02 
451	 7.36383532070042E-02 
452	 7.36856089422705E-02 
453	 7.40018600961091E-02 
454	 7.40800845378722E-02 
455	 7.39888775564344E-02 
456	 7.42622778289088E-02 
457	 7.42023648084809E-02 
458	 7.37498658315313E-02 
459	 7.43589871872406E-02 
460	 7.49266262443139E-02 
461	 7.40640547919588E-02 
462	 7.37411069675409E-02 
463	 0.074124364887262 
464	 7.42804060116701E-02 
465	 0.074277597629599 
466	 7.41598717530707E-02 
467	 7.41448518106493E-02 
468	 7.43132195631526E-02 
469	 7.47366451856181E-02 
470	 7.48166414657487E-02 
471	 7.46213463972205E-02 
472	 7.50595244940548E-02 
473	 7.52592380600427E-02 
474	 7.47399606388253E-02 
475	 7.43398856775895E-02 
476	 7.42754321168926E-02 
477	 7.47378138662286E-02 
478	 7.46885657559196E-02 
479	 7.41320753789799E-02 
480	 7.45350459156746E-02 
481	 7.49096235024425E-02 
482	 7.44951418419651E-02 
483	 7.44359708418402E-02 
484	 7.47337357000782E-02 
485	 7.49444421460683E-02 
486	 7.49755866756761E-02 
487	 7.48735329069826E-02 
488	 7.52132896812823E-02 
489	 7.55342555608228E-02 
490	 7.53527193838924E-02 
491	 7.48937848419073E-02 
492	 7.45549066932646E-02 
493	 7.52528556055072E-02 
494	 7.59854773730267E-02 
495	 7.62518304513874E-02 
496	 7.59954832484339E-02 
497	 7.57420366888088E-02 
498	 7.61648365129539E-02 
499	 7.65115992125492E-02 
500	 7.66333404023194E-02 
501	 0.07667860455402 
502	 7.68698249781668E-02 
503	 7.73159528460076E-02 
504	 7.77033073217445E-02 
505	 7.80598283056704E-02 
506	 7.85269308319823E-02 
507	 7.87016700663872E-02 
508	 7.86834107937959E-02 
509	 7.93089447887234E-02 
510	 8.00642038082294E-02 
511	 8.05348031467468E-02 
512	 8.11051268790011E-02 
513	 8.17109053801482E-02 
514	 8.20334408713975E-02 
515	 8.25352874293666E-02 
516	 0.083302348227561 
517	 8.37403520419968E-02 
518	 0.084334648985055 
519	 8.55943115132982E-02 
520	 8.64338325683758E-02 
521	 0.08691395885054 
522	 8.78504600641634E-02 
523	 8.87849242346695E-02 
524	 8.95324725549543E-02 
525	 9.02917540096134E-02 
526	 9.09563732385912E-02 
527	 9.13399269372495E-02 
528	 9.19993654198853E-02 
529	 9.29078198663097E-02 
530	 0.093473663374881 
531	 9.39479998378945E-02 
532	 0.094514741338647 
533	 9.52447692830657E-02 
534	 9.59182236218257E-02 
535	 9.60667313167771E-02 
536	 0.096388029029377 
537	 9.70048539330482E-02 
538	 9.73209840818664E-02 
539	 9.76170257342944E-02 
540	 0.098169981731269 
541	 9.85809263671658E-02 
542	 9.88651872737319E-02 
543	 9.92884445324996E-02 
544	 9.96751153752044E-02 
545	 9.99678589998748E-02 
546	 0.100269378108201 
547	 0.100573143798401 
548	 0.100857507934769 
549	 0.101067786316214 
550	 0.10130334733728 
551	 0.101969384375958 
552	 0.102525560707735 
553	 0.10263164198065 
554	 0.102555151866708 
555	 0.102476800573164 
556	 0.102646977945712 
557	 0.10282630299412 
558	 0.102929258565875 
559	 0.102948621996727 
560	 0.102979942733385 
561	 0.103094428013082 
562	 0.103005632973929 
563	 0.102772064495962 
564	 0.102671621639145 
565	 0.102646768907556 
566	 0.102591188291499 
567	 0.101981683225301 
568	 0.101306047601676 
569	 0.101231564573849 
570	 0.100919042969176 
571	 0.100366362503176 
572	 0.100297034924749 
573	 0.100205121137195 
574	 9.98107844773421E-02 
575	 9.95556422355768E-02 
576	 9.93375976388503E-02 
577	 9.88616428283274E-02 
578	 9.84245968638937E-02 
579	 9.81406802092711E-02 
580	 9.80766326849533E-02 
581	 0.097879102888821 
582	 0.097290979270267 
583	 9.72438438565033E-02 
584	 9.74942670809856E-02 
585	 0.096948123402462 
586	 9.65197439742046E-02 
587	 9.64919494396626E-02 
588	 9.62327065108968E-02 
589	 0.095822836338641 
590	 9.54544410934597E-02 
591	 0.095222609464639 
592	 9.51112846706748E-02 
593	 9.49374055791824E-02 
594	 9.48858083484953E-02 
595	 9.50158557560875E-02 
596	 9.48881471374928E-02 
597	 9.46836489060326E-02 
598	 9.48410321137051E-02 
599	 9.47877059790954E-02 
600	 9.44527271781331E-02 
601	 9.43826157392116E-02 
602	 9.42044578986522E-02 
603	 9.36361733154966E-02 
604	 9.36204372084525E-02 
605	 0.093936889182886 
606	 9.35961688786267E-02 
607	 9.32585323244139E-02 
608	 9.31336736896679E-02 
609	 9.28887748645717E-02 
610	 9.25170835699233E-02 
611	 9.20487026954397E-02 
612	 9.20858758315032E-02 
613	 0.092426573514401 
614	 9.18933795842249E-02 
615	 9.12864918025355E-02 
616	 9.10980365965819E-02 
617	 9.10600269944127E-02 
618	 9.09643766043834E-02 
619	 9.04869240774579E-02 
620	 9.03510665695545E-02 
621	 9.05588593183386E-02 
622	 9.01248722401012E-02 
623	 0.089540611216036 
624	 8.92931904168043E-02 
625	 8.93687441030841E-02 
626	 8.95669151046526E-02 
627	 8.93764377728707E-02 
628	 0.0891712925613 
629	 8.91082075502987E-02 
630	 8.91723476460096E-02 
631	 8.92866673046968E-02 
632	 8.93554233831981E-02 
633	 8.95033189182895E-02 
634	 8.95995961617949E-02 
635	 8.91752619422077E-02 
636	 8.85952893441174E-02 
637	 8.81122776263529E-02 
638	 8.78271448496847E-02 
639	 8.75510571317919E-02 
640	 0.086899413722459 
641	 8.65520987968078E-02 
642	 8.64820220374434E-02 
643	 8.55571611548585E-02 
644	 8.46984365655745E-02 
645	 8.46836865097865E-02 
646	 8.43025484446269E-02 
647	 8.35966042186129E-02 
648	 8.32713198715914E-02 
649	 8.30458964073491E-02 
650	 8.28191847342784E-02 
651	 8.26111397143791E-02 
652	 0.082298727982531 
653	 8.17425536916637E-02 
654	 8.17850544773714E-02 
655	 0.082291760445569 
656	 8.20495453014622E-02 
657	 8.14784854409479E-02 
658	 8.09076526930282E-02 
659	 8.05080957517197E-02 
660	 8.02066167361111E-02 
661	 7.98781955553139E-02 
662	 7.92049507989126E-02 
663	 7.83587657042671E-02 
664	 7.84734494110982E-02 
665	 7.86778521117893E-02 
666	 7.82368672762203E-02 
667	 7.77371758786515E-02 
668	 0.0773898557131 
669	 7.75362391410628E-02 
670	 7.72050520084342E-02 
671	 7.63519081693445E-02 
672	 7.69551003013777E-02 
673	 7.77985199822961E-02 
674	 7.73553872653701E-02 
675	 7.68912902353076E-02 
676	 7.67996649207875E-02 
677	 7.73951140365599E-02 
678	 7.78427986862135E-02 
679	 7.77380499847992E-02 
680	 0.077763352784221 
681	 7.80354497041152E-02 
682	 0.078590268919601 
683	 7.93717317793181E-02 
684	 8.02296556108222E-02 
685	 8.06851567960134E-02 
686	 8.14155740890236E-02 
687	 8.29898346195031E-02 
688	 8.45002859400327E-02 
689	 8.59214187346002E-02 
690	 8.78921504722396E-02 
691	 8.99603152641146E-02 
692	 9.21032569657843E-02 
693	 9.45928716673059E-02 
694	 9.76636495848684E-02 
695	 0.101351056310359 
696	 0.104387481520659 
697	 0.10699777575879 
698	 0.110636106064485 
699	 0.114342151012099 
700	 0.117684916874384 
701	 0.121335899838322 
702	 0.125204725063436 
703	 0.129083167191068 
704	 0.132740036067257 
705	 0.136196626116782 
706	 0.139637646056376 
707	 0.142990462215071 
708	 0.146192814776889 
709	 0.149086625723668 
710	 0.152042530832377 
711	 0.155851243227684 
712	 0.159067370122794 
713	 0.161436723967098 
714	 0.164127339006559 
715	 0.166858861235689 
716	 0.169470131438136 
717	 0.171805615827069 
718	 0.174175908852892 
719	 0.177384801408932 
720	 0.179951565027558 
721	 0.181410748110645 
722	 0.182736804168501 
723	 0.184092062407054 
724	 0.185460312423027 
725	 0.187502677198369 
726	 0.189916875476474 
727	 0.191857920799927 
728	 0.193257662302402 
729	 0.19413037822195 
730	 0.194988984987779 
731	 0.195897017312746 
732	 0.196838309121085 
733	 0.197693284688251 
734	 0.198519827588208 
735	 0.199597889790877 
736	 0.200458703362435 
737	 0.200838642420361 
738	 0.201621125872066 
739	 0.202669414613445 
740	 0.203509456748184 
741	 0.204032742247059 
742	 0.204249403055905 
743	 0.204434849995678 
744	 0.204661391787889 
745	 0.204988338351072 
746	 0.205444428056366 
747	 0.20593174235553 
748	 0.206194088145368 
749	 0.206661171219471 
750	 0.207306521673912 
751	 0.207061045409673 
752	 0.206934549010201 
753	 0.208005374996568 
754	 0.208697346745546 
755	 0.208819204101523 
756	 0.208812053847879 
757	 0.208804306983646 
758	 0.208901231552933 
759	 0.209029761114804 
760	 0.209864325153748 
761	 0.212280145430401 
762	 0.213115054323305 
763	 0.21245721388391 
764	 0.212483897305872 
765	 0.212735110961838 
766	 0.212946379399476 
767	 0.212595961201078 
768	 0.212268739557208 
769	 0.21270034063403 
770	 0.213046981168577 
771	 0.213109040201721 
772	 0.212944501577574 
773	 0.212911616413522 
774	 0.213226880054616 
775	 0.213476260069159 
776	 0.213705704173186 
777	 0.214109973689301 
778	 0.214618570516083 
779	 0.215044291910005 
780	 0.214738468425444 
781	 0.214443842887617 
782	 0.214728372850174 
783	 0.214844879903659 
784	 0.214880005924783 
785	 0.215293757621067 
786	 0.215583033526304 
787	 0.21557549370101 
788	 0.215281221700333 
789	 0.21520418951147 
790	 0.215773745093446 
791	 0.21634756829778 
792	 0.216611691447049 
793	 0.216053369685263 
794	 0.216058040288196 
795	 0.216825461719226 
796	 0.216507890126799 
797	 0.215946150081641 
798	 0.216076573118886 
799	 0.216397238503532 
800	 0.216741561767222 
801	 0.216903928867673 
802	 0.217109960855586 
803	 0.217403066446851 
804	 0.217565615883246 
805	 0.217530853363061 
806	 0.217272097509624 
807	 0.217264415534907 
808	 0.217566305184722 
809	 0.218079711551738 
810	 0.218323911527364 
811	 0.218125604309591 
812	 0.217965825020203 
813	 0.218102847658992 
814	 0.218810981739124 
815	 0.21992316754761 
816	 0.220917520998613 
817	 0.220505275047688 
818	 0.220023272368537 
819	 0.220096952495571 
820	 0.220299213415147 
821	 0.220949751993115 
822	 0.222409381413761 
823	 0.222819150910725 
824	 0.222287204181471 
825	 0.222453322849793 
826	 0.222769660165263 
827	 0.223097279570641 
828	 0.223865779528008 
829	 0.224322722974016 
830	 0.223576091117912 
831	 0.223314590658017 
832	 0.223765800150232 
833	 0.224436138575412 
834	 0.224838898320556 
835	 0.224814848847042 
836	 0.225115339249946 
837	 0.225073737168168 
838	 0.223942799066164 
839	 0.223683861956307 
840	 0.224449407977209 
841	 0.225436036349996 
842	 0.226144403774743 
843	 0.226303291751279 
844	 0.226201049135157 
845	 0.225817608772496 
846	 0.225157259345351 
847	 0.22545151867089 
848	 0.226396467327602 
849	 0.226394489919694 
850	 0.226042094407898 
851	 0.225692379466404 
852	 0.226018793840499 
853	 0.226478283979839 
854	 0.226445251728024 
855	 0.226680989003933 
856	 0.226999430953163 
857	 0.226584804322212 
858	 0.226120107957564 
859	 0.225922585241631 
860	 0.226344035803982 
861	 0.226462806295186 
862	 0.225523709876738 
863	 0.225741278983341 
864	 0.226846547858139 
865	 0.227196768476632 
866	 0.227568948140004 
867	 0.228127685171593 
868	 0.228611062737935 
869	 0.228853980885497 
870	 0.228775701116689 
871	 0.228788741386488 
872	 0.228874513409362 
873	 0.228828075208711 
874	 0.229072314416279 
875	 0.229571142454049 
876	 0.229503480019645 
877	 0.230021199478863 
878	 0.231710898735701 
879	 0.232374115896482 
880	 0.232277118179293 
881	 0.232387745435568 
882	 0.232016623112338 
883	 0.231460042779683 
884	 0.232202072405412 
885	 0.233286155621463 
886	 0.23389552856563 
887	 0.232473221883437 
888	 0.231159376581811 
889	 0.232889194512856 
890	 0.234039191249237 
891	 0.234331457790741 
892	 0.23611673503522 
893	 0.235857010065588 
894	 0.232742628596762 
895	 0.232985480297741 
896	 0.235129097442321 
897	 0.236664192353945 
898	 0.236516269684948 
899	 0.235834323993738 
900	 0.238456025792364 
901	 0.239100492306548 
902	 0.236943966578687 
903	 0.236495664763016 
904	 0.236714954216105 
905	 0.23674384358907 
906	 0.237422314241066 
907	 0.238207930251342 
908	 0.237944849643782 
909	 0.238619198213721 
910	 0.240078863977604 
911	 0.23948356713817 
912	 0.238626367476547 
913	 0.238667443199696 
914	 0.239712094876826 
915	 0.240761354721322 
916	 0.240651140912327 
917	 0.241713874056866 
918	 0.242820162786446 
919	 0.239440729780601 
920	 0.237800304593939 
921	 0.239138838577648 
922	 0.237091893409191 
923	 0.235561501296192 
924	 0.237919332270003 
925	 0.237941516919231 
926	 0.235617698477993 
927	 0.233245692174557 
928	 0.233254568161428 
929	 0.235849645811504 
930	 0.235974794879725 
931	 0.235714349688946 
932	 0.236269082149534 
933	 0.233155321850098 
934	 0.228790755827562 
935	 0.227842866199289 
936	 0.232815112337938 
937	 0.240078335460045 
938	 0.240048978714188 
939	 0.236226220240183 
940	 0.231544777375681 
941	 0.234127931043994 
942	 0.234290528991731 
943	 0.226246006737681 
944	 0.226024781279433 
945	 0.230251728600993 
946	 0.230187570238918 
947	 0.232339752189136 
948	 0.236551198300788 
949	 0.238481569802782 
950	 0.236042136312484 
951	 0.229269757693948 
952	 0.223097498920155 
953	 0.220791722385031 
954	 0.224246390267779 
955	 0.226968686855507 
956	 0.227697740753943 
957	 0.226469135040866 
958	 0.225537865093256 
959	 0.225356728739526 
960	 0.225102688718867 
961	 0.223897002053078 
962	 0.222473676266325 
963	 0.227185624016959 
964	 0.231701591065264 
965	 0.229904098458419 
966	 0.226955048208971 
967	 0.223589578997338 
968	 0.219158990509519 
969	 0.215745324628247 
970	 0.214690293309989 
971	 0.218145924245436 
972	 0.222091503712443 
973	 0.224154825038736 
974	 0.224709158693403 
975	 0.226422501444606 
976	 0.231399072895688 
977	 0.226055052964181 
978	 0.215184657111115 
979	 0.214545237345224 
980	 0.217304316260988 
981	 0.221080931428413 
982	 0.225016685662928 
983	 0.226739848298077 
984	 0.225353893699435 
985	 0.223810084646597 
986	 0.224882562566724 
987	 0.230272645709201 
988	 0.227093403543858 
989	 0.22061451897259 
990	 0.226271517299242 
991	 0.22746397297839 
992	 0.222444570594687 
993	 0.222554273908843 
994	 0.225111262613269 
995	 0.227934639923073 
996	 0.226596811291192 
997	 0.224854512846981 
998	 0.22668749974146 
999	 0.229559332120156 
1000	 0.232426907956447 
1001	 0.23446153022428 
1002	 0.228058012225664 
1003	 0.217958827863112 
1004	 0.226480498286778 
1005	 0.23263719710455 
1006	 0.229550965658991 
1007	 0.229586142227178 
1008	 0.231233124450492 
1009	 0.232635567060805 
1010	 0.232629689554386 
1011	 0.230947116969418 
1012	 0.227778261476945 
1013	 0.230594283741125 
1014	 0.236641372484329 
1015	 0.235202963281038 
1016	 0.237181210572337 
1017	 0.242630449635897 
1018	 0.23707135838822 
1019	 0.234649324868319 
1020	 0.24109935660333 
1021	 0.239655204179221 
1022	 0.234776460802662 
1023	 0.232707817392677 
1024	 0.236307652394648 
1025	 0.241576399535558 
1026	 0.241121706286733 
1027	 0.234815085087075 
1028	 0.227944184916368 
1029	 0.237305958817425 
1030	 0.237266363001701 
1031	 0.225638804951935 
1032	 0.236974664247489 
1033	 0.244673175452095 
1034	 0.235866992430619 
1035	 0.250245527688268 
1036	 0.261901053362399 
1037	 0.243946077921525 
1038	 0.240494580452042 
1039	 0.248259816155329 
1040	 0.247116593192604 
1041	 0.246066494402112 
1042	 0.247849147665351 
1043	 0.255741185074499 
1044	 0.258534079701672 
1045	 0.254303987612957 
1046	 0.259223082690996 
1047	 0.248639959431415 
1048	 0.215901230275572 
1049	 0.224005120048565 
1050	 0.239788524977421 
1051	 0.230345892389649 
1052	 0.236257800020035 
1053	 0.246519623974948 
1054	 0.235834270809577 
1055	 0.230542497003296 
1056	 0.240875900888015 
1057	 0.27899138264469 
1058	 0.262811511262936 
1059	 0.200341085522935 
1060	 0.246816320844663 
1061	 0.279717922504417 
1062	 0.25507592140655 
1063	 0.240424980062147 
1064	 0.231053221914565 
1065	 0.223299315143762 
1066	 0.232169001325182 
1067	 0.24673198737871 
1068	 0.253291849393106 
1069	 0.23568965607791 
1070	 0.208744848544011 
1071	 0.204169580830036 
1072	 0.214607599424034 
1073	 0.226014843514331 
1074	 0.207202378656927 
1075	 0.216309897481289 
