Wavelength	A00302.asd
325	 6.44997991209077E-02 
326	 6.82021109540856E-02 
327	 8.10615332417707E-02 
328	 0.076085317846323 
329	 7.26322528708141E-02 
330	 7.53521704895462E-02 
331	 6.82384636226027E-02 
332	 6.29215218888247E-02 
333	 0.070761611877937 
334	 7.16705043527101E-02 
335	 6.74730604828309E-02 
336	 7.00075600048648E-02 
337	 7.41543661405092E-02 
338	 7.72003782372755E-02 
339	 7.50556362851311E-02 
340	 0.07079956327095 
341	 6.75816845530572E-02 
342	 0.069891819589751 
343	 7.45998276446335E-02 
344	 7.53117257596781E-02 
345	 7.23324247320314E-02 
346	 0.068148557680909 
347	 7.20454543196951E-02 
348	 7.55006106902874E-02 
349	 7.32302790871191E-02 
350	 7.19472076237325E-02 
351	 7.16437752444304E-02 
352	 0.070986136701722 
353	 6.85785105641003E-02 
354	 6.58404972319498E-02 
355	 6.93030178896351E-02 
356	 7.13828673465123E-02 
357	 6.83930515090828E-02 
358	 6.99301410789167E-02 
359	 7.33664472436141E-02 
360	 0.073186786030386 
361	 7.19836453948493E-02 
362	 7.07516781120031E-02 
363	 7.06199200175772E-02 
364	 7.04868143127982E-02 
365	 6.98831356539224E-02 
366	 6.99886671016336E-02 
367	 7.00325943593868E-02 
368	 6.88524820040839E-02 
369	 6.86477592681112E-02 
370	 6.93908613067696E-02 
371	 6.90938763120202E-02 
372	 6.92406592023652E-02 
373	 7.03980535333295E-02 
374	 7.06240347613155E-02 
375	 7.05613045637405E-02 
376	 7.13500462073435E-02 
377	 7.16096346877711E-02 
378	 7.09289560228084E-02 
379	 6.89241599029428E-02 
380	 6.79027714350168E-02 
381	 6.87277602066127E-02 
382	 6.83412776939555E-02 
383	 6.78952412043574E-02 
384	 6.92601711261432E-02 
385	 7.00193456199332E-02 
386	 6.95888947723994E-02 
387	 6.80962607750322E-02 
388	 6.73392695233353E-02 
389	 6.78700744794069E-02 
390	 6.73676029261546E-02 
391	 6.72615276877317E-02 
392	 6.93429080966898E-02 
393	 6.91456641397261E-02 
394	 6.73823378142033E-02 
395	 6.91039695649998E-02 
396	 6.95170359049324E-02 
397	 6.73884111612595E-02 
398	 0.067415563836751 
399	 6.79595015695527E-02 
400	 6.70654464525264E-02 
401	 6.68028944736423E-02 
402	 6.72395227541457E-02 
403	 6.77237312689219E-02 
404	 6.78842734056632E-02 
405	 6.76858089265971E-02 
406	 6.80311103112959E-02 
407	 6.86693616677036E-02 
408	 0.069182933389113 
409	 0.068900277339678 
410	 6.81623048949589E-02 
411	 6.83355597491106E-02 
412	 6.87036137126701E-02 
413	 6.88587934132847E-02 
414	 6.85382959496307E-02 
415	 6.80988323351855E-02 
416	 0.068023934805825 
417	 6.78540682529599E-02 
418	 6.77209469898337E-02 
419	 6.83641448985646E-02 
420	 0.069034413136018 
421	 0.0692475260931 
422	 6.87165354081796E-02 
423	 6.82451331639826E-02 
424	 6.90226540193142E-02 
425	 6.91630620210892E-02 
426	 6.86162510664629E-02 
427	 6.90523642629422E-02 
428	 6.95782974404904E-02 
429	 6.96169535926668E-02 
430	 6.95482901281874E-02 
431	 6.94615722667202E-02 
432	 6.94502924141983E-02 
433	 6.89914625866216E-02 
434	 6.82720940513175E-02 
435	 6.83909554913879E-02 
436	 6.85940696453286E-02 
437	 6.84442263198721E-02 
438	 6.89253235752614E-02 
439	 6.95553760158048E-02 
440	 6.92180485053581E-02 
441	 6.88832482016742E-02 
442	 6.88532091051798E-02 
443	 6.90460723876278E-02 
444	 6.92388511006299E-02 
445	 6.92845057087798E-02 
446	 0.069724550121691 
447	 7.01866887087917E-02 
448	 6.96259846360838E-02 
449	 0.069236616405339 
450	 6.94201864438647E-02 
451	 6.99534515790824E-02 
452	 7.03231037189127E-02 
453	 7.00726194256667E-02 
454	 7.00358261582174E-02 
455	 7.02698040685889E-02 
456	 7.04677167286904E-02 
457	 7.04869658815823E-02 
458	 7.03400024373175E-02 
459	 7.05818571812027E-02 
460	 7.08014520603301E-02 
461	 7.04776674930313E-02 
462	 0.070337036183521 
463	 7.03827983514875E-02 
464	 7.00322675362578E-02 
465	 0.06988636554606 
466	 7.02442985905249E-02 
467	 7.08987367872759E-02 
468	 7.12572078123721E-02 
469	 7.05296547110923E-02 
470	 7.01159352050213E-02 
471	 7.03077545666001E-02 
472	 7.06788719330332E-02 
473	 7.09157708973273E-02 
474	 7.08095616442981E-02 
475	 7.04201992178562E-02 
476	 7.02424444157344E-02 
477	 7.11600834731136E-02 
478	 7.12056944810821E-02 
479	 7.02840792431988E-02 
480	 7.05724959700968E-02 
481	 7.12078120715732E-02 
482	 7.14143648520809E-02 
483	 7.10419092078822E-02 
484	 7.05593189007333E-02 
485	 7.12236378903906E-02 
486	 7.15150150186149E-02 
487	 7.11159508973401E-02 
488	 7.16012522241593E-02 
489	 7.19307924823817E-02 
490	 7.10524954459222E-02 
491	 7.06696002281759E-02 
492	 0.071044664505692 
493	 7.20281568359294E-02 
494	 7.25515637332596E-02 
495	 7.22338213047474E-02 
496	 7.21650905114597E-02 
497	 7.22391806290211E-02 
498	 7.21768523915538E-02 
499	 0.072275052329616 
500	 7.25613326173334E-02 
501	 7.28621353921462E-02 
502	 7.32553244149868E-02 
503	 7.37232665522841E-02 
504	 0.073794457812864 
505	 7.37992821368116E-02 
506	 7.43916596287173E-02 
507	 7.47283335556584E-02 
508	 7.47765682731767E-02 
509	 7.54138385930668E-02 
510	 7.60938610486251E-02 
511	 7.63901436292232E-02 
512	 7.68009479202389E-02 
513	 7.73641328521495E-02 
514	 7.79518957149567E-02 
515	 7.86791191825303E-02 
516	 7.95612662526829E-02 
517	 8.04623281104063E-02 
518	 8.13883902320163E-02 
519	 8.23310028502652E-02 
520	 0.082748634154291 
521	 8.29005592597808E-02 
522	 8.37283085347637E-02 
523	 8.47044014018942E-02 
524	 8.56111079894666E-02 
525	 8.67145993464845E-02 
526	 8.75692870584187E-02 
527	 8.75150404671709E-02 
528	 8.79315423104234E-02 
529	 0.088933099191046 
530	 8.95919345027414E-02 
531	 9.00738209366702E-02 
532	 9.05367794318235E-02 
533	 9.14324886178234E-02 
534	 9.23117364813777E-02 
535	 9.21313056326484E-02 
536	 0.092274807012644 
537	 9.30311211825357E-02 
538	 9.34649509020946E-02 
539	 9.38472168358363E-02 
540	 9.44531314478694E-02 
541	 9.47846850939833E-02 
542	 9.48835590622053E-02 
543	 9.50819645125027E-02 
544	 9.54766508326075E-02 
545	 9.60608447482543E-02 
546	 0.096458997221895 
547	 9.66776865813295E-02 
548	 9.67757768115619E-02 
549	 9.71822700238961E-02 
550	 9.78386323910502E-02 
551	 9.81420009625649E-02 
552	 0.098439316626176 
553	 9.88846898041768E-02 
554	 9.88525403480241E-02 
555	 9.85906408869833E-02 
556	 9.87036050959145E-02 
557	 9.88236260176808E-02 
558	 9.88943213590714E-02 
559	 9.91928731542599E-02 
560	 9.93987428418981E-02 
561	 9.92214063242235E-02 
562	 9.88940273769788E-02 
563	 9.85928912885574E-02 
564	 9.86654338028197E-02 
565	 9.85796703111103E-02 
566	 9.81497043690871E-02 
567	 9.77367558376542E-02 
568	 9.73845225394644E-02 
569	 9.71017537901619E-02 
570	 9.67774563624965E-02 
571	 9.64243156941003E-02 
572	 9.61940065424309E-02 
573	 9.59120964034008E-02 
574	 9.55299167473875E-02 
575	 9.56567068501672E-02 
576	 9.58070138399013E-02 
577	 9.49464101647034E-02 
578	 9.41928655321558E-02 
579	 9.38805452920609E-02 
580	 9.37454441744882E-02 
581	 9.35913830994917E-02 
582	 9.32686637585533E-02 
583	 9.31232538543804E-02 
584	 9.31111102267901E-02 
585	 9.29769771874442E-02 
586	 9.27463818949654E-02 
587	 9.24611668699339E-02 
588	 9.23936619514948E-02 
589	 0.092302388645437 
590	 9.18536630964739E-02 
591	 9.15509249544943E-02 
592	 9.14368884267357E-02 
593	 9.11976159213645E-02 
594	 9.10214356746062E-02 
595	 9.09949670847611E-02 
596	 9.08908827524376E-02 
597	 9.07561223401028E-02 
598	 9.07286893235693E-02 
599	 9.07284265318333E-02 
600	 9.06557486326715E-02 
601	 9.01861541403252E-02 
602	 0.089791524567758 
603	 8.98712781742318E-02 
604	 8.99071710489684E-02 
605	 8.97651422783554E-02 
606	 0.089293161137346 
607	 0.089184590533543 
608	 8.95563020111724E-02 
609	 8.92508730551893E-02 
610	 8.85178112943732E-02 
611	 8.78127879260741E-02 
612	 8.77160946024494E-02 
613	 8.80372116203608E-02 
614	 8.75504887042124E-02 
615	 8.72022878145823E-02 
616	 8.74608900873474E-02 
617	 0.087164295024613 
618	 0.08654677433143 
619	 8.62617945569355E-02 
620	 8.61817901946324E-02 
621	 8.62265139962733E-02 
622	 8.61993604780157E-02 
623	 0.085950833588232 
624	 8.54153109962867E-02 
625	 8.54755761424812E-02 
626	 8.59445679370106E-02 
627	 8.59277791737025E-02 
628	 8.57371747269316E-02 
629	 8.55146998470298E-02 
630	 0.085468628425047 
631	 8.54416062097123E-02 
632	 8.52163038913493E-02 
633	 8.51788806389804E-02 
634	 8.52454966178984E-02 
635	 8.48344361171931E-02 
636	 8.44464170396834E-02 
637	 8.43466348409565E-02 
638	 8.41182971417054E-02 
639	 8.37011866969679E-02 
640	 8.30779573936631E-02 
641	 8.26002429481678E-02 
642	 8.22374959683134E-02 
643	 8.12218287575386E-02 
644	 0.080401470881509 
645	 8.04797708610435E-02 
646	 8.03332080260801E-02 
647	 7.97969859530725E-02 
648	 0.078990528289139 
649	 7.84178790654727E-02 
650	 7.82674467665522E-02 
651	 0.078130041219894 
652	 7.79623062352289E-02 
653	 7.77567026264427E-02 
654	 7.77684286135899E-02 
655	 7.79091982586158E-02 
656	 7.76792231892815E-02 
657	 7.72841562468523E-02 
658	 7.68605040601556E-02 
659	 7.62266459807561E-02 
660	 7.56500722211176E-02 
661	 7.56103250552983E-02 
662	 7.52736853031526E-02 
663	 7.45817279485167E-02 
664	 7.43895841013401E-02 
665	 7.43022220706813E-02 
666	 7.39718939517859E-02 
667	 7.35797562738905E-02 
668	 7.32280712901484E-02 
669	 0.073126855813852 
670	 0.072811350011659 
671	 7.22894562638574E-02 
672	 7.26225314957488E-02 
673	 7.31670438205026E-02 
674	 7.31083171413695E-02 
675	 7.29571469249082E-02 
676	 7.28428113122525E-02 
677	 7.27351048667598E-02 
678	 7.29951837151716E-02 
679	 7.36968569635832E-02 
680	 7.38625595347262E-02 
681	 7.37357048369021E-02 
682	 0.073865179405367 
683	 7.45784283132528E-02 
684	 7.57665553252705E-02 
685	 7.66021847132306E-02 
686	 7.73397810769466E-02 
687	 7.82467983693485E-02 
688	 7.98951898309379E-02 
689	 8.19111554940507E-02 
690	 8.35214277131035E-02 
691	 8.55497698216055E-02 
692	 8.81778557196444E-02 
693	 9.06924634606879E-02 
694	 9.34663345140106E-02 
695	 9.67837380824379E-02 
696	 0.100136834743711 
697	 0.103491352850238 
698	 0.107266816034582 
699	 0.110710967528276 
700	 0.113551819425902 
701	 0.117001898055935 
702	 0.120911250515418 
703	 0.124883841614651 
704	 0.128446743960071 
705	 0.131731093147034 
706	 0.135585630858359 
707	 0.139196188688582 
708	 0.142103009669252 
709	 0.145215651300402 
710	 0.14854448869699 
711	 0.151896793554885 
712	 0.155125261652939 
713	 0.158135411909123 
714	 0.16088179458342 
715	 0.16363185597753 
716	 0.166748260186202 
717	 0.169220422193777 
718	 0.171222779414657 
719	 0.173756264775079 
720	 0.176404195839903 
721	 0.178692103736498 
722	 0.179766879935548 
723	 0.180668024225213 
724	 0.182461989552018 
725	 0.1848223539083 
726	 0.187187699322566 
727	 0.188733510793918 
728	 0.189750957888806 
729	 0.190463455427771 
730	 0.191260889333211 
731	 0.19231246446878 
732	 0.193752418589318 
733	 0.19479236224383 
734	 0.195434954631564 
735	 0.19627086630092 
736	 0.197255530371498 
737	 0.198276047649406 
738	 0.198771852637885 
739	 0.199215718093028 
740	 0.200663216641047 
741	 0.201716608868617 
742	 0.201980527615795 
743	 0.201825125822071 
744	 0.201711206324378 
745	 0.202027573076206 
746	 0.20270777014432 
747	 0.203455512272346 
748	 0.203578959206221 
749	 0.203990267996065 
750	 0.204790823522353 
751	 0.204599595963571 
752	 0.204430744077503 
753	 0.205398208707067 
754	 0.206051825236188 
755	 0.206253313877516 
756	 0.206541702437475 
757	 0.206630619373745 
758	 0.206489704554093 
759	 0.206769995128936 
760	 0.20806670341363 
761	 0.210317318292545 
762	 0.21132624292328 
763	 0.211013149235374 
764	 0.210566030359908 
765	 0.210268116558814 
766	 0.210233612287378 
767	 0.210315149532436 
768	 0.210409576220485 
769	 0.210414982035785 
770	 0.210584799005632 
771	 0.210841990664016 
772	 0.210632031894474 
773	 0.210633880571184 
774	 0.211232210377061 
775	 0.211536178628183 
776	 0.211640079005998 
777	 0.211953251477824 
778	 0.212333944559593 
779	 0.212648315910254 
780	 0.212449604483907 
781	 0.212502465519873 
782	 0.213325136469899 
783	 0.213636584271168 
784	 0.213407628502339 
785	 0.213001783267259 
786	 0.212941770148146 
787	 0.213305692175819 
788	 0.213309711270188 
789	 0.21348043864363 
790	 0.214257898871793 
791	 0.214444954278392 
792	 0.214100577466352 
793	 0.213893618941742 
794	 0.213905991355887 
795	 0.214158484660835 
796	 0.214369884644667 
797	 0.214601248382258 
798	 0.2149125586358 
799	 0.214941930747568 
800	 0.214783229458427 
801	 0.214877457176889 
802	 0.214956402856559 
803	 0.214988567707305 
804	 0.215347076906327 
805	 0.215753936435014 
806	 0.215881959932591 
807	 0.215651553788195 
808	 0.21543111136996 
809	 0.216388736198443 
810	 0.216900938237187 
811	 0.216474699571803 
812	 0.217003457004403 
813	 0.217693956567378 
814	 0.217331567894302 
815	 0.217625196035219 
816	 0.218596875778757 
817	 0.218964282961629 
818	 0.218936592409432 
819	 0.218689019494072 
820	 0.218549656569944 
821	 0.219007852460421 
822	 0.220555698489641 
823	 0.221354990205057 
824	 0.221209698884313 
825	 0.220945055564822 
826	 0.221006612737443 
827	 0.22160305737211 
828	 0.222520448503871 
829	 0.222852546336424 
830	 0.221627379325868 
831	 0.221432409006053 
832	 0.222400021282223 
833	 0.223201751251597 
834	 0.223451934739561 
835	 0.223117091774838 
836	 0.223399096133643 
837	 0.223800026177702 
838	 0.223656848746833 
839	 0.223407519971643 
840	 0.223273506150418 
841	 0.223540367571655 
842	 0.224174870179821 
843	 0.224951444838657 
844	 0.224751773597812 
845	 0.224352264825036 
846	 0.224704936660366 
847	 0.225038517648245 
848	 0.225111890904742 
849	 0.224646899456681 
850	 0.224500548451698 
851	 0.224898678099959 
852	 0.224723609514634 
853	 0.224662271250804 
854	 0.225473679842883 
855	 0.22591433178642 
856	 0.225856384798986 
857	 0.225547051696438 
858	 0.225808562051828 
859	 0.226653287421552 
860	 0.226524729213551 
861	 0.225966259561599 
862	 0.225596262347455 
863	 0.225273671828172 
864	 0.225433647772246 
865	 0.22717908215994 
866	 0.228208264614257 
867	 0.227953658860759 
868	 0.228105946298741 
869	 0.228277784136201 
870	 0.228145970403894 
871	 0.228107039002355 
872	 0.228352301402555 
873	 0.229103821846825 
874	 0.230225170169218 
875	 0.231029984868484 
876	 0.228951604539842 
877	 0.227708356916896 
878	 0.229640061143369 
879	 0.230673903893182 
880	 0.230940882982858 
881	 0.231620530648812 
882	 0.231649945744768 
883	 0.231042256648038 
884	 0.23055714479324 
885	 0.231245468255845 
886	 0.233268141797767 
887	 0.23332848588773 
888	 0.232557281232762 
889	 0.232933453920891 
890	 0.233532916607288 
891	 0.233933613412857 
892	 0.233335784905149 
893	 0.233070759507469 
894	 0.23382479783819 
895	 0.23531045272388 
896	 0.23665350838778 
897	 0.236875571457173 
898	 0.237040480839834 
899	 0.23766337302163 
900	 0.239689531481204 
901	 0.23899941420488 
902	 0.235617297531621 
903	 0.236109752045685 
904	 0.236801981078373 
905	 0.235063290093651 
906	 0.235440891354634 
907	 0.237510473060955 
908	 0.239430250380151 
909	 0.239001881010965 
910	 0.237248263772624 
911	 0.241108916569485 
912	 0.24398762172044 
913	 0.242435877835368 
914	 0.240878567664728 
915	 0.240669500213454 
916	 0.242672051015759 
917	 0.242515022913617 
918	 0.240088511529902 
919	 0.237431433064704 
920	 0.236340539656758 
921	 0.237202974568314 
922	 0.237634808892723 
923	 0.237763318152015 
924	 0.237703312891382 
925	 0.236308409794481 
926	 0.234535119292472 
927	 0.234920270286537 
928	 0.235677019985365 
929	 0.235598455081344 
930	 0.231580355560797 
931	 0.231150993701005 
932	 0.238775762535157 
933	 0.234555787624666 
934	 0.225600397353262 
935	 0.227160499127305 
936	 0.235824647190989 
937	 0.245545826377589 
938	 0.24450607507932 
939	 0.238988213727105 
940	 0.233103561486872 
941	 0.23506239507308 
942	 0.236654822861943 
943	 0.23245251356305 
944	 0.231793904152931 
945	 0.23355804569459 
946	 0.233987407543248 
947	 0.234918091797149 
948	 0.236178435523151 
949	 0.23623855498324 
950	 0.235907743045839 
951	 0.235407177785445 
952	 0.234379432089801 
953	 0.2313822422018 
954	 0.225781252751097 
955	 0.224133825316701 
956	 0.226057163628285 
957	 0.228893184752936 
958	 0.229703624653344 
959	 0.227796562608692 
960	 0.223849008804957 
961	 0.221723240683259 
962	 0.222752303298263 
963	 0.222141493121347 
964	 0.222479950860963 
965	 0.22623445746489 
966	 0.228438907221898 
967	 0.22767001323716 
968	 0.222993505161312 
969	 0.21863263733848 
970	 0.216604690816726 
971	 0.218902407599647 
972	 0.220535000229731 
973	 0.219516246421836 
974	 0.222122468949673 
975	 0.226471793964673 
976	 0.229589060003207 
977	 0.229525255112674 
978	 0.226584020485331 
979	 0.222005892763843 
980	 0.222602294908021 
981	 0.227983892224521 
982	 0.228664380654573 
983	 0.228647819397331 
984	 0.229881278011272 
985	 0.229961653217432 
986	 0.230186255864391 
987	 0.231641210821318 
988	 0.226558843361115 
989	 0.219688016239565 
990	 0.22303981650584 
991	 0.226619333631971 
992	 0.227983365393663 
993	 0.229352027977619 
994	 0.231739180944387 
995	 0.234348454077174 
996	 0.229580720079313 
997	 0.223677030084674 
998	 0.22362066352233 
999	 0.228841128427153 
1000	 0.23570237201887 
1001	 0.238387510394712 
1002	 0.234203510626669 
1003	 0.226146478051845 
1004	 0.226142041413903 
1005	 0.229256648024956 
1006	 0.232312184954389 
1007	 0.229982259617821 
1008	 0.227953561481257 
1009	 0.230476509073932 
1010	 0.232129645780628 
1011	 0.23145549219891 
1012	 0.22778680008925 
1013	 0.232231844764217 
1014	 0.240758825470142 
1015	 0.238107428603565 
1016	 0.235141198413324 
1017	 0.235241373414946 
1018	 0.237698312069349 
1019	 0.238034356129181 
1020	 0.234695262657798 
1021	 0.23451341514683 
1022	 0.237223233647795 
1023	 0.241479354217485 
1024	 0.243946038267334 
1025	 0.244186633339113 
1026	 0.24265909887855 
1027	 0.241377736816892 
1028	 0.241580904829835 
1029	 0.245361755862559 
1030	 0.245700889320271 
1031	 0.241036780236218 
1032	 0.236436213290234 
1033	 0.236481245504565 
1034	 0.242237684206895 
1035	 0.24140241112653 
1036	 0.236632043515604 
1037	 0.232095837177228 
1038	 0.229549275240264 
1039	 0.232604445657376 
1040	 0.245811187908269 
1041	 0.254785557775472 
1042	 0.256581085994999 
1043	 0.255804386640092 
1044	 0.253398641540784 
1045	 0.252524713620768 
1046	 0.263695839290579 
1047	 0.264262861446667 
1048	 0.243821542053813 
1049	 0.231286811581614 
1050	 0.233139751871356 
1051	 0.247869618583975 
1052	 0.238567241477741 
1053	 0.219053355590268 
1054	 0.220606334720223 
1055	 0.236937805913495 
1056	 0.259484947549723 
1057	 0.274924945485878 
1058	 0.263109839365023 
1059	 0.229256716670904 
1060	 0.228717880526322 
1061	 0.238613328309428 
1062	 0.247386960448537 
1063	 0.25105611905732 
1064	 0.24498988042763 
1065	 0.232418809391011 
1066	 0.251008656435941 
1067	 0.267454311087914 
1068	 0.246154562993056 
1069	 0.236829313410435 
1070	 0.244446249934063 
1071	 0.258917957754311 
1072	 0.251566276530247 
1073	 0.231911773877604 
1074	 0.241601135731555 
1075	 0.240162978122392 
