Wavelength	A00300.asd
325	 6.02378591522166E-02 
326	 5.82051417711499E-02 
327	 6.67256956306859E-02 
328	 6.80339887663293E-02 
329	 7.09142853809425E-02 
330	 7.60756170023704E-02 
331	 7.04223123505478E-02 
332	 6.62266229623317E-02 
333	 7.51854927124794E-02 
334	 7.64827202474886E-02 
335	 7.18311665910132E-02 
336	 7.32030931848522E-02 
337	 7.44994342929315E-02 
338	 7.43899194018293E-02 
339	 7.56746141812852E-02 
340	 7.51183378284025E-02 
341	 7.07157375170236E-02 
342	 7.07646581348404E-02 
343	 7.40193045157225E-02 
344	 7.63061029724016E-02 
345	 7.48052230673703E-02 
346	 7.04877650977982E-02 
347	 7.00540526848534E-02 
348	 7.19997883050595E-02 
349	 0.074670082551808 
350	 0.074952276685956 
351	 7.34547420022288E-02 
352	 7.17891652949353E-02 
353	 6.98731513831561E-02 
354	 6.85945042096944E-02 
355	 7.08727386572546E-02 
356	 7.20938785147837E-02 
357	 7.01647165974095E-02 
358	 7.21861304821243E-02 
359	 7.53544391114462E-02 
360	 7.44065435451167E-02 
361	 7.13594721966088E-02 
362	 6.88127285037238E-02 
363	 7.37707370515986E-02 
364	 7.59664824932809E-02 
365	 7.13144401329404E-02 
366	 7.16086785555968E-02 
367	 7.33253773969945E-02 
368	 7.01896455941035E-02 
369	 6.92636663018648E-02 
370	 0.070704580238979 
371	 6.92005432816255E-02 
372	 6.88213887050791E-02 
373	 7.12016861942477E-02 
374	 7.15158476524008E-02 
375	 7.07420807736587E-02 
376	 7.09235689393533E-02 
377	 7.12981479634727E-02 
378	 0.07143136465306 
379	 7.03758175348885E-02 
380	 6.95618772249336E-02 
381	 0.069612132784168 
382	 6.91798222489864E-02 
383	 6.89991647267252E-02 
384	 7.01741834865456E-02 
385	 7.19945162044636E-02 
386	 7.32585667112846E-02 
387	 7.12133683912987E-02 
388	 6.98219296755552E-02 
389	 7.04939659160534E-02 
390	 6.97740351366956E-02 
391	 6.92503847924101E-02 
392	 7.09990156551711E-02 
393	 7.02956473092586E-02 
394	 6.78907525232091E-02 
395	 6.88562680415812E-02 
396	 6.96889373412796E-02 
397	 6.91697845350356E-02 
398	 6.93157640801798E-02 
399	 6.93494891354064E-02 
400	 6.84021585009788E-02 
401	 6.80531487701151E-02 
402	 6.83692492568953E-02 
403	 6.88185285736019E-02 
404	 6.92209556594277E-02 
405	 6.94776182005629E-02 
406	 0.069607591269684 
407	 6.97646083819343E-02 
408	 7.01228106255628E-02 
409	 7.02149396285931E-02 
410	 6.99073709206403E-02 
411	 6.89848720125237E-02 
412	 6.87308982875227E-02 
413	 6.95625363308149E-02 
414	 7.00153863235227E-02 
415	 0.069814358456804 
416	 0.068825574597566 
417	 6.86227256030063E-02 
418	 6.92627401980807E-02 
419	 6.96923031899875E-02 
420	 6.97795208318063E-02 
421	 6.95273303417265E-02 
422	 6.96466359576844E-02 
423	 6.99123390369376E-02 
424	 6.98745638823561E-02 
425	 6.99184565614513E-02 
426	 7.01224132368675E-02 
427	 7.04685559172992E-02 
428	 7.05137464575998E-02 
429	 7.00699157871992E-02 
430	 7.00814026048456E-02 
431	 7.04029848735381E-02 
432	 7.06105406532854E-02 
433	 0.070091839649261 
434	 6.91403281918193E-02 
435	 6.93504798252474E-02 
436	 6.96955114588434E-02 
437	 6.95632040343109E-02 
438	 7.01073295926745E-02 
439	 7.08669254001482E-02 
440	 7.07389412617839E-02 
441	 7.04960081421299E-02 
442	 7.03874279774985E-02 
443	 7.04159913100457E-02 
444	 7.04465999766933E-02 
445	 7.03799255171623E-02 
446	 7.04085046467107E-02 
447	 7.04987531179527E-02 
448	 0.070489526722658 
449	 7.06310123004744E-02 
450	 7.08861070250527E-02 
451	 7.06232569091924E-02 
452	 7.04256226319253E-02 
453	 7.08674104437441E-02 
454	 7.11493095055385E-02 
455	 0.071172764618957 
456	 7.11027192067637E-02 
457	 7.11860927938569E-02 
458	 7.14989798922525E-02 
459	 7.17956336055835E-02 
460	 7.18602511688521E-02 
461	 7.14846259050198E-02 
462	 7.12427026959349E-02 
463	 7.11840772055688E-02 
464	 7.09457661468691E-02 
465	 7.09116966284518E-02 
466	 7.12204259787516E-02 
467	 7.13745734115139E-02 
468	 7.13615570563801E-02 
469	 7.12499257864018E-02 
470	 7.15085316676892E-02 
471	 7.20069110296038E-02 
472	 7.18470112973416E-02 
473	 7.15533486588789E-02 
474	 7.14829729156097E-02 
475	 0.071584556708379 
476	 7.18193824292803E-02 
477	 7.21523699197819E-02 
478	 7.21454224338122E-02 
479	 7.17804119334406E-02 
480	 7.15058737580582E-02 
481	 7.16503342371924E-02 
482	 7.23671764624323E-02 
483	 7.23093445794614E-02 
484	 7.17452454607923E-02 
485	 7.18838437010963E-02 
486	 7.21328820756018E-02 
487	 7.23439731992788E-02 
488	 7.28887064936008E-02 
489	 7.30413170305047E-02 
490	 7.21493295037544E-02 
491	 7.17589048945348E-02 
492	 7.20293592916714E-02 
493	 7.25095876282549E-02 
494	 7.29527414467011E-02 
495	 7.31707231923047E-02 
496	 7.29879654254663E-02 
497	 7.27562579994603E-02 
498	 7.29379808790866E-02 
499	 7.32998162343469E-02 
500	 7.36723196316698E-02 
501	 7.36279751317021E-02 
502	 7.39160167885354E-02 
503	 7.48510073610588E-02 
504	 7.51618643190207E-02 
505	 7.50812803587796E-02 
506	 7.52616942719468E-02 
507	 7.55735016449738E-02 
508	 7.60151783954268E-02 
509	 7.66485081307471E-02 
510	 0.077227678443468 
511	 0.077574205966068 
512	 7.79953011707697E-02 
513	 7.85078747804521E-02 
514	 7.90091995470868E-02 
515	 7.95948473213616E-02 
516	 0.080278841504987 
517	 8.09265954573839E-02 
518	 0.081652892793155 
519	 8.25689045555579E-02 
520	 8.33564889307745E-02 
521	 8.40404093020876E-02 
522	 8.48923155497571E-02 
523	 8.57716367859244E-02 
524	 8.65929533103681E-02 
525	 8.72007781559446E-02 
526	 8.77578526325064E-02 
527	 8.85080035868205E-02 
528	 8.92370057499445E-02 
529	 8.99147628564288E-02 
530	 9.06937944379128E-02 
531	 9.13493032885403E-02 
532	 9.17570166684521E-02 
533	 9.22072173652062E-02 
534	 0.092727705768331 
535	 9.32951873714787E-02 
536	 9.37344389337442E-02 
537	 9.40136612977419E-02 
538	 9.42550408342937E-02 
539	 0.094606920131413 
540	 9.51909294300557E-02 
541	 9.57841433619219E-02 
542	 9.62574332431079E-02 
543	 9.64236293084854E-02 
544	 9.65699947268265E-02 
545	 9.68335258438542E-02 
546	 9.71749503872759E-02 
547	 9.75187207860139E-02 
548	 9.77704552012563E-02 
549	 9.80159764424599E-02 
550	 9.83596887891817E-02 
551	 9.91208352949187E-02 
552	 9.96812508382359E-02 
553	 9.96686004838952E-02 
554	 9.95195009335484E-02 
555	 0.099469806941869 
556	 9.98348234524685E-02 
557	 0.100076929281336 
558	 0.100049921255375 
559	 9.99704597215925E-02 
560	 0.100019808484827 
561	 0.100310914108765 
562	 0.100151565245562 
563	 9.96591826733253E-02 
564	 9.94745743822161E-02 
565	 9.93166736629224E-02 
566	 9.90851297535911E-02 
567	 9.88407136245181E-02 
568	 9.84583804573529E-02 
569	 9.77815334580349E-02 
570	 9.73862473310968E-02 
571	 9.73441834070009E-02 
572	 9.73857076222435E-02 
573	 9.71817222274502E-02 
574	 9.66117302199242E-02 
575	 9.66013661683435E-02 
576	 9.67480919625716E-02 
577	 9.60917340174407E-02 
578	 9.53301624908652E-02 
579	 9.47453757681094E-02 
580	 0.094458360319205 
581	 9.44292676038392E-02 
582	 9.45729956067461E-02 
583	 9.44182559195183E-02 
584	 0.09401841102687 
585	 9.37346296664802E-02 
586	 0.093617399577434 
587	 9.36137243024833E-02 
588	 9.31491473892829E-02 
589	 9.26054214986776E-02 
590	 9.25554429449744E-02 
591	 9.25111116839782E-02 
592	 9.23554503465501E-02 
593	 9.20806721795172E-02 
594	 9.19922619357484E-02 
595	 9.22153186264675E-02 
596	 9.21955168366639E-02 
597	 9.19805288239523E-02 
598	 0.091792403993008 
599	 9.15958097034228E-02 
600	 9.13837440196314E-02 
601	 9.11304848531084E-02 
602	 9.08459420253875E-02 
603	 0.090565053087613 
604	 9.06455373934968E-02 
605	 9.08136234150955E-02 
606	 9.01603944377143E-02 
607	 8.98293053128419E-02 
608	 9.01248804506116E-02 
609	 8.98813215683424E-02 
610	 8.93328542620975E-02 
611	 8.89077397351532E-02 
612	 8.88388503258451E-02 
613	 8.90091905846032E-02 
614	 8.88403723373065E-02 
615	 8.84026832838708E-02 
616	 8.78103776814002E-02 
617	 8.76202465498945E-02 
618	 8.76535982657846E-02 
619	 8.74606085588772E-02 
620	 8.72038268773268E-02 
621	 0.086945270456644 
622	 8.68102102452702E-02 
623	 8.65954438624968E-02 
624	 8.61543984363982E-02 
625	 8.60716225494777E-02 
626	 8.63080954972529E-02 
627	 0.086490614831487 
628	 0.086617688819078 
629	 8.66276765903613E-02 
630	 8.63245011312082E-02 
631	 8.60233439879571E-02 
632	 8.61222031777552E-02 
633	 8.60948207431914E-02 
634	 8.58755246891259E-02 
635	 0.085687605887027 
636	 8.55573358969133E-02 
637	 0.085428178107526 
638	 8.46920949671479E-02 
639	 8.37350808001103E-02 
640	 8.33683936555896E-02 
641	 0.08310848351539 
642	 8.27792080423596E-02 
643	 8.22543495819806E-02 
644	 8.17426608169975E-02 
645	 8.14101265596537E-02 
646	 8.09080696888175E-02 
647	 8.02517979223726E-02 
648	 7.95974239878207E-02 
649	 7.92602524855453E-02 
650	 7.92912382859285E-02 
651	 7.90799427003947E-02 
652	 7.88404471495694E-02 
653	 7.88835808498483E-02 
654	 7.87016321197594E-02 
655	 7.82930336854606E-02 
656	 7.81389122536792E-02 
657	 7.81227186108299E-02 
658	 7.80712246329295E-02 
659	 7.72744610828324E-02 
660	 7.63693286956425E-02 
661	 7.65251416485158E-02 
662	 7.62548310172888E-02 
663	 7.53582291278721E-02 
664	 7.48454702187398E-02 
665	 7.47665481863169E-02 
666	 7.50640904832002E-02 
667	 7.48655601542213E-02 
668	 7.42764403125695E-02 
669	 0.073973033138067 
670	 7.35813509776523E-02 
671	 7.31528315342057E-02 
672	 7.36266732951699E-02 
673	 7.41750300718248E-02 
674	 7.38033650629237E-02 
675	 7.35196281408133E-02 
676	 7.35510404812546E-02 
677	 7.38378529001106E-02 
678	 7.41840729148571E-02 
679	 7.44600691583588E-02 
680	 7.46518208670455E-02 
681	 7.48143997992318E-02 
682	 7.50209207928922E-02 
683	 7.55880934687738E-02 
684	 7.64962232643308E-02 
685	 0.077313006582029 
686	 7.81425589224954E-02 
687	 7.91009285378351E-02 
688	 8.05694523334885E-02 
689	 8.24181970610897E-02 
690	 8.44620441233865E-02 
691	 8.67892892837893E-02 
692	 8.93796120544239E-02 
693	 9.17735820811046E-02 
694	 9.44987857732463E-02 
695	 9.79729333275242E-02 
696	 0.101437159088013 
697	 0.104694708487636 
698	 0.107755912890572 
699	 0.110999132141502 
700	 0.114555021363399 
701	 0.118164493562848 
702	 0.121889999098941 
703	 0.125864399207777 
704	 0.129640689597368 
705	 0.133178971448565 
706	 0.136635735342262 
707	 0.140029898495133 
708	 0.143358238566685 
709	 0.146466846435733 
710	 0.149500086359423 
711	 0.152779032975947 
712	 0.156121776740906 
713	 0.159309572545562 
714	 0.161775210176569 
715	 0.164014031158373 
716	 0.166645577811268 
717	 0.169488027714962 
718	 0.172456730408518 
719	 0.174989347855822 
720	 0.177092439084806 
721	 0.17882496269284 
722	 0.180816651888991 
723	 0.182504950679855 
724	 0.183040018642467 
725	 0.184925878336703 
726	 0.18788846406963 
727	 0.18968537376975 
728	 0.190799437171868 
729	 0.191524262320235 
730	 0.192351857121831 
731	 0.193395763511883 
732	 0.194699485511045 
733	 0.195566325218807 
734	 0.196057344307989 
735	 0.196847534525969 
736	 0.197916424070817 
737	 0.199127937178131 
738	 0.199608593902279 
739	 0.199833157116182 
740	 0.20092497838821 
741	 0.201855275998558 
742	 0.202378408521789 
743	 0.202938275570817 
744	 0.203323163330214 
745	 0.203399635032851 
746	 0.203893184561027 
747	 0.204568396823041 
748	 0.204494918535091 
749	 0.204756245505596 
750	 0.205552947146934 
751	 0.205714769711226 
752	 0.205714290280925 
753	 0.20612743037295 
754	 0.206555603836942 
755	 0.206939915349912 
756	 0.207420674649231 
757	 0.20744725250879 
758	 0.20693509378583 
759	 0.207553859963265 
760	 0.209786742497747 
761	 0.211921367146625 
762	 0.212318564883079 
763	 0.211460623776379 
764	 0.210932607699803 
765	 0.210957007032452 
766	 0.211364007290485 
767	 0.210853711479421 
768	 0.210246050769492 
769	 0.210608445379327 
770	 0.210919836746203 
771	 0.211015135095214 
772	 0.211188041965161 
773	 0.211600926646669 
774	 0.212270179077828 
775	 0.212349127534206 
776	 0.212135565173847 
777	 0.212369837551966 
778	 0.212856654516478 
779	 0.213402581723284 
780	 0.213405457732783 
781	 0.213429433443798 
782	 0.213902280585073 
783	 0.214228186978861 
784	 0.214421593077649 
785	 0.214751922992603 
786	 0.214833451724003 
787	 0.214612873686923 
788	 0.214443897744278 
789	 0.21446568479382 
790	 0.214754521504833 
791	 0.214760666498756 
792	 0.214607512424173 
793	 0.214848700441827 
794	 0.215204243665341 
795	 0.215514602715512 
796	 0.215499556599026 
797	 0.215438451145015 
798	 0.215605168909501 
799	 0.215474633880392 
800	 0.215152362724338 
801	 0.215160786651775 
802	 0.215316239101733 
803	 0.215573727226227 
804	 0.216077118303658 
805	 0.216411716516241 
806	 0.21616181767102 
807	 0.216002452699558 
808	 0.216167558102754 
809	 0.216912652571709 
810	 0.217501996016799 
811	 0.217601547032552 
812	 0.217480986571951 
813	 0.217539178726641 
814	 0.218258782200527 
815	 0.219178329097686 
816	 0.220080091632413 
817	 0.220962007809815 
818	 0.220693281805859 
819	 0.219326218654064 
820	 0.219779515506811 
821	 0.220914727637983 
822	 0.221148468883574 
823	 0.221645854664568 
824	 0.222309229665945 
825	 0.222227641883001 
826	 0.222311133458887 
827	 0.222883567894085 
828	 0.223406508318068 
829	 0.223420760986732 
830	 0.222504302624689 
831	 0.222586461614208 
832	 0.223569436334105 
833	 0.223859269942785 
834	 0.224036520733142 
835	 0.224351639215962 
836	 0.225006215150762 
837	 0.225331018906909 
838	 0.224614370309696 
839	 0.224481326901022 
840	 0.224834235736777 
841	 0.224149317896379 
842	 0.224449200199132 
843	 0.226079617575311 
844	 0.225720483351899 
845	 0.224865532463196 
846	 0.22544079159423 
847	 0.22567536272969 
848	 0.225439672808123 
849	 0.225327791013122 
850	 0.225674289029111 
851	 0.2264351504588 
852	 0.226346649148165 
853	 0.226081301947964 
854	 0.226438943729923 
855	 0.226587443785247 
856	 0.226427698616389 
857	 0.2260527237727 
858	 0.226071875704105 
859	 0.226505118503052 
860	 0.226213311071905 
861	 0.225874013618523 
862	 0.226139533253608 
863	 0.225911832139727 
864	 0.225731104315369 
865	 0.22737415847 
866	 0.22871121189909 
867	 0.228842149573609 
868	 0.227429005246796 
869	 0.226635071221811 
870	 0.228115697862875 
871	 0.23036181410348 
872	 0.231759237886583 
873	 0.229669686797777 
874	 0.229182999421597 
875	 0.230868711687532 
876	 0.229871138828358 
877	 0.229198083402455 
878	 0.230825819539942 
879	 0.232267794863106 
880	 0.232953523495809 
881	 0.232570848824744 
882	 0.232059669733478 
883	 0.231884991963758 
884	 0.232423613421451 
885	 0.233432598614074 
886	 0.234580375821571 
887	 0.234824255974534 
888	 0.23465213694737 
889	 0.234876796955634 
890	 0.235538037014646 
891	 0.236173937880366 
892	 0.235306321832431 
893	 0.233992051945604 
894	 0.233143870946916 
895	 0.234608173537826 
896	 0.237085645968126 
897	 0.238663269972404 
898	 0.237862053895031 
899	 0.236410224852982 
900	 0.239771344927151 
901	 0.239921257591957 
902	 0.235984771458363 
903	 0.236509096891861 
904	 0.237742976515969 
905	 0.236802582477836 
906	 0.236829021421416 
907	 0.238128149494153 
908	 0.240543885425153 
909	 0.240571090787735 
910	 0.23848317010541 
911	 0.239674303595186 
912	 0.241700997807063 
913	 0.242739594795108 
914	 0.240871451431201 
915	 0.23897859984323 
916	 0.240642499113368 
917	 0.241163416798094 
918	 0.240078308931489 
919	 0.238705458278479 
920	 0.238500645252015 
921	 0.23962942934583 
922	 0.239551572691967 
923	 0.239599607843516 
924	 0.240848918866214 
925	 0.240085302649593 
926	 0.238341680378445 
927	 0.239171139564672 
928	 0.239286280191188 
929	 0.23767098360304 
930	 0.234934357047598 
931	 0.235994608389552 
932	 0.24333082798558 
933	 0.240240584288343 
934	 0.233508412356773 
935	 0.236917441932017 
936	 0.24048189022126 
937	 0.241550552906586 
938	 0.240287483549901 
939	 0.235305751247918 
940	 0.228840040476303 
941	 0.231993713626431 
942	 0.234910278806782 
943	 0.231195875319662 
944	 0.233698396478397 
945	 0.23656847613181 
946	 0.228281891407694 
947	 0.227180327900158 
948	 0.233971410788786 
949	 0.234950515618258 
950	 0.234568734529461 
951	 0.234377724682706 
952	 0.233276267748091 
953	 0.230767799053499 
954	 0.22682534894176 
955	 0.225299551883803 
956	 0.225338949261619 
957	 0.224346730736454 
958	 0.221745585124327 
959	 0.218414936064417 
960	 0.216973467049172 
961	 0.21989214791299 
962	 0.226632154388492 
963	 0.228873154147937 
964	 0.228495380966637 
965	 0.227952895309658 
966	 0.226263098436502 
967	 0.224113058707456 
968	 0.222893184071844 
969	 0.220696275848058 
970	 0.218439913877268 
971	 0.22178714130804 
972	 0.223097176018111 
973	 0.21942978887066 
974	 0.220169438755299 
975	 0.224748319358742 
976	 0.230961616342395 
977	 0.232663685201131 
978	 0.229966788467845 
979	 0.225966691769559 
980	 0.222960879915907 
981	 0.222152397507368 
982	 0.224369448842807 
983	 0.224780320139645 
984	 0.222152953563171 
985	 0.226589394172939 
986	 0.233487915571819 
987	 0.236578171951081 
988	 0.230396998316599 
989	 0.22107582390479 
990	 0.222618433129555 
991	 0.224762059321859 
992	 0.225589349594374 
993	 0.229459371712537 
994	 0.231595714816533 
995	 0.229725648074629 
996	 0.225923751455674 
997	 0.222603418346436 
998	 0.222092760923708 
999	 0.223335690691597 
1000	 0.227085255525093 
1001	 0.235061648797894 
1002	 0.232080312600904 
1003	 0.2213697623008 
1004	 0.228207737837534 
1005	 0.230206487198949 
1006	 0.222260940548217 
1007	 0.227143164884181 
1008	 0.234099145329142 
1009	 0.233667548318921 
1010	 0.22851548773996 
1011	 0.225737157726758 
1012	 0.234061700292468 
1013	 0.235113207560575 
1014	 0.23087802848823 
1015	 0.236386453815091 
1016	 0.241875490207116 
1017	 0.24356922823359 
1018	 0.238765145799052 
1019	 0.238771793481956 
1020	 0.247082441732954 
1021	 0.242425998536134 
1022	 0.237391795146006 
1023	 0.244394928692492 
1024	 0.242547621487458 
1025	 0.236131172810022 
1026	 0.237620156364076 
1027	 0.238458987340757 
1028	 0.239183427129219 
1029	 0.248278690471924 
1030	 0.25178712461094 
1031	 0.247734336265456 
1032	 0.251533549745566 
1033	 0.258113714416409 
1034	 0.261975320747659 
1035	 0.253005096401803 
1036	 0.244696110896526 
1037	 0.250564671518157 
1038	 0.254113860862824 
1039	 0.253030861876418 
1040	 0.248950063109521 
1041	 0.247241243211062 
1042	 0.247789167469527 
1043	 0.244762734551167 
1044	 0.246185090508211 
1045	 0.254204694461636 
1046	 0.268451590192906 
1047	 0.261011941377896 
1048	 0.223116551053621 
1049	 0.218011428251925 
1050	 0.231301056539798 
1051	 0.242208298431708 
1052	 0.248204635471254 
1053	 0.244987722451459 
1054	 0.229807719949175 
1055	 0.250293427230047 
1056	 0.289713353365124 
1057	 0.287185918179569 
1058	 0.261413150806956 
1059	 0.228905983738254 
1060	 0.243770590565925 
1061	 0.257173148335416 
1062	 0.251377040925178 
1063	 0.256574385806904 
1064	 0.256279722363634 
1065	 0.242266598381475 
1066	 0.247582463655977 
1067	 0.256558036055557 
1068	 0.250351955251483 
1069	 0.247934115785217 
1070	 0.241616549171735 
1071	 0.214483247782559 
1072	 0.233334648611035 
1073	 0.269301850793534 
1074	 0.21125417418603 
1075	 0.199616326763698 
