Wavelength	A00370.asd
325	 3.17500399469815E-02 
326	 3.47825802380182E-02 
327	 3.88715642781894E-02 
328	 4.00272240422323E-02 
329	 4.13912036564415E-02 
330	 4.30121339912946E-02 
331	 3.83156635441097E-02 
332	 3.58915528123115E-02 
333	 4.36183609123061E-02 
334	 4.44088025380672E-02 
335	 4.04905531678636E-02 
336	 4.38935593688547E-02 
337	 0.045744632216323 
338	 0.044143586191233 
339	 4.36329075272684E-02 
340	 4.23851361526772E-02 
341	 3.92953237980343E-02 
342	 4.06099164082909E-02 
343	 4.50980412592781E-02 
344	 4.98202002493465E-02 
345	 4.66511028054344E-02 
346	 3.79625362055089E-02 
347	 4.18690393293752E-02 
348	 4.62173646318947E-02 
349	 4.33597027212105E-02 
350	 4.30329853262861E-02 
351	 4.40877370100441E-02 
352	 4.28399672167888E-02 
353	 4.12042686845103E-02 
354	 4.05073561178435E-02 
355	 4.41408324339387E-02 
356	 4.50084441393335E-02 
357	 4.01552551822163E-02 
358	 4.20670381533158E-02 
359	 4.66890842714299E-02 
360	 4.58177788761044E-02 
361	 4.53076472860625E-02 
362	 4.59539220427507E-02 
363	 4.59013695096446E-02 
364	 4.45222314610215E-02 
365	 4.20978970682912E-02 
366	 4.27722694804411E-02 
367	 4.39387408095228E-02 
368	 4.15982491464635E-02 
369	 4.17286954652025E-02 
370	 4.42453993066334E-02 
371	 4.40394893670534E-02 
372	 4.40541487181736E-02 
373	 4.54944224273969E-02 
374	 4.52390062587116E-02 
375	 0.044382027476904 
376	 4.48137129427662E-02 
377	 4.47005557510898E-02 
378	 4.38386115003363E-02 
379	 0.042784595084692 
380	 0.04268777476382 
381	 4.39487778105578E-02 
382	 4.51143597234653E-02 
383	 4.52972732279137E-02 
384	 4.36171647423082E-02 
385	 4.46689169468256E-02 
386	 4.74572700292568E-02 
387	 4.55565703689172E-02 
388	 4.39669670326129E-02 
389	 4.44657458434696E-02 
390	 4.29659038277299E-02 
391	 0.042463481839283 
392	 4.65881892167673E-02 
393	 4.64020134928198E-02 
394	 4.26482168334918E-02 
395	 0.043098424299055 
396	 0.043695280506921 
397	 4.30921497366389E-02 
398	 4.38402043447559E-02 
399	 4.39606977917422E-02 
400	 4.14888172645409E-02 
401	 4.15417690579978E-02 
402	 4.35455945402506E-02 
403	 0.043859218333153 
404	 4.39470992282363E-02 
405	 4.43048978932652E-02 
406	 4.42260455054374E-02 
407	 4.42159083435812E-02 
408	 4.49291237420377E-02 
409	 4.47192452568079E-02 
410	 4.37633408640832E-02 
411	 0.043467150039976 
412	 4.39856087045575E-02 
413	 4.50969432010772E-02 
414	 4.49237139988308E-02 
415	 4.42461965820966E-02 
416	 4.42994977121062E-02 
417	 4.42116875634259E-02 
418	 4.40072006059621E-02 
419	 4.43481471077379E-02 
420	 4.46748865510205E-02 
421	 4.47444241760754E-02 
422	 4.52179652004315E-02 
423	 0.045649853415772 
424	 4.53101817855433E-02 
425	 4.50338462533186E-02 
426	 4.51100000504089E-02 
427	 4.57205929366691E-02 
428	 4.62880243708909E-02 
429	 4.64174172007346E-02 
430	 4.63246797358266E-02 
431	 4.61390790764005E-02 
432	 4.60339886507308E-02 
433	 4.56801918803905E-02 
434	 4.52606409618398E-02 
435	 4.57431410831593E-02 
436	 4.59587585131376E-02 
437	 4.52931787024602E-02 
438	 4.57475974317324E-02 
439	 4.66303289701961E-02 
440	 4.61351542986061E-02 
441	 4.58927976282265E-02 
442	 4.62216620480854E-02 
443	 4.62588665016573E-02 
444	 4.63699836852855E-02 
445	 4.68307228221945E-02 
446	 0.047080252611742 
447	 4.71340388033425E-02 
448	 4.72495629788731E-02 
449	 4.72672298323343E-02 
450	 4.72626274154841E-02 
451	 0.047837942761565 
452	 4.83640278048531E-02 
453	 0.04821723266123 
454	 0.048098407067347 
455	 4.81177510109472E-02 
456	 4.81677316445399E-02 
457	 0.04820277384826 
458	 4.82116991607739E-02 
459	 4.82856595650044E-02 
460	 0.048370915312653 
461	 4.83956665631706E-02 
462	 0.048361975041308 
463	 4.82882692364283E-02 
464	 4.82069976258744E-02 
465	 4.81965061533817E-02 
466	 4.83418258945849E-02 
467	 4.89200216695036E-02 
468	 4.94272647602615E-02 
469	 4.91178259726804E-02 
470	 4.87064527354914E-02 
471	 4.85181096249995E-02 
472	 4.88798492743521E-02 
473	 4.94628537967021E-02 
474	 0.049933377307092 
475	 0.049484062404672 
476	 4.87665137537888E-02 
477	 4.91132810504697E-02 
478	 4.91424559080556E-02 
479	 4.87407725048254E-02 
480	 4.91360992996263E-02 
481	 4.97527934211705E-02 
482	 5.00790111840676E-02 
483	 0.050046932243635 
484	 4.98662784329771E-02 
485	 5.00888468545487E-02 
486	 5.02554932726915E-02 
487	 5.02331704036202E-02 
488	 0.0502779661026 
489	 0.050208725751782 
490	 4.98594653403691E-02 
491	 4.97234209211535E-02 
492	 4.99473528102746E-02 
493	 5.07291440315319E-02 
494	 5.11252626837004E-02 
495	 5.07801148897236E-02 
496	 5.03842822918219E-02 
497	 5.02913111513192E-02 
498	 5.08490124109856E-02 
499	 5.13039271291059E-02 
500	 5.14579845556759E-02 
501	 5.13714693976402E-02 
502	 5.14297677143738E-02 
503	 5.18012523849651E-02 
504	 5.17547869826834E-02 
505	 5.16401786772497E-02 
506	 0.052194968888339 
507	 0.05261166651845 
508	 5.27301112718225E-02 
509	 5.29532610006233E-02 
510	 0.052975025463954 
511	 5.26235153931046E-02 
512	 5.28359274728196E-02 
513	 5.35350514509945E-02 
514	 5.42611022026398E-02 
515	 5.44762427351405E-02 
516	 5.40916656546761E-02 
517	 0.053998861722759 
518	 5.41817949567896E-02 
519	 5.45261125800311E-02 
520	 5.47817131503757E-02 
521	 5.49845601782257E-02 
522	 5.54329299863866E-02 
523	 5.58001023316808E-02 
524	 5.59940647970835E-02 
525	 5.64997032155464E-02 
526	 5.69766310649307E-02 
527	 5.68777427023216E-02 
528	 5.68762515531723E-02 
529	 5.71080270646949E-02 
530	 5.73674833746994E-02 
531	 5.76618390614015E-02 
532	 5.79850992553027E-02 
533	 5.82629985652588E-02 
534	 5.84748131191558E-02 
535	 0.058606759411714 
536	 5.87229383096721E-02 
537	 5.88643056781779E-02 
538	 5.90530641096586E-02 
539	 5.93885430457672E-02 
540	 5.99186662264921E-02 
541	 0.059843456702737 
542	 5.93932865658731E-02 
543	 0.059579212520389 
544	 5.98923797190868E-02 
545	 6.01436241565319E-02 
546	 6.05089829603449E-02 
547	 6.07754000512278E-02 
548	 6.06584099836665E-02 
549	 6.07546586349919E-02 
550	 6.11611105263212E-02 
551	 6.16477810003875E-02 
552	 6.21108497814087E-02 
553	 6.24414861824676E-02 
554	 0.062399815103027 
555	 6.22464106588044E-02 
556	 6.25184871388969E-02 
557	 6.27499671584057E-02 
558	 6.28182859167642E-02 
559	 6.28886923027693E-02 
560	 6.29374495618326E-02 
561	 6.29522037256142E-02 
562	 6.31720093160688E-02 
563	 6.34229802263632E-02 
564	 6.30985409488929E-02 
565	 6.29952993012813E-02 
566	 6.33230500194177E-02 
567	 6.31555898761313E-02 
568	 6.28760969791352E-02 
569	 6.30698021707618E-02 
570	 6.33762144540386E-02 
571	 6.36424836104183E-02 
572	 0.063696573794008 
573	 0.063647187523418 
574	 6.36095861163824E-02 
575	 0.063949674320974 
576	 6.43251452047324E-02 
577	 6.40217871033771E-02 
578	 6.37066463102306E-02 
579	 6.35863749704015E-02 
580	 6.35010086152448E-02 
581	 6.35781722878457E-02 
582	 6.39158640343375E-02 
583	 6.43331486502831E-02 
584	 6.46340401901751E-02 
585	 6.43874972512884E-02 
586	 6.43860523127449E-02 
587	 6.48136488022394E-02 
588	 6.46089564004757E-02 
589	 6.41164376421506E-02 
590	 6.39229043908834E-02 
591	 6.39852094373666E-02 
592	 0.064210992425038 
593	 6.43001469902458E-02 
594	 6.44521831513791E-02 
595	 6.47475718156747E-02 
596	 6.48850394078938E-02 
597	 6.49002591711894E-02 
598	 6.49248144572106E-02 
599	 0.065014624760864 
600	 6.51042242483758E-02 
601	 6.47816337593346E-02 
602	 6.45222689134192E-02 
603	 6.47373969738829E-02 
604	 6.50040990319635E-02 
605	 0.065143069835208 
606	 6.48837374013004E-02 
607	 6.47753088753964E-02 
608	 6.49869673472024E-02 
609	 6.50523515416023E-02 
610	 0.064893965161244 
611	 6.44793717904711E-02 
612	 6.45104229792668E-02 
613	 6.48961513606335E-02 
614	 6.47121755816908E-02 
615	 6.44315932730901E-02 
616	 6.43670403269232E-02 
617	 6.45930459829355E-02 
618	 6.48141708210497E-02 
619	 6.45023553656999E-02 
620	 6.42322419931831E-02 
621	 6.41848303545983E-02 
622	 6.43849730295212E-02 
623	 6.43033378921127E-02 
624	 6.35515878417735E-02 
625	 6.35681225581661E-02 
626	 6.41396583123651E-02 
627	 6.39722643365608E-02 
628	 6.38776987520778E-02 
629	 6.41400047554136E-02 
630	 6.45689139204443E-02 
631	 6.47992021984696E-02 
632	 6.44198977688961E-02 
633	 6.46012188614807E-02 
634	 6.52189137258771E-02 
635	 6.48822281050925E-02 
636	 6.45352259764675E-02 
637	 6.46992211120209E-02 
638	 6.47195294791964E-02 
639	 6.47163199022983E-02 
640	 0.065057426942488 
641	 6.53444078690231E-02 
642	 6.53989582976997E-02 
643	 0.065051123096747 
644	 6.48112162865575E-02 
645	 6.50968628686358E-02 
646	 0.065220017745866 
647	 0.065081785291966 
648	 6.47675165924584E-02 
649	 6.45373718154602E-02 
650	 6.44836370598037E-02 
651	 6.43309623137217E-02 
652	 6.42220555637785E-02 
653	 6.43482121810724E-02 
654	 6.46498024177065E-02 
655	 0.064863004284739 
656	 0.064097819755524 
657	 6.35124338416321E-02 
658	 6.36750709003981E-02 
659	 6.31501196723087E-02 
660	 6.23678679671313E-02 
661	 0.062301866206433 
662	 6.18079330796762E-02 
663	 0.060871166532335 
664	 6.08839110357601E-02 
665	 6.08705185891268E-02 
666	 6.00435727556634E-02 
667	 5.94624698392449E-02 
668	 0.059281395567597 
669	 5.94914995633233E-02 
670	 5.92633869538258E-02 
671	 5.85293146810794E-02 
672	 5.89311690760559E-02 
673	 5.95588189278041E-02 
674	 5.92508214315158E-02 
675	 0.058881181807447 
676	 5.86861580540103E-02 
677	 5.86869275903502E-02 
678	 5.90619194032312E-02 
679	 5.97762967253559E-02 
680	 5.98688840319484E-02 
681	 5.97191554053682E-02 
682	 6.00913647429559E-02 
683	 6.09587100543481E-02 
684	 6.20409469298083E-02 
685	 6.22453724630403E-02 
686	 6.24988963805461E-02 
687	 6.35866851799774E-02 
688	 6.44431258755167E-02 
689	 6.50461097962421E-02 
690	 6.59218564462197E-02 
691	 6.71471865009428E-02 
692	 6.86136072711901E-02 
693	 6.94628597076618E-02 
694	 7.03466065460623E-02 
695	 7.19087488125553E-02 
696	 7.31375452425254E-02 
697	 7.39881514300859E-02 
698	 7.48842645013562E-02 
699	 7.60054299519361E-02 
700	 7.73695720117608E-02 
701	 7.84461990874124E-02 
702	 7.93234799556571E-02 
703	 8.02242538076368E-02 
704	 8.08678557344678E-02 
705	 8.13593930984788E-02 
706	 8.22256013520954E-02 
707	 8.30791346909757E-02 
708	 8.36621907689877E-02 
709	 8.40479016637015E-02 
710	 8.44801875826195E-02 
711	 8.53949534209083E-02 
712	 8.62040112570093E-02 
713	 8.67653833373038E-02 
714	 8.73897438655066E-02 
715	 8.79778456752633E-02 
716	 8.84493683306355E-02 
717	 0.088689705165081 
718	 8.89100336130076E-02 
719	 8.98505508500387E-02 
720	 9.03918746402416E-02 
721	 9.03028503596278E-02 
722	 9.06285985771347E-02 
723	 9.09315646063808E-02 
724	 9.06436079959319E-02 
725	 9.10761321387632E-02 
726	 9.21016860924343E-02 
727	 9.24335927985784E-02 
728	 9.26733582114477E-02 
729	 9.30929098675918E-02 
730	 9.34959888051091E-02 
731	 9.37555072533787E-02 
732	 9.37328024723042E-02 
733	 9.39302845688702E-02 
734	 9.43680385488802E-02 
735	 9.46572836781062E-02 
736	 9.49735517309511E-02 
737	 9.53815903506141E-02 
738	 9.54570208361746E-02 
739	 9.54372612104181E-02 
740	 9.58870654447809E-02 
741	 9.61147162986052E-02 
742	 9.60163152343496E-02 
743	 9.60948653558111E-02 
744	 9.63134011329502E-02 
745	 9.66061199762161E-02 
746	 9.66598117935022E-02 
747	 9.66864921831814E-02 
748	 9.74006025963615E-02 
749	 9.77775765016874E-02 
750	 9.75367624571246E-02 
751	 9.73732021347339E-02 
752	 9.74096581296096E-02 
753	 9.77022685006027E-02 
754	 9.78195370449542E-02 
755	 9.78311578248248E-02 
756	 9.82607636500694E-02 
757	 9.84948377519752E-02 
758	 9.83277132246308E-02 
759	 9.84594935643437E-02 
760	 9.92898542845522E-02 
761	 0.100756200963466 
762	 0.101145325231144 
763	 0.10058981923789 
764	 0.10024306869206 
765	 0.100551772605872 
766	 0.101360292905766 
767	 0.101206500913076 
768	 0.100784860444109 
769	 0.10099746522722 
770	 0.101311360403155 
771	 0.101489783594668 
772	 0.101049836783191 
773	 0.101019332281325 
774	 0.101930387433043 
775	 0.101972444098576 
776	 0.101592970548094 
777	 0.102080529155064 
778	 0.102472803538078 
779	 0.102532308349192 
780	 0.102451605748069 
781	 0.102647833247096 
782	 0.103355287649197 
783	 0.103427703086336 
784	 0.103077683547705 
785	 0.103158722441361 
786	 0.103321229644874 
787	 0.103479822518511 
788	 0.103695074664241 
789	 0.103881756046775 
790	 0.103982473143706 
791	 0.104362207081633 
792	 0.10489100105495 
793	 0.105147165974862 
794	 0.105045966698378 
795	 0.104655816261019 
796	 0.104503618056147 
797	 0.104594846083731 
798	 0.104873223444893 
799	 0.104960488064368 
800	 0.104937851489913 
801	 0.105254559021485 
802	 0.105623091170983 
803	 0.105841017866031 
804	 0.105467918099434 
805	 0.105127414361297 
806	 0.105498141782885 
807	 0.105937770144468 
808	 0.106287164994128 
809	 0.106534483413058 
810	 0.106589627867883 
811	 0.10645314010774 
812	 0.106343312648239 
813	 0.106517573046985 
814	 0.107255937283071 
815	 0.107568477110448 
816	 0.107587832223873 
817	 0.108744563836537 
818	 0.109212796015044 
819	 0.108439878435353 
820	 0.107969938637134 
821	 0.108106389866317 
822	 0.1090369198744 
823	 0.10961123192611 
824	 0.109677352804094 
825	 0.109753521835713 
826	 0.109816277863198 
827	 0.109923375321087 
828	 0.110389672829801 
829	 0.110558873410717 
830	 0.109675080841226 
831	 0.109956928599466 
832	 0.111180447574243 
833	 0.111286969730339 
834	 0.11107099750746 
835	 0.110981347408049 
836	 0.11176731108491 
837	 0.112184908683373 
838	 0.110863999503488 
839	 0.110584208640953 
840	 0.111457034392539 
841	 0.112044789596144 
842	 0.112379465020155 
843	 0.112352269981145 
844	 0.111615562107082 
845	 0.111114939926895 
846	 0.111867930266263 
847	 0.112346883926 
848	 0.11236119706852 
849	 0.112406749776081 
850	 0.112227578311758 
851	 0.111851343605042 
852	 0.111911204957833 
853	 0.112156923180132 
854	 0.112257624810226 
855	 0.112274625770057 
856	 0.112358360838194 
857	 0.112922839286754 
858	 0.11321360480283 
859	 0.112994893674743 
860	 0.112525118121367 
861	 0.112196509090214 
862	 0.112361658786692 
863	 0.11273937084739 
864	 0.113202132632477 
865	 0.113622204320158 
866	 0.113735110866777 
867	 0.11368168474131 
868	 0.11463130635169 
869	 0.115359497036846 
870	 0.114914527046254 
871	 0.114263187449903 
872	 0.11410119129125 
873	 0.115467404370521 
874	 0.116307496351465 
875	 0.116010452535693 
876	 0.11491696022844 
877	 0.114531913448497 
878	 0.115809083920172 
879	 0.117320091363807 
880	 0.118264380083771 
881	 0.117772597691687 
882	 0.116659901577719 
883	 0.115560338345683 
884	 0.115445671783943 
885	 0.116523764695238 
886	 0.118542077066279 
887	 0.119148122315526 
888	 0.118902737000129 
889	 0.118930733411053 
890	 0.118338650039419 
891	 0.11749633319601 
892	 0.118173930550001 
893	 0.11824954760223 
894	 0.117131473856267 
895	 0.11778114185209 
896	 0.119646449538453 
897	 0.12157258781776 
898	 0.121261570621504 
899	 0.119664889780579 
900	 0.120665584595519 
901	 0.120319154279454 
902	 0.118368607382123 
903	 0.119428850570281 
904	 0.121028831006076 
905	 0.121163219204567 
906	 0.120929132730212 
907	 0.120664905759899 
908	 0.120671094110736 
909	 0.121839176795012 
910	 0.123535145245757 
911	 0.122251108962372 
912	 0.121744856547098 
913	 0.123466700313454 
914	 0.121209584530706 
915	 0.119219672717403 
916	 0.123102765053717 
917	 0.125202546648233 
918	 0.124006663682302 
919	 0.119472312126555 
920	 0.118831712017095 
921	 0.122974696385612 
922	 0.121050597943014 
923	 0.119346442174446 
924	 0.123375443317243 
925	 0.123638593935089 
926	 0.12098020361991 
927	 0.120817400097104 
928	 0.121695376821005 
929	 0.122903059647959 
930	 0.122560066676694 
931	 0.12158001559814 
932	 0.12076023197934 
933	 0.119680509126593 
934	 0.119151627949463 
935	 0.120173642266022 
936	 0.11921428775456 
937	 0.118337333379115 
938	 0.125471303315098 
939	 0.12789369433579 
940	 0.123742207242022 
941	 0.124257049595491 
942	 0.123804480233536 
943	 0.119114014445093 
944	 0.121795187227749 
945	 0.126781376097895 
946	 0.124000315046528 
947	 0.122568700821421 
948	 0.12439104701412 
949	 0.128151265805066 
950	 0.129110974729502 
951	 0.126081325352969 
952	 0.125685636070807 
953	 0.124360779962254 
954	 0.119516323466751 
955	 0.123915475853173 
956	 0.132244857521627 
957	 0.131597912114817 
958	 0.129116864755023 
959	 0.126135581577929 
960	 0.12013503975783 
961	 0.117367295273059 
962	 0.120257287193802 
963	 0.12341502263193 
964	 0.127385679244729 
965	 0.132590217520947 
966	 0.130289582761505 
967	 0.123663945570303 
968	 0.121349647153993 
969	 0.121443137866272 
970	 0.122809098759133 
971	 0.122721566094961 
972	 0.121588615248956 
973	 0.120316074834163 
974	 0.122660829403208 
975	 0.12693661625632 
976	 0.130387998458444 
977	 0.126665495741383 
978	 0.120062101911546 
979	 0.122497233531174 
980	 0.125316678031016 
981	 0.126269053230977 
982	 0.127084092690271 
983	 0.127118203330964 
984	 0.12672822019912 
985	 0.130494936907638 
986	 0.133398115143138 
987	 0.130032718796479 
988	 0.124799482594915 
989	 0.121080078254074 
990	 0.12372547952302 
991	 0.1251100271409 
992	 0.12448978568685 
993	 0.128606861614329 
994	 0.129181493224231 
995	 0.124098461059662 
996	 0.127107589261391 
997	 0.129959737215686 
998	 0.124607696025767 
999	 0.126569116594365 
1000	 0.130934525670183 
1001	 0.124989417053964 
1002	 0.120222647392306 
1003	 0.119682159088656 
1004	 0.122790888888915 
1005	 0.126907200385128 
1006	 0.129639233535651 
1007	 0.126422018348624 
1008	 0.123198511300086 
1009	 0.124883410347638 
1010	 0.130221814050938 
1011	 0.13146220504413 
1012	 0.119133798375088 
1013	 0.118582353020585 
1014	 0.128859036334687 
1015	 0.134373406860789 
1016	 0.13023233471811 
1017	 0.120376907460968 
1018	 0.129736732413988 
1019	 0.138376576625809 
1020	 0.135714859017853 
1021	 0.130029193583776 
1022	 0.127451334869569 
1023	 0.13238293417074 
1024	 0.135735190905158 
1025	 0.134711098918885 
1026	 0.127581123818763 
1027	 0.125104319470467 
1028	 0.128421916884827 
1029	 0.132512948830025 
1030	 0.12940144588341 
1031	 0.119096921503908 
1032	 0.115542855573284 
1033	 0.118374226964239 
1034	 0.126473223891899 
1035	 0.137456596357974 
1036	 0.141954919358162 
1037	 0.131907460146454 
1038	 0.119822078188534 
1039	 0.11325238039298 
1040	 0.11953233078348 
1041	 0.131101860622202 
1042	 0.140337859874481 
1043	 0.134282447796635 
1044	 0.128878787114292 
1045	 0.131759047829066 
1046	 0.148819440593498 
1047	 0.143018000435912 
1048	 0.102934296297979 
1049	 0.11304078100044 
1050	 0.138073222374547 
1051	 0.139683563200279 
1052	 0.140860489557066 
1053	 0.136746501754893 
1054	 0.117432458589742 
1055	 0.133731020877035 
1056	 0.171934711883534 
1057	 0.175651987292984 
1058	 0.163151437227145 
1059	 0.145137615340644 
1060	 0.15231998350041 
1061	 0.144690314114126 
1062	 0.114997883749611 
1063	 0.133334456592664 
1064	 0.152509612559031 
1065	 0.141529698874746 
1066	 0.16195614825656 
1067	 0.179251843240835 
1068	 0.154753808827004 
1069	 0.143428180288772 
1070	 0.150227582640056 
1071	 0.163107062449182 
1072	 0.154382912413153 
1073	 0.129598822904986 
1074	 0.11856224333127 
1075	 0.117523003461559 
