Wavelength	A00311.asd
325	 7.31958042834705E-02 
326	 6.99126044718279E-02 
327	 6.12035354865293E-02 
328	 7.32980125573397E-02 
329	 7.79684524000502E-02 
330	 6.85542279414272E-02 
331	 6.66385136340096E-02 
332	 7.18235236210954E-02 
333	 8.14563552721317E-02 
334	 8.38276637121343E-02 
335	 0.080531224290272 
336	 7.99346755278914E-02 
337	 0.07958295102089 
338	 7.85323188350128E-02 
339	 7.50077004699403E-02 
340	 7.16770429746861E-02 
341	 7.07841156589972E-02 
342	 7.17922830790095E-02 
343	 0.07367998361016 
344	 7.52375661688063E-02 
345	 7.40839704092836E-02 
346	 7.10760679794662E-02 
347	 7.18230699620444E-02 
348	 7.39860231723267E-02 
349	 7.57268087151211E-02 
350	 0.077011449310449 
351	 7.67014121733321E-02 
352	 7.29370618867106E-02 
353	 7.14709156832377E-02 
354	 7.29420179099798E-02 
355	 0.073726735239887 
356	 7.39764622150996E-02 
357	 7.39638586014355E-02 
358	 7.50796802724581E-02 
359	 7.63770356768079E-02 
360	 7.62718646430053E-02 
361	 7.51759586227032E-02 
362	 7.37651610407196E-02 
363	 7.38815696231768E-02 
364	 7.34483336663748E-02 
365	 7.18551653037972E-02 
366	 7.31255113193213E-02 
367	 7.42453886659679E-02 
368	 7.07484947814836E-02 
369	 0.069406003419508 
370	 7.08024669824401E-02 
371	 7.10797312811357E-02 
372	 0.072059787440506 
373	 0.074220637179492 
374	 7.42932712690441E-02 
375	 7.33276496420044E-02 
376	 7.32274733109957E-02 
377	 7.36188907208792E-02 
378	 7.39507699809474E-02 
379	 7.26280471817431E-02 
380	 7.13953325226826E-02 
381	 0.071086441891269 
382	 7.04546198158543E-02 
383	 7.05810804319851E-02 
384	 7.29722694988594E-02 
385	 7.48051143213629E-02 
386	 0.075161172294939 
387	 7.38986922178153E-02 
388	 7.27762200498932E-02 
389	 7.24663954163552E-02 
390	 7.12603338557099E-02 
391	 7.06241308145721E-02 
392	 7.23002063035808E-02 
393	 0.071934099238125 
394	 7.00046432046723E-02 
395	 7.05483250182154E-02 
396	 7.16382800922032E-02 
397	 7.22236737391914E-02 
398	 7.15738870272153E-02 
399	 7.04605736033353E-02 
400	 6.97006354395541E-02 
401	 0.070100730759261 
402	 7.11536185554767E-02 
403	 7.13634274834183E-02 
404	 7.13243512250882E-02 
405	 7.12487449613408E-02 
406	 7.08517829392042E-02 
407	 7.06929840540599E-02 
408	 7.14412761129474E-02 
409	 7.15724625018123E-02 
410	 7.10560713823982E-02 
411	 7.07401172836871E-02 
412	 7.09478013703031E-02 
413	 7.16634057188756E-02 
414	 7.17911986421118E-02 
415	 7.13313126521099E-02 
416	 7.04375561400346E-02 
417	 7.03557791753081E-02 
418	 0.071071378067577 
419	 7.15997442027703E-02 
420	 7.16584280400963E-02 
421	 7.12512902004724E-02 
422	 7.16961845268911E-02 
423	 7.24333281409765E-02 
424	 7.24551224890298E-02 
425	 7.21759287809292E-02 
426	 7.18947185357229E-02 
427	 7.23379691786404E-02 
428	 0.072602461978001 
429	 7.21996227417934E-02 
430	 7.22454107591669E-02 
431	 7.26508257749827E-02 
432	 7.30490453183538E-02 
433	 7.27764187453572E-02 
434	 7.19771624698498E-02 
435	 7.18493608474541E-02 
436	 7.16593665585094E-02 
437	 7.10568962974761E-02 
438	 7.16706891028731E-02 
439	 7.26880541404825E-02 
440	 7.21987430505197E-02 
441	 7.19718935426339E-02 
442	 7.23696902822223E-02 
443	 7.26239508728842E-02 
444	 7.25098593622541E-02 
445	 7.19665092043081E-02 
446	 7.22762567344419E-02 
447	 7.29742906534205E-02 
448	 0.072469864222426 
449	 7.24486056840596E-02 
450	 7.32396707636886E-02 
451	 7.35176096956863E-02 
452	 7.35953255862529E-02 
453	 7.38305612472017E-02 
454	 7.36440213956537E-02 
455	 7.32505256417833E-02 
456	 7.35490643920989E-02 
457	 7.36772535893576E-02 
458	 7.33858403696224E-02 
459	 7.34040369231116E-02 
460	 7.35845267507909E-02 
461	 7.36818195219174E-02 
462	 7.37503268004645E-02 
463	 7.37118564519274E-02 
464	 7.32728918010982E-02 
465	 7.30252836469768E-02 
466	 7.32715967904452E-02 
467	 7.37050492281192E-02 
468	 7.40298768532751E-02 
469	 0.073883066610802 
470	 7.40219089447427E-02 
471	 7.44445583773989E-02 
472	 7.44444629615877E-02 
473	 7.41927643472222E-02 
474	 7.38379874125169E-02 
475	 7.35892446176439E-02 
476	 7.35450354366585E-02 
477	 7.38261545696574E-02 
478	 7.38100377087642E-02 
479	 7.35177385449215E-02 
480	 0.073878594569525 
481	 7.43717107169386E-02 
482	 7.45210205200728E-02 
483	 0.074019830412247 
484	 7.34116278902568E-02 
485	 7.41854627978441E-02 
486	 7.44908998555213E-02 
487	 0.073929064074806 
488	 7.42778862040745E-02 
489	 7.48031618832231E-02 
490	 7.46713564693607E-02 
491	 7.42983128583002E-02 
492	 7.40634979230029E-02 
493	 7.48118448842882E-02 
494	 7.52799380002059E-02 
495	 7.50091964782345E-02 
496	 7.49516101988928E-02 
497	 7.50580000259438E-02 
498	 7.51450150875246E-02 
499	 7.52856161723641E-02 
500	 7.55079755274296E-02 
501	 7.58471112686728E-02 
502	 7.62752156604559E-02 
503	 7.67284715613372E-02 
504	 7.69219042546935E-02 
505	 7.70070165283819E-02 
506	 7.72888462882564E-02 
507	 7.75936055031934E-02 
508	 7.79567241441428E-02 
509	 7.87419935231569E-02 
510	 7.93058429082239E-02 
511	 0.079222458399847 
512	 0.079802937368678 
513	 8.08558474740309E-02 
514	 8.14336071312494E-02 
515	 0.081870191077661 
516	 0.082322081817053 
517	 8.30471660117381E-02 
518	 8.39596438851551E-02 
519	 8.49171318781508E-02 
520	 8.56296072948107E-02 
521	 8.62060437754005E-02 
522	 0.087138529879813 
523	 8.80336533051088E-02 
524	 8.87534208441068E-02 
525	 8.96650910622055E-02 
526	 9.04595840623444E-02 
527	 9.06418291860763E-02 
528	 9.12041314989402E-02 
529	 0.09219132136692 
530	 9.28296315837702E-02 
531	 9.33848288278419E-02 
532	 9.40253946241481E-02 
533	 9.46035491451341E-02 
534	 9.50333754314116E-02 
535	 9.51643185315138E-02 
536	 9.54388067779976E-02 
537	 9.59917231115256E-02 
538	 9.66926683232461E-02 
539	 9.72492210171577E-02 
540	 9.74096991570509E-02 
541	 9.77765285816625E-02 
542	 9.82729665502511E-02 
543	 9.83165930913115E-02 
544	 9.85760686899544E-02 
545	 9.92376696165473E-02 
546	 9.95770248244376E-02 
547	 9.97880698729719E-02 
548	 0.10020856633127 
549	 0.10054844606947 
550	 0.100803179710276 
551	 0.101206012389386 
552	 0.10159231037016 
553	 0.101833277860267 
554	 0.101774281538875 
555	 0.101662619089264 
556	 0.101990097057752 
557	 0.102291119730073 
558	 0.102423121177514 
559	 0.102498673559817 
560	 0.102514759492636 
561	 0.102465032878625 
562	 0.102301950050079 
563	 0.10207923325323 
564	 0.101954388148619 
565	 0.101789872130112 
566	 0.101500065491496 
567	 0.100933949259257 
568	 0.100352840611357 
569	 0.100096615613282 
570	 0.100010281781962 
571	 0.100007353413537 
572	 0.100006869571581 
573	 9.96793006526465E-02 
574	 9.89338221222238E-02 
575	 9.88582414334371E-02 
576	 9.90384661661727E-02 
577	 9.84488542849137E-02 
578	 9.77383947524627E-02 
579	 9.71600348431288E-02 
580	 9.68212817064135E-02 
581	 9.67277531888296E-02 
582	 9.68442238347509E-02 
583	 9.68186337168016E-02 
584	 9.65962726405217E-02 
585	 9.62179580393637E-02 
586	 9.59350151494948E-02 
587	 9.58184920625649E-02 
588	 9.55419552755391E-02 
589	 9.51574807104149E-02 
590	 9.47868680756109E-02 
591	 9.45333204456402E-02 
592	 9.44173795610438E-02 
593	 9.43804973599778E-02 
594	 9.44039433637729E-02 
595	 9.44557215806805E-02 
596	 9.44147010317063E-02 
597	 9.43581063690274E-02 
598	 9.44860360437171E-02 
599	 9.41838060500471E-02 
600	 9.34743529712704E-02 
601	 9.33026985184001E-02 
602	 9.33828703195559E-02 
603	 9.34158496052209E-02 
604	 9.33884695703977E-02 
605	 9.32232337196115E-02 
606	 9.27116093790464E-02 
607	 9.24124092176851E-02 
608	 9.25039519864884E-02 
609	 9.25186014708171E-02 
610	 9.22705297407573E-02 
611	 9.15985359241411E-02 
612	 9.15201192466132E-02 
613	 9.19444231950512E-02 
614	 9.17223532306447E-02 
615	 9.11788525932058E-02 
616	 9.05494919537703E-02 
617	 9.00314824911722E-02 
618	 8.97548220814934E-02 
619	 8.98670864836573E-02 
620	 8.99565437219748E-02 
621	 8.98456944571721E-02 
622	 8.94328070725071E-02 
623	 8.90462132232295E-02 
624	 0.088997917666927 
625	 8.93330074423834E-02 
626	 8.97168731682263E-02 
627	 8.92712702252336E-02 
628	 8.89320421225727E-02 
629	 8.90197295379423E-02 
630	 8.89743562886795E-02 
631	 8.89220636581387E-02 
632	 8.90710251655108E-02 
633	 8.92546755848419E-02 
634	 8.92223336644471E-02 
635	 0.088288538030949 
636	 8.75111259294078E-02 
637	 8.74780593883714E-02 
638	 0.087370681419124 
639	 8.70263908637873E-02 
640	 8.63454601252896E-02 
641	 8.58422601520981E-02 
642	 8.56042444497114E-02 
643	 8.51396682623547E-02 
644	 8.47623642662822E-02 
645	 8.47029254042278E-02 
646	 8.40424240127678E-02 
647	 8.30463586344193E-02 
648	 8.28653743307471E-02 
649	 8.27299141464969E-02 
650	 8.23485039376326E-02 
651	 8.18448185973957E-02 
652	 8.13999910126303E-02 
653	 8.12085795659883E-02 
654	 8.10460887302383E-02 
655	 0.080905968961328 
656	 8.10274503726352E-02 
657	 8.10569963942415E-02 
658	 8.07466562997694E-02 
659	 7.99188221876173E-02 
660	 0.079080148691949 
661	 7.90765937986957E-02 
662	 7.88171391334228E-02 
663	 7.81637223099639E-02 
664	 7.79558781550052E-02 
665	 7.78542950383865E-02 
666	 7.75467936901478E-02 
667	 0.076994610354912 
668	 7.65003173199876E-02 
669	 7.69251274374086E-02 
670	 7.67436287898786E-02 
671	 7.57516077453068E-02 
672	 7.63056329391947E-02 
673	 7.70426735814876E-02 
674	 7.62532802680977E-02 
675	 0.076037985398142 
676	 7.65503973252792E-02 
677	 0.076788111005831 
678	 0.07682933068142 
679	 7.67547614470492E-02 
680	 0.077011233701791 
681	 7.73663853529235E-02 
682	 7.73293724564305E-02 
683	 7.80038611444903E-02 
684	 7.93890335285438E-02 
685	 8.02089546428774E-02 
686	 8.10542440250548E-02 
687	 8.24210237467138E-02 
688	 8.37769636937119E-02 
689	 8.51688604659315E-02 
690	 8.71271239525216E-02 
691	 8.94911873006714E-02 
692	 0.092138911426477 
693	 9.44699049665896E-02 
694	 9.70226249558924E-02 
695	 0.100250862688471 
696	 0.103478234203349 
697	 0.1066260570902 
698	 0.109934621374191 
699	 0.11363807640816 
700	 0.117643694903395 
701	 0.120808916255491 
702	 0.123902258377962 
703	 0.12815001182922 
704	 0.131984892698223 
705	 0.13528784979061 
706	 0.138950473176717 
707	 0.142469159759615 
708	 0.14554104661172 
709	 0.148475557102873 
710	 0.151617439772647 
711	 0.155596717306139 
712	 0.158891502054962 
713	 0.161229179975146 
714	 0.163863578301967 
715	 0.166497713401918 
716	 0.168981979226426 
717	 0.17184922938478 
718	 0.174972792478323 
719	 0.177174394999922 
720	 0.179073722573919 
721	 0.180895397796625 
722	 0.182843510812596 
723	 0.184624181408485 
724	 0.18570597659123 
725	 0.18710689042514 
726	 0.188938371363144 
727	 0.191154359722308 
728	 0.192758687438252 
729	 0.193378261344867 
730	 0.194342394223366 
731	 0.195626630044061 
732	 0.19697148215379 
733	 0.197951645345918 
734	 0.198585963158221 
735	 0.199194178246841 
736	 0.200010135811104 
737	 0.201104614155662 
738	 0.201776436608746 
739	 0.202251288912513 
740	 0.203164847221869 
741	 0.203746480653572 
742	 0.203903071461399 
743	 0.204287205608879 
744	 0.204743789048956 
745	 0.205152832036481 
746	 0.205934437647927 
747	 0.206766481326951 
748	 0.206722445731813 
749	 0.206740126340392 
750	 0.207080139208652 
751	 0.207107376477898 
752	 0.207235064617157 
753	 0.207912667698413 
754	 0.208471290275011 
755	 0.208837937732743 
756	 0.209312881190316 
757	 0.209387328311805 
758	 0.208934174648586 
759	 0.2089216895635 
760	 0.210009365380968 
761	 0.212460672717162 
762	 0.213103320282694 
763	 0.212277414720196 
764	 0.212694576953693 
765	 0.213141691147208 
766	 0.213181101178393 
767	 0.212922088354351 
768	 0.212664266098873 
769	 0.212738207361798 
770	 0.212913229104922 
771	 0.213010731877484 
772	 0.212496535561663 
773	 0.212473356159129 
774	 0.213527334313623 
775	 0.213901653318551 
776	 0.213748748338347 
777	 0.213801624480344 
778	 0.214169520590692 
779	 0.214735170416692 
780	 0.214709960580508 
781	 0.214793372547483 
782	 0.215486455957568 
783	 0.215799470370812 
784	 0.215749261124469 
785	 0.215730902306592 
786	 0.215635794331794 
787	 0.215497539414682 
788	 0.215481654386829 
789	 0.215710294825279 
790	 0.216247090853447 
791	 0.216605568877814 
792	 0.216691662267894 
793	 0.216476149288876 
794	 0.21663980267268 
795	 0.21724029149136 
796	 0.217165767683231 
797	 0.21676465263903 
798	 0.216482384208829 
799	 0.216679235785985 
800	 0.217069380847654 
801	 0.216550897113139 
802	 0.216659269217892 
803	 0.217666268173438 
804	 0.217456080805215 
805	 0.217131155718361 
806	 0.217975568685649 
807	 0.218161927587878 
808	 0.217883236674744 
809	 0.21887477075394 
810	 0.219386714080374 
811	 0.218827155946406 
812	 0.218612853301436 
813	 0.21890241919462 
814	 0.219725771421845 
815	 0.220458084483437 
816	 0.220980226294131 
817	 0.221704242274284 
818	 0.221801878096622 
819	 0.221222251789103 
820	 0.221668980095837 
821	 0.222399128708878 
822	 0.222399148632608 
823	 0.222583264063109 
824	 0.222969529282271 
825	 0.2230428503835 
826	 0.223166636223485 
827	 0.223545528923275 
828	 0.224482157492324 
829	 0.225016910301034 
830	 0.224038626638467 
831	 0.224147611773309 
832	 0.225167757600031 
833	 0.224750178688795 
834	 0.22480284207495 
835	 0.22585833853417 
836	 0.22611070106549 
837	 0.225829994859036 
838	 0.225515525822488 
839	 0.225743620749315 
840	 0.226331798258931 
841	 0.22631777370766 
842	 0.22641602561096 
843	 0.226865114999761 
844	 0.22732385876722 
845	 0.227306027085043 
846	 0.226373030370651 
847	 0.226126076610068 
848	 0.226533600896586 
849	 0.226417211048562 
850	 0.226382566011888 
851	 0.226672042165649 
852	 0.227324425963756 
853	 0.227829950559749 
854	 0.227657228429643 
855	 0.227280954179456 
856	 0.227000512128203 
857	 0.227310708528608 
858	 0.22740808138297 
859	 0.227017068852423 
860	 0.226249415005087 
861	 0.225816487291355 
862	 0.226337102500079 
863	 0.226733054289419 
864	 0.227169230136453 
865	 0.22858111787757 
866	 0.229695078187038 
867	 0.229973783429964 
868	 0.229338476786789 
869	 0.228748101547167 
870	 0.228973110560423 
871	 0.229460773957835 
872	 0.23013798634612 
873	 0.231088455367935 
874	 0.231419004112662 
875	 0.231074368280805 
876	 0.231100527269774 
877	 0.231209769872453 
878	 0.231217359223611 
879	 0.231257913142524 
880	 0.231831281435953 
881	 0.233732463248228 
882	 0.233731327985659 
883	 0.232158110803368 
884	 0.233485180775515 
885	 0.234997245274016 
886	 0.23515248242027 
887	 0.234655950825306 
888	 0.234312387847891 
889	 0.235063301840832 
890	 0.236324392888858 
891	 0.237387318464227 
892	 0.23654226523583 
893	 0.235690423744923 
894	 0.23575499363317 
895	 0.236151669049124 
896	 0.236336615801472 
897	 0.235766350524202 
898	 0.235183312060899 
899	 0.235738478029341 
900	 0.24013101928054 
901	 0.24076221074805 
902	 0.23685607275831 
903	 0.237010818222652 
904	 0.238840536356906 
905	 0.240148016351721 
906	 0.240566493439901 
907	 0.240276573291592 
908	 0.23979000413392 
909	 0.239786953250619 
910	 0.240427140045155 
911	 0.241428023896693 
912	 0.241372140165569 
913	 0.240001579077012 
914	 0.241300783484679 
915	 0.243583958400302 
916	 0.24423981737676 
917	 0.242207021932474 
918	 0.239054480280057 
919	 0.239200051161014 
920	 0.240577949673034 
921	 0.241931014133059 
922	 0.241009032046049 
923	 0.239461189853518 
924	 0.238913294278242 
925	 0.239008902809581 
926	 0.239089932126697 
927	 0.237773038489884 
928	 0.236674554213105 
929	 0.236596111408965 
930	 0.238093387088903 
931	 0.240373183198843 
932	 0.241947068645618 
933	 0.237724149067954 
934	 0.233155704245857 
935	 0.237094055988922 
936	 0.24267790258758 
937	 0.245492562535572 
938	 0.239200087439854 
939	 0.235433845059508 
940	 0.23663210090802 
941	 0.235240818762161 
942	 0.233766291288546 
943	 0.233599684550903 
944	 0.228458599452555 
945	 0.224612232750327 
946	 0.232578279657869 
947	 0.237739191334927 
948	 0.237271256337898 
949	 0.235930963493095 
950	 0.234818545069785 
951	 0.234382051125819 
952	 0.232753445579857 
953	 0.231753302794928 
954	 0.232903056930533 
955	 0.234106694155103 
956	 0.232983313524704 
957	 0.225953276033558 
958	 0.223358807925195 
959	 0.225632209691082 
960	 0.223858991871315 
961	 0.225457919855985 
962	 0.232055473873711 
963	 0.233689617909893 
964	 0.230417283966794 
965	 0.223629498762561 
966	 0.220843815067309 
967	 0.221674875080743 
968	 0.222669520283676 
969	 0.220141457512705 
970	 0.21598824228581 
971	 0.222083213694847 
972	 0.226904955641002 
973	 0.224812513743694 
974	 0.223072387725561 
975	 0.223960520835878 
976	 0.22870258611218 
977	 0.229565067759879 
978	 0.227555964115488 
979	 0.228184023536356 
980	 0.229374786636966 
981	 0.23052753673204 
982	 0.231579234510779 
983	 0.231956648881131 
984	 0.231203028726235 
985	 0.227966430101971 
986	 0.22779992032853 
987	 0.235329360839659 
988	 0.231221360390072 
989	 0.221579950391877 
990	 0.225599650129794 
991	 0.230041079018917 
992	 0.230874965484368 
993	 0.227484188492089 
994	 0.226252586898251 
995	 0.229877966061119 
996	 0.233715725148393 
997	 0.233659379303433 
998	 0.227310116072867 
999	 0.229799092704551 
1000	 0.236812600396343 
1001	 0.236559156576848 
1002	 0.229606351159295 
1003	 0.221282964106718 
1004	 0.228765947110775 
1005	 0.236530700587981 
1006	 0.237106983192697 
1007	 0.227621648334938 
1008	 0.224168586852484 
1009	 0.237181781896324 
1010	 0.243545363495556 
1011	 0.243716804161746 
1012	 0.242588694485372 
1013	 0.240431586284219 
1014	 0.237685080257628 
1015	 0.234026063153375 
1016	 0.232505544735035 
1017	 0.234918966156616 
1018	 0.244294799384168 
1019	 0.248264432770559 
1020	 0.240878757831954 
1021	 0.230289976199608 
1022	 0.228196111882058 
1023	 0.242785331696568 
1024	 0.251741561470489 
1025	 0.251635586704209 
1026	 0.243724989757832 
1027	 0.244925410265971 
1028	 0.254424017494631 
1029	 0.255865579406538 
1030	 0.250913121076118 
1031	 0.24284986070622 
1032	 0.245244355366296 
1033	 0.245148734833013 
1034	 0.237476518756395 
1035	 0.246613709130883 
1036	 0.26015278329763 
1037	 0.263411946315933 
1038	 0.258891529821196 
1039	 0.252293697992626 
1040	 0.252905277747767 
1041	 0.247067985060942 
1042	 0.239082667169358 
1043	 0.250815130906243 
1044	 0.25351070239863 
1045	 0.242611700349275 
1046	 0.250116332056293 
1047	 0.249406241042093 
1048	 0.23097916002011 
1049	 0.245098695059905 
1050	 0.262334344509959 
1051	 0.254822990011915 
1052	 0.256382112025863 
1053	 0.259605003938644 
1054	 0.246162927302311 
1055	 0.239858031165718 
1056	 0.244433483736172 
1057	 0.255523683913389 
1058	 0.255278936775451 
1059	 0.246450745014453 
1060	 0.26862445521501 
1061	 0.273277811793802 
1062	 0.246441422731239 
1063	 0.236350612125278 
1064	 0.230511028057497 
1065	 0.222323244680079 
1066	 0.248270189842486 
1067	 0.274360170709012 
1068	 0.264393000611276 
1069	 0.255729068497899 
1070	 0.25581962188601 
1071	 0.264343244372061 
1072	 0.266524741939383 
1073	 0.256819399666269 
1074	 0.22940718551524 
1075	 0.227977468327701 
