Wavelength	A00308.asd
325	 7.18940202104863E-02 
326	 7.24167102562522E-02 
327	 6.74629135045308E-02 
328	 6.21914853555046E-02 
329	 6.60160363077408E-02 
330	 7.82739125323846E-02 
331	 7.79100160423001E-02 
332	 7.39843986533616E-02 
333	 7.63813047923591E-02 
334	 7.72703646745663E-02 
335	 7.57360959824885E-02 
336	 7.18935887043627E-02 
337	 7.10972962545581E-02 
338	 7.41584271772802E-02 
339	 7.63626445993221E-02 
340	 7.67309153512315E-02 
341	 7.51151970338351E-02 
342	 7.68939644198186E-02 
343	 7.96880034351961E-02 
344	 7.76696459188238E-02 
345	 7.57372344596168E-02 
346	 0.075071668474391 
347	 7.45078240553569E-02 
348	 7.47411314645663E-02 
349	 7.60223881898753E-02 
350	 0.076946425625545 
351	 7.65366811347497E-02 
352	 0.073505550596088 
353	 7.16825410465927E-02 
354	 7.21996877837216E-02 
355	 7.53613175073689E-02 
356	 7.63929214888137E-02 
357	 0.073317084193658 
358	 7.48065366024339E-02 
359	 7.76180220348853E-02 
360	 7.54795158580615E-02 
361	 7.24815581771006E-02 
362	 7.05694167714479E-02 
363	 7.26753468017154E-02 
364	 7.34683451570308E-02 
365	 7.09518378474889E-02 
366	 7.23622899636511E-02 
367	 7.43294769787381E-02 
368	 7.14669820933449E-02 
369	 7.05854760677157E-02 
370	 7.19220876706522E-02 
371	 0.070419882141915 
372	 7.04641969948421E-02 
373	 7.35960959672788E-02 
374	 7.29051989702685E-02 
375	 0.071430528684531 
376	 0.074182377704835 
377	 0.074423933227695 
378	 7.18611445547972E-02 
379	 7.08476157177334E-02 
380	 7.00296290997926E-02 
381	 6.91977591133365E-02 
382	 7.11386465912971E-02 
383	 7.29910435023503E-02 
384	 7.07911825991219E-02 
385	 7.06854758644154E-02 
386	 7.27467481119315E-02 
387	 7.27101799660833E-02 
388	 7.15518867114124E-02 
389	 7.00794495644956E-02 
390	 7.03447367920159E-02 
391	 7.12189815250152E-02 
392	 7.11894920645212E-02 
393	 7.11172585776122E-02 
394	 7.12148912619795E-02 
395	 7.15550104842791E-02 
396	 7.21796732505102E-02 
397	 7.27534361027186E-02 
398	 7.17168950376888E-02 
399	 7.00266794621966E-02 
400	 6.87330960826052E-02 
401	 6.87171818108962E-02 
402	 6.96051680186805E-02 
403	 7.01919100667766E-02 
404	 7.05796273588856E-02 
405	 7.07926635622793E-02 
406	 7.08468138493236E-02 
407	 7.10713356609048E-02 
408	 7.18344832585156E-02 
409	 7.18418502321638E-02 
410	 7.11746093140552E-02 
411	 7.07926777585416E-02 
412	 7.10791538819901E-02 
413	 7.19073681448883E-02 
414	 7.11521544121276E-02 
415	 7.01529976024501E-02 
416	 7.08600294856637E-02 
417	 7.10001442170295E-02 
418	 7.05033102506712E-02 
419	 7.08941707445658E-02 
420	 7.11379759309778E-02 
421	 7.08006466074605E-02 
422	 7.10421819313069E-02 
423	 7.14021060998211E-02 
424	 7.10325797795641E-02 
425	 7.09502168765374E-02 
426	 0.071312791347568 
427	 7.17073089926117E-02 
428	 7.20154023448705E-02 
429	 7.21348406312766E-02 
430	 7.19755455197579E-02 
431	 7.18434222880277E-02 
432	 7.22750178502669E-02 
433	 7.21008726864036E-02 
434	 7.13734716617588E-02 
435	 7.14390923530607E-02 
436	 7.14702217997435E-02 
437	 0.071031838174035 
438	 7.15449026943677E-02 
439	 7.24793967064948E-02 
440	 0.072553041656595 
441	 0.072278980381773 
442	 7.19301655641256E-02 
443	 0.072025898409633 
444	 7.20965328164963E-02 
445	 7.18089577650387E-02 
446	 7.20799183290055E-02 
447	 7.26115836227354E-02 
448	 7.24178244414863E-02 
449	 7.22073940724042E-02 
450	 7.22403880188991E-02 
451	 7.25784149258544E-02 
452	 7.28245592926531E-02 
453	 7.26187574006746E-02 
454	 7.27502244938181E-02 
455	 7.31460287683201E-02 
456	 7.31751500611039E-02 
457	 7.30785877736986E-02 
458	 7.30248829238921E-02 
459	 7.34916892889023E-02 
460	 7.37601232445724E-02 
461	 7.29805845638444E-02 
462	 7.28179150248133E-02 
463	 7.32655568019097E-02 
464	 7.29998774105694E-02 
465	 7.29262114849638E-02 
466	 7.34272558539944E-02 
467	 7.38054505298134E-02 
468	 7.38751313907212E-02 
469	 7.35016689994664E-02 
470	 7.31575302900332E-02 
471	 7.30958815561987E-02 
472	 7.36841717993264E-02 
473	 0.074053050079882 
474	 7.36899029772301E-02 
475	 7.32530739499752E-02 
476	 7.31048486391252E-02 
477	 7.37330119230857E-02 
478	 7.37791924499163E-02 
479	 7.32223906584387E-02 
480	 7.38575133382707E-02 
481	 7.43771513062055E-02 
482	 7.37748283128698E-02 
483	 7.35079655607744E-02 
484	 7.37089110727047E-02 
485	 7.41462131833848E-02 
486	 7.40955714965589E-02 
487	 7.35556401920462E-02 
488	 7.42571773339431E-02 
489	 7.47906885285197E-02 
490	 7.37484216488771E-02 
491	 7.35279364439137E-02 
492	 7.41694350203894E-02 
493	 7.44815321893213E-02 
494	 7.47329655959548E-02 
495	 7.49266500564233E-02 
496	 7.45571601421889E-02 
497	 7.42455355026801E-02 
498	 7.48299815686473E-02 
499	 7.52258655120545E-02 
500	 7.52771730290733E-02 
501	 7.54318969520461E-02 
502	 7.56775662765146E-02 
503	 7.60240993099327E-02 
504	 7.65722686659039E-02 
505	 7.71393565215367E-02 
506	 7.74255049311335E-02 
507	 0.077570707181238 
508	 0.077746148949436 
509	 7.84352278724924E-02 
510	 7.91518065809284E-02 
511	 7.95095246186779E-02 
512	 7.98282522902115E-02 
513	 8.02252269015902E-02 
514	 8.08514056504541E-02 
515	 8.14209334225875E-02 
516	 8.19223739525897E-02 
517	 8.28646797534029E-02 
518	 8.40222977792239E-02 
519	 8.50808715807428E-02 
520	 8.55757779900992E-02 
521	 8.57889087948709E-02 
522	 8.67132929696784E-02 
523	 8.77596359873771E-02 
524	 8.86521687927583E-02 
525	 8.94607675338696E-02 
526	 9.00392306683327E-02 
527	 9.01644444878917E-02 
528	 9.08766765427533E-02 
529	 9.21196323036694E-02 
530	 9.27588355882753E-02 
531	 9.31481704743271E-02 
532	 9.35751644087359E-02 
533	 9.44387770889779E-02 
534	 9.52806004296578E-02 
535	 9.50449869501445E-02 
536	 9.51466705691079E-02 
537	 9.58963357272841E-02 
538	 9.63963345310111E-02 
539	 9.68831993794883E-02 
540	 9.75877244834455E-02 
541	 9.78642952284852E-02 
542	 9.78316059841624E-02 
543	 9.81084309932871E-02 
544	 9.85536500697638E-02 
545	 9.90870832395942E-02 
546	 9.95279331788001E-02 
547	 9.98244483724108E-02 
548	 0.099939315878783 
549	 0.100192142846609 
550	 0.100647353784632 
551	 0.101249720342271 
552	 0.10164342231647 
553	 0.101630843530369 
554	 0.101647100130084 
555	 0.101718990333485 
556	 0.101761201905569 
557	 0.101862610911608 
558	 0.102007731460757 
559	 0.102002689053967 
560	 0.101974059638143 
561	 0.102036690929402 
562	 0.102029478261081 
563	 0.101916763210758 
564	 0.101684266549238 
565	 0.101440234325572 
566	 0.101198620772064 
567	 0.100712049649624 
568	 0.100186582223406 
569	 9.99045458807543E-02 
570	 9.97516377392914E-02 
571	 9.96919024572315E-02 
572	 9.97868569713158E-02 
573	 9.94734380459204E-02 
574	 9.85236257765614E-02 
575	 9.81485372770722E-02 
576	 0.098107013682748 
577	 9.76271895336407E-02 
578	 9.73284184369364E-02 
579	 9.72410927456658E-02 
580	 9.66449182698072E-02 
581	 9.61298680223111E-02 
582	 9.61976918621825E-02 
583	 0.096151591661761 
584	 9.58748849487125E-02 
585	 9.53696881370428E-02 
586	 9.51039152079947E-02 
587	 9.51869024809726E-02 
588	 9.48961849870143E-02 
589	 0.094500391465509 
590	 9.44414788502569E-02 
591	 9.42889238943389E-02 
592	 9.39729010457657E-02 
593	 9.35234840556414E-02 
594	 0.093443132246385 
595	 9.39598664130816E-02 
596	 9.43291328445037E-02 
597	 9.44268535684385E-02 
598	 0.094251811832591 
599	 9.38843002339703E-02 
600	 9.34393974866736E-02 
601	 0.093175423774835 
602	 9.31118207345501E-02 
603	 9.32235562457263E-02 
604	 9.31500283540028E-02 
605	 9.28645556000249E-02 
606	 9.24500462321654E-02 
607	 9.22089743464752E-02 
608	 0.092220920744838 
609	 9.20910056365121E-02 
610	 9.17288463351191E-02 
611	 0.091079887912073 
612	 9.07267542172853E-02 
613	 0.090712908264276 
614	 9.06435793545034E-02 
615	 0.090500534755524 
616	 9.02659363907939E-02 
617	 8.99927128736879E-02 
618	 8.97080086885657E-02 
619	 8.94401743059832E-02 
620	 8.90960246360263E-02 
621	 8.87368703244363E-02 
622	 8.87837171282718E-02 
623	 8.87141390660544E-02 
624	 8.81001371902397E-02 
625	 8.78473016370238E-02 
626	 0.087997479691461 
627	 8.82295909893297E-02 
628	 8.83017986333808E-02 
629	 8.81556633801899E-02 
630	 8.82710470558661E-02 
631	 8.83916111508481E-02 
632	 8.81568537842496E-02 
633	 8.82385234120071E-02 
634	 8.84869367135351E-02 
635	 8.78593950728339E-02 
636	 8.73283668256667E-02 
637	 8.73815063598651E-02 
638	 8.69382896531423E-02 
639	 8.62030290491729E-02 
640	 0.085790217452758 
641	 0.085350147431075 
642	 8.48090858944724E-02 
643	 8.42491228776922E-02 
644	 8.37249885369959E-02 
645	 8.32868496819252E-02 
646	 8.30604444798004E-02 
647	 8.28149333074573E-02 
648	 8.17808062923621E-02 
649	 8.14136956528155E-02 
650	 8.19912382731313E-02 
651	 8.14261815354403E-02 
652	 8.05661522455349E-02 
653	 8.06050537195737E-02 
654	 8.06644557900228E-02 
655	 8.05636978095255E-02 
656	 8.04752250448907E-02 
657	 8.01381325413072E-02 
658	 7.95114384261167E-02 
659	 7.92698023855849E-02 
660	 0.079169121544216 
661	 7.87338957767076E-02 
662	 7.78688601378572E-02 
663	 7.68444251000236E-02 
664	 7.68617202481694E-02 
665	 7.72246435179725E-02 
666	 7.72557009778189E-02 
667	 7.64261357967925E-02 
668	 7.53566406125901E-02 
669	 7.58734789178554E-02 
670	 7.59452874674412E-02 
671	 7.51507005486034E-02 
672	 7.56542544649172E-02 
673	 7.62960440640761E-02 
674	 0.075610832907777 
675	 7.52008374288241E-02 
676	 7.53664532380889E-02 
677	 7.58912871106668E-02 
678	 7.62183545623803E-02 
679	 7.61122427037147E-02 
680	 7.63882937422762E-02 
681	 7.68528252367941E-02 
682	 7.70212706872595E-02 
683	 7.76552826194783E-02 
684	 7.87597990182026E-02 
685	 7.95092251102063E-02 
686	 8.02850970868355E-02 
687	 8.14326893470339E-02 
688	 8.29510978062503E-02 
689	 8.46281441465145E-02 
690	 8.62485454499334E-02 
691	 8.83386636366488E-02 
692	 9.10212330551517E-02 
693	 9.37696124886859E-02 
694	 9.66912255177863E-02 
695	 9.97925959077991E-02 
696	 0.102789225588153 
697	 0.105790991533716 
698	 0.10934289171761 
699	 0.113035372090663 
700	 0.11666697213369 
701	 0.120694907243028 
702	 0.124757912372161 
703	 0.128329109756065 
704	 0.131734021401771 
705	 0.135121813815952 
706	 0.138534009430279 
707	 0.141964830798032 
708	 0.145385484448033 
709	 0.148614983212518 
710	 0.151736297769718 
711	 0.154966611190273 
712	 0.158325878868129 
713	 0.161668120799768 
714	 0.164452642855954 
715	 0.166936486142695 
716	 0.169506494618283 
717	 0.171869800446167 
718	 0.174256006673623 
719	 0.177188993985847 
720	 0.179811370816212 
721	 0.181757437365089 
722	 0.183549146532514 
723	 0.185105477601228 
724	 0.186109521316546 
725	 0.187380147402705 
726	 0.189121684774779 
727	 0.191661916689606 
728	 0.193604437981705 
729	 0.194352913872876 
730	 0.19528256481426 
731	 0.196470903996598 
732	 0.197794388496438 
733	 0.198655782844302 
734	 0.199113824147527 
735	 0.199754708018472 
736	 0.200602883553742 
737	 0.201593627760248 
738	 0.202118724284833 
739	 0.202545889490046 
740	 0.203726381401387 
741	 0.204827583842181 
742	 0.20551760817086 
743	 0.205634765185429 
744	 0.205698749070229 
745	 0.206146815774518 
746	 0.206665702733199 
747	 0.207107340377593 
748	 0.20725802156667 
749	 0.207387930387749 
750	 0.207598855670381 
751	 0.207752844810598 
752	 0.208191907293287 
753	 0.209227981279697 
754	 0.20962133528038 
755	 0.209485930024486 
756	 0.209983450680936 
757	 0.210152335766003 
758	 0.209729570945142 
759	 0.210321451492301 
760	 0.212182808341238 
761	 0.213439057069736 
762	 0.213805241310877 
763	 0.213625539220262 
764	 0.213530185434821 
765	 0.213427636134429 
766	 0.213325294879536 
767	 0.213288616769455 
768	 0.213404536797444 
769	 0.213798808780019 
770	 0.214130741129785 
771	 0.214247884685089 
772	 0.213929222611747 
773	 0.213792097006752 
774	 0.214218635122361 
775	 0.214618659250235 
776	 0.214959790152933 
777	 0.215366918998551 
778	 0.21562597879137 
779	 0.215666014939422 
780	 0.215421648171642 
781	 0.215493917933989 
782	 0.216278798296179 
783	 0.216701419238044 
784	 0.216737046426874 
785	 0.216729411255397 
786	 0.216790225980205 
787	 0.216949548980294 
788	 0.217036251846736 
789	 0.217061189533714 
790	 0.21706059721277 
791	 0.217290927333677 
792	 0.217622314199994 
793	 0.217613160119693 
794	 0.217654271248952 
795	 0.217845309255057 
796	 0.217962135611936 
797	 0.217972154385481 
798	 0.217871818948319 
799	 0.217944686521724 
800	 0.218052598586424 
801	 0.217578228801708 
802	 0.217526469679681 
803	 0.218184031632312 
804	 0.218760356549876 
805	 0.218977534885319 
806	 0.218649132353659 
807	 0.218586384794473 
808	 0.218879313171779 
809	 0.219242591737165 
810	 0.219576345713232 
811	 0.219795662783738 
812	 0.219750394030414 
813	 0.219984141793218 
814	 0.221180871563775 
815	 0.221809487543516 
816	 0.221879696031093 
817	 0.222971276324954 
818	 0.223124317644555 
819	 0.222008976785737 
820	 0.222707893080264 
821	 0.223748312802171 
822	 0.223163011127419 
823	 0.222910780263883 
824	 0.223317404084536 
825	 0.223975432434591 
826	 0.224676335261882 
827	 0.225246770787434 
828	 0.225307121864065 
829	 0.225205928765216 
830	 0.225410612863604 
831	 0.225639843134941 
832	 0.225919338460418 
833	 0.22656907015374 
834	 0.226762610308371 
835	 0.226331014061072 
836	 0.226612748109346 
837	 0.226886531338924 
838	 0.226266780953289 
839	 0.226364261989315 
840	 0.22705252651781 
841	 0.226916225398744 
842	 0.227061138632071 
843	 0.227762689312973 
844	 0.227812817921574 
845	 0.227655369319521 
846	 0.227874486976435 
847	 0.227692236379326 
848	 0.227323094365216 
849	 0.227848319423957 
850	 0.228199817985348 
851	 0.228038668273788 
852	 0.228196251837271 
853	 0.228327874380953 
854	 0.228069210794443 
855	 0.228892462463448 
856	 0.229997668847106 
857	 0.22857132374843 
858	 0.228004404293773 
859	 0.229009673446743 
860	 0.228862728189715 
861	 0.228281474596908 
862	 0.228109776269123 
863	 0.228343193558544 
864	 0.228980156815302 
865	 0.230026278103557 
866	 0.23063381894814 
867	 0.230548085683582 
868	 0.230232923218978 
869	 0.230216897415664 
870	 0.230860446910855 
871	 0.231480056108215 
872	 0.231941511316289 
873	 0.232222040953114 
874	 0.232618503979234 
875	 0.232938632992514 
876	 0.231797485097976 
877	 0.231728930702403 
878	 0.234098833594138 
879	 0.23441850547423 
880	 0.233720583700175 
881	 0.234717539742704 
882	 0.235001680640763 
883	 0.234524379031469 
884	 0.235228822694894 
885	 0.236565616962578 
886	 0.237992256960759 
887	 0.238196561851568 
888	 0.237758095290221 
889	 0.237654725683503 
890	 0.237428077413098 
891	 0.237108658273566 
892	 0.236992586612104 
893	 0.236904347428549 
894	 0.237055842777107 
895	 0.239284992226165 
896	 0.241101466800907 
897	 0.239588053549027 
898	 0.239038540600443 
899	 0.239726398962608 
900	 0.239798015694881 
901	 0.240569697548235 
902	 0.241798815766152 
903	 0.240668463463287 
904	 0.239756277214695 
905	 0.240923694441713 
906	 0.241506459900841 
907	 0.241092673136548 
908	 0.239603101406741 
909	 0.240070012335737 
910	 0.242317174312954 
911	 0.241833011704119 
912	 0.24117324202314 
913	 0.24180843334294 
914	 0.242910357606315 
915	 0.243943390920279 
916	 0.244396810057834 
917	 0.245824016863233 
918	 0.247117639990357 
919	 0.244353380416929 
920	 0.24286210984625 
921	 0.243719047914351 
922	 0.24137800747279 
923	 0.240036474524105 
924	 0.243123716617502 
925	 0.241966533122765 
926	 0.238293397778692 
927	 0.239259861887431 
928	 0.241533550789259 
929	 0.242883054588611 
930	 0.237335053618302 
931	 0.234874790969009 
932	 0.242511551967374 
933	 0.241985395356383 
934	 0.236883288897516 
935	 0.236919826996931 
936	 0.238715064751795 
937	 0.240559044667495 
938	 0.24011095898134 
939	 0.238303521805625 
940	 0.236774167896674 
941	 0.242228984544892 
942	 0.242053698930832 
943	 0.22952383463223 
944	 0.231381503671709 
945	 0.24027126980941 
946	 0.239137477840944 
947	 0.236567999992362 
948	 0.234356186546687 
949	 0.231360946958851 
950	 0.230178074080835 
951	 0.231788468659066 
952	 0.235426631021005 
953	 0.235802012499881 
954	 0.229378131848397 
955	 0.229749025104946 
956	 0.233277180978589 
957	 0.229460187398911 
958	 0.226031649810236 
959	 0.224545123670763 
960	 0.222667679285942 
961	 0.22419996677026 
962	 0.229185190831715 
963	 0.228443799913895 
964	 0.225464830200568 
965	 0.224178612428065 
966	 0.222614669225532 
967	 0.221218365629823 
968	 0.221218804723361 
969	 0.221550988836706 
970	 0.222229165800558 
971	 0.22461569313368 
972	 0.226262929558736 
973	 0.226236006758011 
974	 0.227768350079214 
975	 0.229468849728622 
976	 0.229444947323859 
977	 0.228168240587382 
978	 0.225463768397037 
979	 0.220483092416053 
980	 0.219909799792289 
981	 0.224600975969546 
982	 0.230499938174661 
983	 0.232209935306238 
984	 0.228041351193154 
985	 0.227503468144092 
986	 0.23018144982307 
987	 0.234273886415288 
988	 0.236334496883185 
989	 0.234825713954423 
990	 0.228078585653445 
991	 0.225746821853014 
992	 0.22899665950387 
993	 0.230185526242667 
994	 0.231643504014342 
995	 0.234019878145611 
996	 0.234926805124787 
997	 0.235058356345749 
998	 0.235021118573197 
999	 0.231169954031514 
1000	 0.228098080070771 
1001	 0.23452455382913 
1002	 0.231772038273531 
1003	 0.222281260633512 
1004	 0.231856200328292 
1005	 0.235231935949126 
1006	 0.225777167200509 
1007	 0.22541563181104 
1008	 0.228464779504002 
1009	 0.229998947436435 
1010	 0.235662500210898 
1011	 0.240032789247223 
1012	 0.235225751110929 
1013	 0.232648624222802 
1014	 0.235123291208239 
1015	 0.243143377805884 
1016	 0.246067047198736 
1017	 0.242039600282648 
1018	 0.239608301147115 
1019	 0.241263543778869 
1020	 0.246787653493823 
1021	 0.245278695718442 
1022	 0.24141231789035 
1023	 0.240933287106889 
1024	 0.243725448390669 
1025	 0.247478714572502 
1026	 0.248345149648889 
1027	 0.246957289112379 
1028	 0.243974267529902 
1029	 0.241141985536933 
1030	 0.236351280887892 
1031	 0.232551293122214 
1032	 0.245864772947003 
1033	 0.252072208041228 
1034	 0.240852415674076 
1035	 0.255928540971596 
1036	 0.272108957573311 
1037	 0.262037819567313 
1038	 0.259145932321438 
1039	 0.262891518921822 
1040	 0.261783562012021 
1041	 0.25783953208057 
1042	 0.251001588939652 
1043	 0.236196947364382 
1044	 0.242465080721954 
1045	 0.267953980143741 
1046	 0.25684791964529 
1047	 0.237561350928874 
1048	 0.229840643969437 
1049	 0.245867501104119 
1050	 0.254979229057735 
1051	 0.23285431715833 
1052	 0.227610320531947 
1053	 0.239014981736309 
1054	 0.252908156714087 
1055	 0.239133437593647 
1056	 0.22166195465818 
1057	 0.274455679598706 
1058	 0.277125797817583 
1059	 0.222593241764087 
1060	 0.249194016727545 
1061	 0.263096554099793 
1062	 0.238491810677629 
1063	 0.274926911557624 
1064	 0.284567962551374 
1065	 0.221411969122376 
1066	 0.240537804987388 
1067	 0.285587530544946 
1068	 0.283138431294674 
1069	 0.260249767604438 
1070	 0.24091200400657 
1071	 0.257982542204912 
1072	 0.276183890854498 
1073	 0.274391819393302 
1074	 0.221682040917971 
1075	 0.198974879296984 
