Wavelength	A00386.asd
325	 0.03814732765141 
326	 0.037151962840401 
327	 3.76419715763607E-02 
328	 3.94160593073758E-02 
329	 3.85082850367657E-02 
330	 3.50824510831515E-02 
331	 3.74871550707689E-02 
332	 4.22218045420405E-02 
333	 0.04506936745908 
334	 4.25226337462351E-02 
335	 3.83124566312327E-02 
336	 4.23215632077319E-02 
337	 4.42133679207295E-02 
338	 4.21838543055461E-02 
339	 4.41315112852759E-02 
340	 4.47269930041209E-02 
341	 0.040205772183591 
342	 0.041465042686954 
343	 0.045499151623291 
344	 0.043873878451508 
345	 4.19690394536547E-02 
346	 0.041158599734925 
347	 0.040593278255851 
348	 4.17073882124902E-02 
349	 4.47441940549869E-02 
350	 4.38576720449574E-02 
351	 4.11450439651227E-02 
352	 4.09707629013735E-02 
353	 0.040311682487337 
354	 3.97179042878884E-02 
355	 4.41172793753294E-02 
356	 4.62685403833006E-02 
357	 4.26405369460932E-02 
358	 4.19803667538475E-02 
359	 4.33266915392967E-02 
360	 4.36403166999968E-02 
361	 4.24131232890189E-02 
362	 4.07008414740304E-02 
363	 4.26049253754847E-02 
364	 4.39459222817508E-02 
365	 4.29053500220055E-02 
366	 4.34110061054289E-02 
367	 4.39918950797713E-02 
368	 4.21838865834458E-02 
369	 0.04168259690194 
370	 4.25993581651636E-02 
371	 0.042201184868587 
372	 4.20973866869904E-02 
373	 4.28904917454392E-02 
374	 4.24494319606945E-02 
375	 4.17898106874544E-02 
376	 4.25469273876095E-02 
377	 4.29045582636632E-02 
378	 4.24248681314316E-02 
379	 4.09540483831339E-02 
380	 4.07064834632759E-02 
381	 4.24556179290711E-02 
382	 4.32182122379186E-02 
383	 4.32154432561527E-02 
384	 0.043151933798023 
385	 4.36176807103645E-02 
386	 4.41109609801523E-02 
387	 0.042551655838152 
388	 4.17600985857578E-02 
389	 4.25534728373398E-02 
390	 4.14259927797834E-02 
391	 4.07050980663872E-02 
392	 4.32942083075897E-02 
393	 4.45036375144007E-02 
394	 0.043726818696514 
395	 4.22325674525705E-02 
396	 4.14602186123713E-02 
397	 0.041820179465029 
398	 4.16958665323611E-02 
399	 4.13383071619339E-02 
400	 4.11399932945742E-02 
401	 4.12324484060712E-02 
402	 4.15873066391552E-02 
403	 4.21750190950739E-02 
404	 4.23930163277124E-02 
405	 4.21224967686238E-02 
406	 4.23680968480974E-02 
407	 4.27682231209439E-02 
408	 4.27712983257268E-02 
409	 4.26066732413792E-02 
410	 0.042404378599781 
411	 0.042303410871734 
412	 4.25591174155408E-02 
413	 4.31778313591866E-02 
414	 4.34793781202624E-02 
415	 4.34118088477683E-02 
416	 4.30118557653454E-02 
417	 4.27890779165599E-02 
418	 0.0429138216009 
419	 4.35319044260288E-02 
420	 4.37759818160338E-02 
421	 4.33080311829059E-02 
422	 0.043351634220243 
423	 4.37980193155675E-02 
424	 4.43001029821527E-02 
425	 4.41448605011601E-02 
426	 4.35299475212064E-02 
427	 4.38968473545679E-02 
428	 4.43930814208879E-02 
429	 4.44703658316359E-02 
430	 4.45409317738571E-02 
431	 4.45948980043213E-02 
432	 4.45658987829106E-02 
433	 4.40086899416291E-02 
434	 4.32343733013752E-02 
435	 0.043639608267357 
436	 4.43157983997137E-02 
437	 4.46473785311659E-02 
438	 4.50339522621021E-02 
439	 4.52535334352047E-02 
440	 4.47663685440335E-02 
441	 4.48206243609067E-02 
442	 0.045485493967963 
443	 4.52964134308149E-02 
444	 4.50048070141006E-02 
445	 4.52434710294851E-02 
446	 4.56240447343783E-02 
447	 4.59704995291298E-02 
448	 4.60346817253542E-02 
449	 4.61423998694191E-02 
450	 4.63547572361986E-02 
451	 4.63447656833387E-02 
452	 4.64611404023228E-02 
453	 4.70133886051679E-02 
454	 4.69224578284094E-02 
455	 4.64532186970755E-02 
456	 4.69821221935076E-02 
457	 4.72291853906943E-02 
458	 4.68653437625125E-02 
459	 4.72441279187825E-02 
460	 4.76558935139381E-02 
461	 0.047168748244484 
462	 4.71322042844734E-02 
463	 4.75307101042964E-02 
464	 0.047317485952797 
465	 4.71294233445278E-02 
466	 4.72776939761383E-02 
467	 4.75119656589125E-02 
468	 4.77144186131117E-02 
469	 4.77565237418669E-02 
470	 4.79133838926206E-02 
471	 0.048137440104258 
472	 4.80072126547067E-02 
473	 4.78402241354569E-02 
474	 4.78337935607933E-02 
475	 4.78063131426882E-02 
476	 4.77823671235524E-02 
477	 4.78613815416051E-02 
478	 4.76643681963573E-02 
479	 4.73112049431458E-02 
480	 4.77409107894996E-02 
481	 0.048283599135125 
482	 4.84062014459384E-02 
483	 4.87062639407363E-02 
484	 4.91054284469385E-02 
485	 4.92296716430201E-02 
486	 4.90423943046077E-02 
487	 4.86426584804322E-02 
488	 0.048649533027494 
489	 4.87018422088952E-02 
490	 4.84099769685182E-02 
491	 4.81339853415755E-02 
492	 4.81598492323721E-02 
493	 4.91526193782523E-02 
494	 4.96992386534336E-02 
495	 4.93104472241004E-02 
496	 4.92365262387246E-02 
497	 4.94698554482646E-02 
498	 4.98390348217091E-02 
499	 0.049992881100379 
500	 4.98427377102032E-02 
501	 4.93871276217289E-02 
502	 4.93212821832466E-02 
503	 4.99740516045483E-02 
504	 5.03624988589035E-02 
505	 5.04547893925168E-02 
506	 0.050425860372473 
507	 5.05080170759532E-02 
508	 5.07415654609179E-02 
509	 5.09399825623456E-02 
510	 5.10666677123834E-02 
511	 5.11157627417667E-02 
512	 5.13192802240336E-02 
513	 5.16423515511741E-02 
514	 5.19333491611874E-02 
515	 5.20847759794156E-02 
516	 5.21033315185726E-02 
517	 5.23193707541502E-02 
518	 5.25566080405162E-02 
519	 5.26022613466753E-02 
520	 5.25216418488572E-02 
521	 5.25048884884435E-02 
522	 0.053033859981875 
523	 5.34360034233341E-02 
524	 5.34848667707282E-02 
525	 5.39975988893395E-02 
526	 5.44121566206509E-02 
527	 5.38165096409309E-02 
528	 5.37292230677374E-02 
529	 5.43210300657253E-02 
530	 5.47259655609715E-02 
531	 5.50047933089645E-02 
532	 0.055198123345186 
533	 5.53554523816174E-02 
534	 5.54497992652203E-02 
535	 5.53910080923484E-02 
536	 5.54042598157989E-02 
537	 0.055602324110558 
538	 5.61212354348726E-02 
539	 5.65785546803607E-02 
540	 5.66002371142989E-02 
541	 5.63569911920028E-02 
542	 5.60590712785807E-02 
543	 5.60847492324338E-02 
544	 5.63859265149034E-02 
545	 5.68550280818378E-02 
546	 5.69614764310804E-02 
547	 0.056921286944795 
548	 5.70809232963238E-02 
549	 0.057483816610591 
550	 5.79919070870906E-02 
551	 5.81221998180406E-02 
552	 5.81059974391946E-02 
553	 5.81133807584252E-02 
554	 5.82472833006613E-02 
555	 5.84525706674165E-02 
556	 5.85925248786723E-02 
557	 5.87275675567276E-02 
558	 5.88684985281437E-02 
559	 5.89995140350432E-02 
560	 5.91098530909337E-02 
561	 5.91934170567803E-02 
562	 5.92911541093057E-02 
563	 5.94055893933352E-02 
564	 5.95527840502615E-02 
565	 5.95121020008439E-02 
566	 5.92866252576573E-02 
567	 0.059494344630809 
568	 5.98362714891588E-02 
569	 5.98636671686641E-02 
570	 0.059751015477032 
571	 0.059676703814034 
572	 6.01197746589434E-02 
573	 6.04070495233609E-02 
574	 6.02087418183683E-02 
575	 6.04854047691691E-02 
576	 6.09438447572974E-02 
577	 6.08233289795807E-02 
578	 6.05121514422322E-02 
579	 6.02195672524671E-02 
580	 6.02910360417533E-02 
581	 6.03823071439715E-02 
582	 6.02152415146548E-02 
583	 6.04553440901173E-02 
584	 6.09678256354418E-02 
585	 6.11414680042867E-02 
586	 6.11552045394799E-02 
587	 0.061060085541213 
588	 6.08353519926253E-02 
589	 6.06206669356069E-02 
590	 6.05964370230792E-02 
591	 6.07098977919098E-02 
592	 6.08977569218176E-02 
593	 0.061063003801546 
594	 6.10306592471054E-02 
595	 6.07811584666126E-02 
596	 6.10703427722531E-02 
597	 6.15575988357042E-02 
598	 6.14561860769793E-02 
599	 6.15586123226666E-02 
600	 0.061922977080041 
601	 6.17570085178853E-02 
602	 6.13525649234125E-02 
603	 6.10316950987813E-02 
604	 6.11392241004159E-02 
605	 6.14886211676169E-02 
606	 6.14181173601781E-02 
607	 6.14616633235997E-02 
608	 6.17781694190674E-02 
609	 6.20587208760516E-02 
610	 6.20875690412441E-02 
611	 6.16472518867626E-02 
612	 6.15886578323478E-02 
613	 6.19381406692075E-02 
614	 0.062022620894074 
615	 6.19738891506385E-02 
616	 6.18837840771058E-02 
617	 6.19021800180495E-02 
618	 6.19255471744961E-02 
619	 6.17112704586152E-02 
620	 6.17825346703712E-02 
621	 6.21278654872311E-02 
622	 6.19960485822091E-02 
623	 6.16914340938828E-02 
624	 6.15413786725206E-02 
625	 6.18718859939764E-02 
626	 6.23623813764572E-02 
627	 6.19879218797948E-02 
628	 6.18255570381125E-02 
629	 6.21896558779465E-02 
630	 6.21737751229964E-02 
631	 6.20635280140808E-02 
632	 6.23016120874248E-02 
633	 6.26535676574623E-02 
634	 6.29686894577957E-02 
635	 6.30053653117017E-02 
636	 6.27919818452813E-02 
637	 6.24376251007646E-02 
638	 6.26306239597014E-02 
639	 6.30315180843703E-02 
640	 6.28576425850808E-02 
641	 6.28662682651669E-02 
642	 6.31340514418777E-02 
643	 6.29583628707348E-02 
644	 6.27285757468053E-02 
645	 6.27992578999865E-02 
646	 6.29330087599431E-02 
647	 6.30332842767451E-02 
648	 6.29876335068207E-02 
649	 6.28078741881181E-02 
650	 6.25553078729745E-02 
651	 6.25144125781621E-02 
652	 6.25403511319643E-02 
653	 6.24340327207274E-02 
654	 6.26955360524486E-02 
655	 6.31671886269321E-02 
656	 6.28582018393203E-02 
657	 6.24186798244265E-02 
658	 6.22100136129819E-02 
659	 6.15453848544042E-02 
660	 6.10311579104908E-02 
661	 6.18246413986602E-02 
662	 6.16492828528849E-02 
663	 6.03751584131791E-02 
664	 0.060473473017256 
665	 6.08013901608492E-02 
666	 0.060381749877537 
667	 6.00678436064914E-02 
668	 5.99803185907567E-02 
669	 6.01805117314844E-02 
670	 5.97358141771562E-02 
671	 5.86123803032009E-02 
672	 5.87281561441353E-02 
673	 5.94126345099571E-02 
674	 0.059716542038486 
675	 5.96470821560836E-02 
676	 5.93854408137592E-02 
677	 5.95134048256549E-02 
678	 5.98661210713259E-02 
679	 6.03057668550596E-02 
680	 0.060521696950583 
681	 6.04932505013394E-02 
682	 6.02280250079559E-02 
683	 6.05823390641509E-02 
684	 6.15561907190181E-02 
685	 0.062072744980886 
686	 6.26023838719378E-02 
687	 6.35008178952035E-02 
688	 6.39101676148804E-02 
689	 0.06407827052896 
690	 6.49356934328361E-02 
691	 6.60174732184476E-02 
692	 6.71254948704039E-02 
693	 6.79441509459821E-02 
694	 6.86953818334627E-02 
695	 6.95880448598005E-02 
696	 7.03616932811664E-02 
697	 7.10321741184032E-02 
698	 7.18439237307691E-02 
699	 7.24169345689165E-02 
700	 7.25889648590736E-02 
701	 7.26666977048699E-02 
702	 7.29539958525631E-02 
703	 7.37941782789225E-02 
704	 7.44594345782246E-02 
705	 0.074876633768592 
706	 0.075536023482828 
707	 7.59545604696129E-02 
708	 7.58906560644693E-02 
709	 7.61006134139644E-02 
710	 7.65658441138983E-02 
711	 7.70254754280118E-02 
712	 7.76665549304083E-02 
713	 7.84107741400004E-02 
714	 7.87591589780559E-02 
715	 7.89723649035446E-02 
716	 7.93147294965169E-02 
717	 7.94633660653084E-02 
718	 7.96037509333697E-02 
719	 8.05509574652446E-02 
720	 0.080941719123703 
721	 0.080519701997396 
722	 8.04973984002152E-02 
723	 8.06846866962595E-02 
724	 8.08107787445846E-02 
725	 8.11756332771116E-02 
726	 8.16518261476455E-02 
727	 8.16648783693611E-02 
728	 8.21352166575867E-02 
729	 8.32366539560976E-02 
730	 8.27569948163529E-02 
731	 8.19055793246248E-02 
732	 8.26348241604272E-02 
733	 8.31914044198887E-02 
734	 8.33076331177569E-02 
735	 8.34604809934682E-02 
736	 8.38179459324909E-02 
737	 8.44272363418288E-02 
738	 8.47110933838498E-02 
739	 8.47111785447434E-02 
740	 8.46378574633437E-02 
741	 8.48948959375628E-02 
742	 8.54236221160538E-02 
743	 8.53385850027534E-02 
744	 8.52161864814812E-02 
745	 8.55372082295147E-02 
746	 0.085655716043826 
747	 8.57310532024823E-02 
748	 8.64770119411665E-02 
749	 8.69002506192289E-02 
750	 8.67140855108535E-02 
751	 8.65050003427946E-02 
752	 8.65404878157934E-02 
753	 8.70302582004196E-02 
754	 8.74534724763415E-02 
755	 8.76528395802432E-02 
756	 8.75374261828545E-02 
757	 8.74190328170339E-02 
758	 8.74968620546428E-02 
759	 8.80708272891096E-02 
760	 8.91758297071664E-02 
761	 8.95518300669159E-02 
762	 8.91089839129618E-02 
763	 0.088479679474834 
764	 8.84902402587555E-02 
765	 8.92331590364827E-02 
766	 9.03757437814205E-02 
767	 9.05261101176501E-02 
768	 9.03315414226529E-02 
769	 9.06319730396891E-02 
770	 9.05705567781456E-02 
771	 9.01927232721829E-02 
772	 9.03522004078933E-02 
773	 9.07453677484963E-02 
774	 9.11345972061758E-02 
775	 9.13767500955975E-02 
776	 9.14777896395696E-02 
777	 0.091489760554088 
778	 9.17190880002716E-02 
779	 0.092128285419725 
780	 9.20661104319954E-02 
781	 9.21808063668504E-02 
782	 9.29001104715904E-02 
783	 9.29275668676505E-02 
784	 9.25368232141258E-02 
785	 9.27529479688902E-02 
786	 9.30466583491908E-02 
787	 9.32655380827465E-02 
788	 9.34715651722856E-02 
789	 0.093672554874358 
790	 9.38697079807109E-02 
791	 9.39739622134251E-02 
792	 0.094104964911764 
793	 9.45966323965347E-02 
794	 9.50587241661087E-02 
795	 9.53012280160985E-02 
796	 9.52223100765827E-02 
797	 9.49647834783918E-02 
798	 9.47006319883401E-02 
799	 9.46688385180031E-02 
800	 9.48793442165409E-02 
801	 9.52209421003706E-02 
802	 9.54931019571066E-02 
803	 0.095604512695702 
804	 9.56548164503871E-02 
805	 9.57082229961407E-02 
806	 9.58328171965759E-02 
807	 9.62344414015416E-02 
808	 9.66654921663161E-02 
809	 9.62320353184755E-02 
810	 9.61593527561448E-02 
811	 0.09684942907132 
812	 9.70569709940337E-02 
813	 9.71411917351723E-02 
814	 9.76892449567007E-02 
815	 0.097925833491927 
816	 9.79885737017055E-02 
817	 9.90791039689109E-02 
818	 9.93193070738286E-02 
819	 9.82465698403172E-02 
820	 9.79378490380107E-02 
821	 9.86331343490626E-02 
822	 0.100364491664669 
823	 0.100653963392429 
824	 9.96608133505818E-02 
825	 9.96935446377562E-02 
826	 9.96146707364874E-02 
827	 0.099200610449852 
828	 0.100034024649959 
829	 0.100672366529006 
830	 0.099299017947647 
831	 0.099318642207958 
832	 0.100579165529789 
833	 0.100358678011919 
834	 0.100325286687215 
835	 0.100956668844511 
836	 0.100713368030343 
837	 0.100609828360913 
838	 0.101849200917005 
839	 0.102306579365652 
840	 0.101973942806357 
841	 0.102212212933347 
842	 0.102368532293328 
843	 0.10223675374972 
844	 0.102190621549056 
845	 0.102080077909772 
846	 0.101732967439227 
847	 0.101811552249995 
848	 0.10227897719865 
849	 0.10262465831166 
850	 0.102902123245524 
851	 0.10311915135829 
852	 0.103407948190983 
853	 0.103427876691375 
854	 0.102894996152472 
855	 0.103433884104028 
856	 0.104499648234469 
857	 0.103964396394022 
858	 0.103221294402096 
859	 0.102839596089113 
860	 0.103124665109089 
861	 0.103566874759458 
862	 0.10364549630449 
863	 0.103263137995342 
864	 0.10307866042617 
865	 0.10473626014028 
866	 0.105930227231079 
867	 0.105929009298914 
868	 0.105449877879309 
869	 0.105688604927351 
870	 0.10730865743639 
871	 0.106995662953044 
872	 0.105834823262456 
873	 0.106999151676365 
874	 0.107117967551976 
875	 0.105873886389923 
876	 0.106253946044205 
877	 0.106859780883833 
878	 0.106790723784797 
879	 0.10746022332628 
880	 0.108534152539578 
881	 0.109223381586176 
882	 0.108500136820561 
883	 0.106938637953051 
884	 0.107547838916013 
885	 0.108483447498729 
886	 0.108607067830812 
887	 0.107669600864545 
888	 0.107395481541757 
889	 0.109968392628948 
890	 0.110315048334087 
891	 0.10855448483232 
892	 0.109149219532471 
893	 0.109456027195513 
894	 0.108667602259237 
895	 0.109456778328939 
896	 0.110965480199726 
897	 0.111887614093429 
898	 0.112584150127198 
899	 0.113044677008038 
900	 0.113251907825827 
901	 0.112858903572462 
902	 0.11192472678803 
903	 0.111002521203625 
904	 0.110574414368331 
905	 0.11098222364959 
906	 0.111950177758166 
907	 0.1129111858719 
908	 0.112990933177969 
909	 0.112849129897092 
910	 0.112758797990818 
911	 0.112867725902878 
912	 0.113473836064486 
913	 0.114448671875667 
914	 0.113749624292345 
915	 0.113155754148325 
916	 0.114941136640567 
917	 0.115234514894865 
918	 0.113685580772628 
919	 0.111010450191711 
920	 0.111854041504709 
921	 0.116342557984501 
922	 0.115788879132841 
923	 0.114165321948999 
924	 0.115140557215393 
925	 0.113980098925221 
926	 0.11154900246812 
927	 0.111385804785031 
928	 0.113012784981987 
929	 0.11501091477022 
930	 0.110283100386202 
931	 0.10827359683912 
932	 0.115327092196147 
933	 0.112311177852207 
934	 0.105484616833848 
935	 0.108427197563036 
936	 0.116906694087954 
937	 0.124732755649152 
938	 0.11938507946645 
939	 0.116163139903076 
940	 0.118869379285843 
941	 0.121613998488606 
942	 0.118673401500892 
943	 0.107975979101497 
944	 0.108284846288557 
945	 0.11641219260664 
946	 0.123236092106439 
947	 0.12483839874882 
948	 0.1217063861844 
949	 0.120949900194972 
950	 0.117576813738619 
951	 0.111519959985208 
952	 0.113280209243668 
953	 0.11679825684506 
954	 0.116344243033196 
955	 0.119634582118598 
956	 0.123471557267723 
957	 0.120199911524907 
958	 0.117622499415708 
959	 0.116973030578495 
960	 0.114364612713381 
961	 0.115017118763636 
962	 0.120336952687694 
963	 0.124419356023344 
964	 0.125500997032876 
965	 0.122695828487939 
966	 0.119901655964729 
967	 0.116974360790393 
968	 0.111725020690671 
969	 0.108592638745807 
970	 0.109291363992115 
971	 0.115143585466404 
972	 0.118916587089086 
973	 0.117848192067808 
974	 0.122247401438466 
975	 0.126067604118103 
976	 0.122042700595716 
977	 0.118889560251053 
978	 0.117330393626345 
979	 0.11490600331416 
980	 0.116648486710016 
981	 0.121869109660746 
982	 0.123000479707201 
983	 0.123433808114163 
984	 0.124801193583137 
985	 0.125193850620503 
986	 0.124441467721493 
987	 0.122624545071399 
988	 0.120386952951915 
989	 0.119261737856266 
990	 0.122063032946737 
991	 0.121262299662135 
992	 0.117194453742883 
993	 0.119775036390599 
994	 0.121231735535171 
995	 0.118537607679939 
996	 0.118414536218593 
997	 0.119486370808929 
998	 0.119950377372319 
999	 0.120963311455899 
1000	 0.121916837287721 
1001	 0.121636338183548 
1002	 0.117923325241751 
1003	 0.113517610591163 
1004	 0.119576562654905 
1005	 0.122563102612234 
1006	 0.117933461772505 
1007	 0.112558163110142 
1008	 0.113549496923789 
1009	 0.123922946094155 
1010	 0.124967634653459 
1011	 0.119252467379938 
1012	 0.114195680917937 
1013	 0.11658428416032 
1014	 0.124751767962934 
1015	 0.131302423936825 
1016	 0.131134353339413 
1017	 0.124817886791849 
1018	 0.122505191643774 
1019	 0.12682842206199 
1020	 0.136554907017782 
1021	 0.134471040065388 
1022	 0.128325546063716 
1023	 0.127178151250078 
1024	 0.126575701612029 
1025	 0.124353074045062 
1026	 0.117988848427607 
1027	 0.120831493243841 
1028	 0.128394091643022 
1029	 0.116649197540981 
1030	 0.105732959511384 
1031	 0.103902888713336 
1032	 0.112182878000747 
1033	 0.120107724829929 
1034	 0.122699428278817 
1035	 0.138744028887926 
1036	 0.151244568523735 
1037	 0.142786306237969 
1038	 0.131303677865458 
1039	 0.128151349953805 
1040	 0.145547946107895 
1041	 0.151284439049459 
1042	 0.140231287919399 
1043	 0.12007817807944 
1044	 0.116324157446092 
1045	 0.133232143238225 
1046	 0.138762443913483 
1047	 0.132276943042232 
1048	 0.116814117335635 
1049	 0.117922865789429 
1050	 0.123626616877439 
1051	 0.121123155051682 
1052	 0.121570621262014 
1053	 0.12478724624042 
1054	 0.127997224942554 
1055	 0.135175135475976 
1056	 0.14423480993803 
1057	 0.150555871869592 
1058	 0.138323816246696 
1059	 0.113817344780391 
1060	 0.130575622217277 
1061	 0.131054198146881 
1062	 0.10256694520365 
1063	 0.128740325929012 
1064	 0.144563989222345 
1065	 0.112958255493053 
1066	 0.141057978893492 
1067	 0.178110971401759 
1068	 0.163295588050939 
1069	 0.145329359802016 
1070	 0.131948819219895 
1071	 0.121513198379766 
1072	 0.124453455140575 
1073	 0.132483647568996 
1074	 0.119877328442507 
1075	 0.114918036161435 
