Wavelength	A00397.asd
325	 2.97291107135317E-02 
326	 3.40667837903831E-02 
327	 4.47602327840637E-02 
328	 4.53344109516717E-02 
329	 4.21919981799462E-02 
330	 3.86279526640969E-02 
331	 0.037786886298366 
332	 0.038633653511642 
333	 3.98013909040123E-02 
334	 3.90342547689575E-02 
335	 3.87169572371865E-02 
336	 4.62325568319444E-02 
337	 4.81599143295204E-02 
338	 4.27894171315965E-02 
339	 4.32330266005461E-02 
340	 4.37974035841901E-02 
341	 4.00184719605649E-02 
342	 4.08546748509877E-02 
343	 4.43398920486049E-02 
344	 4.48081473642617E-02 
345	 4.26126584562001E-02 
346	 3.94765433115199E-02 
347	 4.21921236948733E-02 
348	 0.04278819011576 
349	 3.73401335931447E-02 
350	 4.04895094407535E-02 
351	 0.046097158868067 
352	 4.18631706076811E-02 
353	 0.038459756749281 
354	 3.85194267388142E-02 
355	 4.12984764975805E-02 
356	 4.27083706223305E-02 
357	 4.09825899610676E-02 
358	 4.31480453889633E-02 
359	 4.63044223106417E-02 
360	 4.50101770533785E-02 
361	 4.30883868061509E-02 
362	 4.19392204275075E-02 
363	 4.27926208603697E-02 
364	 0.043421454464143 
365	 4.27438032410779E-02 
366	 4.22212193525604E-02 
367	 4.16878954186717E-02 
368	 4.07016695826172E-02 
369	 0.041089591292701 
370	 4.24467139715851E-02 
371	 4.19543977899925E-02 
372	 4.15904021396372E-02 
373	 4.23595177721453E-02 
374	 4.31827474595652E-02 
375	 0.044157449228443 
376	 4.55617738314306E-02 
377	 4.48083414498561E-02 
378	 0.042373469865755 
379	 4.15282425143028E-02 
380	 0.042327349282244 
381	 4.43271324243208E-02 
382	 4.45560317984268E-02 
383	 4.31999092956337E-02 
384	 4.09768027619325E-02 
385	 4.07853559303905E-02 
386	 4.23097640212874E-02 
387	 4.21853208749702E-02 
388	 4.18004094325242E-02 
389	 4.17426141048512E-02 
390	 4.15398158781319E-02 
391	 4.21668143147726E-02 
392	 4.46810967086741E-02 
393	 0.044903805582026 
394	 0.043049983658512 
395	 4.24679214429928E-02 
396	 0.0418713194057 
397	 4.09693061692678E-02 
398	 4.09388789975974E-02 
399	 4.10566618003178E-02 
400	 4.05481862847647E-02 
401	 4.01795766099499E-02 
402	 4.03790639980755E-02 
403	 4.21119896674869E-02 
404	 4.28322249209745E-02 
405	 4.18521010844277E-02 
406	 4.21719368179329E-02 
407	 4.29557257035239E-02 
408	 4.28515391838556E-02 
409	 4.23200861511526E-02 
410	 4.16203279774007E-02 
411	 4.09958622031693E-02 
412	 4.12821892721168E-02 
413	 4.25774873162911E-02 
414	 4.29731281457223E-02 
415	 4.26189644202707E-02 
416	 4.19758830391786E-02 
417	 0.041784699861767 
418	 0.042143985794148 
419	 4.27507543202364E-02 
420	 0.042971499363936 
421	 4.25962383305424E-02 
422	 4.28268859952337E-02 
423	 4.34253279173057E-02 
424	 4.38609039326794E-02 
425	 4.38634900950381E-02 
426	 4.35842847484156E-02 
427	 4.38546940924938E-02 
428	 0.044287829323436 
429	 4.45671545630973E-02 
430	 4.44132357529535E-02 
431	 4.39535116269217E-02 
432	 4.34727848969087E-02 
433	 4.30074301878048E-02 
434	 4.27104479294842E-02 
435	 4.29138321915998E-02 
436	 4.34248459242654E-02 
437	 4.40392242488031E-02 
438	 4.42075185578279E-02 
439	 4.41069839544778E-02 
440	 4.42073483200387E-02 
441	 4.44316041192269E-02 
442	 4.47203685576869E-02 
443	 4.48693795275191E-02 
444	 4.50083720245579E-02 
445	 4.52385057904102E-02 
446	 4.54337595568724E-02 
447	 4.54729548365303E-02 
448	 4.50974302491437E-02 
449	 4.49072767817589E-02 
450	 4.51129567780853E-02 
451	 4.55695381268998E-02 
452	 4.59671574625562E-02 
453	 4.60272953095331E-02 
454	 4.61745744202249E-02 
455	 4.64125197557556E-02 
456	 4.65089664070028E-02 
457	 4.65680477125267E-02 
458	 0.046654139086575 
459	 4.69263670556112E-02 
460	 4.70650113891299E-02 
461	 4.67001634842562E-02 
462	 0.046671142908464 
463	 0.046903616545276 
464	 4.65028411718519E-02 
465	 4.62164739264709E-02 
466	 0.046422337655218 
467	 4.68398871914932E-02 
468	 0.047173434777581 
469	 4.70542398921079E-02 
470	 4.70418448977014E-02 
471	 4.72292258757689E-02 
472	 4.73936130019713E-02 
473	 4.74531470355667E-02 
474	 4.73448314166711E-02 
475	 4.69629748980163E-02 
476	 4.67311469960977E-02 
477	 4.74239116654669E-02 
478	 4.76301756967468E-02 
479	 4.71854867888207E-02 
480	 4.72390159256154E-02 
481	 4.76872823293925E-02 
482	 4.83477575817903E-02 
483	 4.83296271823286E-02 
484	 4.79108711370432E-02 
485	 4.82018233920599E-02 
486	 4.81178830406132E-02 
487	 4.75474308993215E-02 
488	 4.79896442967037E-02 
489	 4.85875691206991E-02 
490	 4.84003140922801E-02 
491	 4.77949734465318E-02 
492	 4.73274022346475E-02 
493	 4.83457471085776E-02 
494	 4.90233709858623E-02 
495	 0.04866023898989 
496	 4.83372967002218E-02 
497	 4.84057915862353E-02 
498	 4.91723610182612E-02 
499	 4.93359167323677E-02 
500	 4.88761624832292E-02 
501	 4.89260869758425E-02 
502	 4.91466779753036E-02 
503	 4.93394702256838E-02 
504	 4.96242439746795E-02 
505	 0.049840206323913 
506	 4.96969068871387E-02 
507	 4.98000073297789E-02 
508	 5.01960807599042E-02 
509	 5.03244890983379E-02 
510	 5.03328933800039E-02 
511	 5.03685835537131E-02 
512	 5.05817684532234E-02 
513	 5.08972212797326E-02 
514	 5.10597380946873E-02 
515	 5.13478181877588E-02 
516	 0.051723536559241 
517	 5.14471979681717E-02 
518	 5.11458146972728E-02 
519	 5.15243152486188E-02 
520	 5.20132268461566E-02 
521	 5.23652664716451E-02 
522	 5.22605186113904E-02 
523	 5.22178702739135E-02 
524	 5.24884202092046E-02 
525	 5.30083881710782E-02 
526	 5.33555990531339E-02 
527	 5.29413207355124E-02 
528	 5.31557170537476E-02 
529	 5.39564413306593E-02 
530	 5.38802862764952E-02 
531	 5.37171206577784E-02 
532	 5.39928045854551E-02 
533	 5.44334773642605E-02 
534	 0.054773077339312 
535	 5.45423630484175E-02 
536	 5.45660437433542E-02 
537	 5.50083304611441E-02 
538	 5.52602942002423E-02 
539	 5.54577220714034E-02 
540	 5.57427109101575E-02 
541	 5.58272424823327E-02 
542	 0.055738684315306 
543	 5.56289320056529E-02 
544	 5.58493625740763E-02 
545	 5.64427239916233E-02 
546	 5.66548185098834E-02 
547	 5.65916567196119E-02 
548	 5.64911509767938E-02 
549	 5.63843435641914E-02 
550	 5.64420141065102E-02 
551	 5.71825433922485E-02 
552	 0.057737012228474 
553	 5.75830730349804E-02 
554	 5.73487267400557E-02 
555	 5.72836284645509E-02 
556	 5.76743321350301E-02 
557	 5.80245432058891E-02 
558	 5.81683988640506E-02 
559	 5.82293663937909E-02 
560	 5.82249293393115E-02 
561	 5.81905024324837E-02 
562	 5.84143071272841E-02 
563	 5.87789321132252E-02 
564	 5.88701574100464E-02 
565	 5.87855633617012E-02 
566	 5.86203124748662E-02 
567	 5.87670205154835E-02 
568	 5.88999583084082E-02 
569	 5.85654977302902E-02 
570	 5.86362158151484E-02 
571	 5.91263534712973E-02 
572	 5.93414302237837E-02 
573	 5.93563788132616E-02 
574	 5.92713412732363E-02 
575	 5.96189057912229E-02 
576	 6.00253083102072E-02 
577	 5.96674195353908E-02 
578	 5.93460627865397E-02 
579	 0.059290581587571 
580	 5.92703179157258E-02 
581	 5.92983659427433E-02 
582	 5.93928725988462E-02 
583	 5.95997295999253E-02 
584	 5.98613637023061E-02 
585	 6.00478181952683E-02 
586	 6.01203457659069E-02 
587	 6.00579183775396E-02 
588	 5.98782048624923E-02 
589	 5.97613159865067E-02 
590	 5.99303946344885E-02 
591	 6.00116297169202E-02 
592	 5.99532907239022E-02 
593	 5.98976789939334E-02 
594	 5.99242536468513E-02 
595	 6.00928273936106E-02 
596	 6.04356140036189E-02 
597	 6.08082824549656E-02 
598	 6.09907673406082E-02 
599	 6.08316161899962E-02 
600	 6.04128594995458E-02 
601	 6.02812282105258E-02 
602	 6.03339171910715E-02 
603	 6.04722271975605E-02 
604	 6.10163747745059E-02 
605	 6.15447270912787E-02 
606	 6.08002672688435E-02 
607	 6.04624266185759E-02 
608	 6.10586197873812E-02 
609	 6.12570361649067E-02 
610	 6.11403630093791E-02 
611	 6.09693835785033E-02 
612	 6.08964647281853E-02 
613	 6.09152392783173E-02 
614	 6.07708373335296E-02 
615	 6.08370277029729E-02 
616	 6.12432476556083E-02 
617	 6.10770711652264E-02 
618	 6.06722570055559E-02 
619	 0.060819715988167 
620	 0.060961425079284 
621	 6.09670580728907E-02 
622	 6.10476000827611E-02 
623	 6.09396619486821E-02 
624	 6.04611267640853E-02 
625	 6.05351294163175E-02 
626	 6.09452158312365E-02 
627	 6.06065331287239E-02 
628	 6.05890857006389E-02 
629	 6.11817999013604E-02 
630	 6.14372777983936E-02 
631	 6.14722407714696E-02 
632	 0.061538885979003 
633	 6.15974324865364E-02 
634	 0.061663417493533 
635	 6.17824716875151E-02 
636	 6.18846734003489E-02 
637	 6.19199276251044E-02 
638	 6.18540582880388E-02 
639	 0.061774998059969 
640	 6.18478264430183E-02 
641	 6.18592229878088E-02 
642	 6.17702418156762E-02 
643	 6.16625844391122E-02 
644	 6.18060914902127E-02 
645	 6.23793690288057E-02 
646	 6.25289650162518E-02 
647	 6.22575274274529E-02 
648	 6.20196255138395E-02 
649	 6.18213679459126E-02 
650	 6.17058141363692E-02 
651	 6.16729535157398E-02 
652	 6.17254581971793E-02 
653	 0.061867124794702 
654	 6.22634084804068E-02 
655	 6.26897913067558E-02 
656	 6.22193559654918E-02 
657	 6.16830090710335E-02 
658	 6.15443991982558E-02 
659	 6.10502184390538E-02 
660	 0.060453237284577 
661	 6.03043838037454E-02 
662	 5.98857374866956E-02 
663	 5.92732515291865E-02 
664	 5.96961715745513E-02 
665	 6.01097162904476E-02 
666	 5.96446229915396E-02 
667	 5.90794541849108E-02 
668	 0.058677764717095 
669	 5.87666299276191E-02 
670	 5.86308662054566E-02 
671	 5.81683316197451E-02 
672	 5.84587670262996E-02 
673	 5.89049623762173E-02 
674	 5.87439728137045E-02 
675	 5.83547333388434E-02 
676	 5.80542428338184E-02 
677	 5.84941233577151E-02 
678	 5.91061925905424E-02 
679	 5.95372385105441E-02 
680	 0.059738143924489 
681	 5.97095807372115E-02 
682	 5.94403799654429E-02 
683	 5.97995665049931E-02 
684	 6.08149360899809E-02 
685	 6.15598404803619E-02 
686	 6.20896810266822E-02 
687	 6.24469517983402E-02 
688	 6.28859671006325E-02 
689	 6.34705014755442E-02 
690	 6.42482440500903E-02 
691	 6.53465649530109E-02 
692	 6.65941873870599E-02 
693	 6.69262535174407E-02 
694	 0.067097655328007 
695	 6.79246497443314E-02 
696	 6.89092329798894E-02 
697	 6.98044880904704E-02 
698	 7.02137851185313E-02 
699	 7.07682362386607E-02 
700	 7.16870172013304E-02 
701	 0.072245668237479 
702	 7.26960627803875E-02 
703	 7.34940062968625E-02 
704	 7.41012165360768E-02 
705	 7.44233296945112E-02 
706	 7.45822522211605E-02 
707	 7.47430025966532E-02 
708	 7.50338870526969E-02 
709	 7.54861486137648E-02 
710	 7.60480061897191E-02 
711	 7.66444285596256E-02 
712	 7.70194754663743E-02 
713	 7.72012287551154E-02 
714	 7.77441253214192E-02 
715	 7.83160472591514E-02 
716	 7.86122391486937E-02 
717	 7.87664395854095E-02 
718	 7.89251032341581E-02 
719	 7.94831459232784E-02 
720	 7.96909668460083E-02 
721	 7.94874401801409E-02 
722	 7.99568854959144E-02 
723	 8.03533597336969E-02 
724	 7.97593967446718E-02 
725	 7.99609527419847E-02 
726	 8.09180114114771E-02 
727	 8.12174917815188E-02 
728	 0.081239403428037 
729	 8.12166915966177E-02 
730	 8.15051367574343E-02 
731	 8.19353116302486E-02 
732	 8.22110572704124E-02 
733	 8.24725281189816E-02 
734	 0.08274213948318 
735	 8.29699627101643E-02 
736	 8.32541844810277E-02 
737	 8.36036131347669E-02 
738	 8.35076842695881E-02 
739	 0.083379691536744 
740	 8.41487607896045E-02 
741	 8.45076072002869E-02 
742	 8.42435264343949E-02 
743	 8.43347219458458E-02 
744	 8.44589041539913E-02 
745	 0.084366836414465 
746	 8.47594967856084E-02 
747	 8.54508977697881E-02 
748	 8.57436015080437E-02 
749	 8.59760579040816E-02 
750	 8.61549852394338E-02 
751	 8.57170186280408E-02 
752	 8.54096737440034E-02 
753	 8.60095413282625E-02 
754	 8.63295369164816E-02 
755	 8.63272731425157E-02 
756	 8.66479859725113E-02 
757	 8.68849966745764E-02 
758	 8.69073334529283E-02 
759	 8.70217903072278E-02 
760	 8.76505534003743E-02 
761	 8.91259537654035E-02 
762	 8.89955382802192E-02 
763	 8.79005235354654E-02 
764	 8.85236918840323E-02 
765	 0.089302425356396 
766	 0.089595140105466 
767	 8.94098976382254E-02 
768	 0.089086772934093 
769	 8.89790420816909E-02 
770	 8.92130621055416E-02 
771	 8.96264764908557E-02 
772	 8.94507926183779E-02 
773	 8.93831968838783E-02 
774	 8.98430607341666E-02 
775	 9.01233716098422E-02 
776	 9.02781438089396E-02 
777	 9.05850487397095E-02 
778	 9.10517207921998E-02 
779	 9.14925251023183E-02 
780	 0.091089599080864 
781	 0.090862698913415 
782	 9.15461408351158E-02 
783	 9.17048973437527E-02 
784	 9.15631609405248E-02 
785	 9.21366717839166E-02 
786	 9.24574259537479E-02 
787	 9.22878954430943E-02 
788	 9.20509020408505E-02 
789	 9.21476167206981E-02 
790	 9.28584777221082E-02 
791	 9.30286582615878E-02 
792	 9.28681923800419E-02 
793	 9.34679981406663E-02 
794	 9.39974486592929E-02 
795	 9.40933073976284E-02 
796	 9.34467746538745E-02 
797	 9.30491181456473E-02 
798	 9.38346545345799E-02 
799	 9.43971075051436E-02 
800	 9.45541397053353E-02 
801	 9.45802219559517E-02 
802	 9.48380264285707E-02 
803	 9.52866183686197E-02 
804	 9.47149221748322E-02 
805	 9.41343941158281E-02 
806	 9.46664451819504E-02 
807	 9.47877318966753E-02 
808	 9.45729330558712E-02 
809	 9.52003954010276E-02 
810	 9.56382783963668E-02 
811	 0.09554563976242 
812	 9.58142208507172E-02 
813	 9.62097892944491E-02 
814	 0.096349849121156 
815	 9.72569348440426E-02 
816	 9.86118683865283E-02 
817	 0.09871267999521 
818	 9.84530047926796E-02 
819	 0.098282336534258 
820	 9.82178633389338E-02 
821	 9.82947186947146E-02 
822	 9.85321513983826E-02 
823	 9.84651672188706E-02 
824	 9.82594636939818E-02 
825	 9.86805399686684E-02 
826	 9.91941505589209E-02 
827	 9.95392492786762E-02 
828	 9.96177020116114E-02 
829	 9.93145487205718E-02 
830	 0.098566777267826 
831	 9.87580886656068E-02 
832	 9.96696437639586E-02 
833	 9.97837182564173E-02 
834	 9.96390013078772E-02 
835	 0.099543684843821 
836	 9.99706853520881E-02 
837	 0.100489243965322 
838	 0.10057443404278 
839	 0.100377489598054 
840	 0.100158809119312 
841	 0.100523529892597 
842	 0.101065896225281 
843	 0.101520169073937 
844	 0.101418823903934 
845	 0.101484467055834 
846	 0.102500660918994 
847	 0.102695667656705 
848	 0.102102984360175 
849	 0.101871633625928 
850	 0.102018429871665 
851	 0.102465667992647 
852	 0.1023989136209 
853	 0.102296187357982 
854	 0.102725188348062 
855	 0.103347225972443 
856	 0.103713006200922 
857	 0.102904769384114 
858	 0.102078586188625 
859	 0.101756358826966 
860	 0.102220172973631 
861	 0.102759415271065 
862	 0.102683472625529 
863	 0.102225733193662 
864	 0.10201091275661 
865	 0.103396992031675 
866	 0.1047827140981 
867	 0.105391155375026 
868	 0.104722502477467 
869	 0.10388338537716 
870	 0.10384712962184 
871	 0.104625471451917 
872	 0.105870738052855 
873	 0.107007502251102 
874	 0.107069607701059 
875	 0.105928114850068 
876	 0.104218737057138 
877	 0.104148120552998 
878	 0.106740097953087 
879	 0.106861652718019 
880	 0.105811063313408 
881	 0.106910494411764 
882	 0.106960807873991 
883	 0.10591660660103 
884	 0.106541734526277 
885	 0.107652968075876 
886	 0.108382426847575 
887	 0.107651543555333 
888	 0.106939147306088 
889	 0.108283765952085 
890	 0.108778640724663 
891	 0.10821794868096 
892	 0.108229725156763 
893	 0.108154147012805 
894	 0.107951094031568 
895	 0.109008406468135 
896	 0.110408815731228 
897	 0.110905181670471 
898	 0.110827713699318 
899	 0.110666438854881 
900	 0.111686784045755 
901	 0.110744761767864 
902	 0.108165322027753 
903	 0.110171573523089 
904	 0.112099728027064 
905	 0.110554319316884 
906	 0.110594167040136 
907	 0.111689056335426 
908	 0.111569973842684 
909	 0.111723514366261 
910	 0.112510533496378 
911	 0.113723872499713 
912	 0.114620174191329 
913	 0.114867470561433 
914	 0.115711978322184 
915	 0.115702921057853 
916	 0.113129705438352 
917	 0.113037415889928 
918	 0.114695428085495 
919	 0.112973695272295 
920	 0.112631758577512 
921	 0.114359046215715 
922	 0.112690521058514 
923	 0.111297464609406 
924	 0.113371472198897 
925	 0.113228728685006 
926	 0.111923951048951 
927	 0.113967947611921 
928	 0.115314466537935 
929	 0.114850401433673 
930	 0.114329546848798 
931	 0.116225535298031 
932	 0.121125990649215 
933	 0.115712843384771 
934	 0.107157040174927 
935	 0.109048029960231 
936	 0.11468989696962 
937	 0.119267084680652 
938	 0.115123101750025 
939	 0.112115633521259 
940	 0.113625456544243 
941	 0.119726415484109 
942	 0.122012464046674 
943	 0.115754458641437 
944	 0.114925563265246 
945	 0.118208622587053 
946	 0.120373635778 
947	 0.12049461917961 
948	 0.119591981527881 
949	 0.122893493923326 
950	 0.123102670931061 
951	 0.11845368596729 
952	 0.117576511173709 
953	 0.118001536404245 
954	 0.117243257392307 
955	 0.120283735469776 
956	 0.124030309570022 
957	 0.121892074221554 
958	 0.118041788352373 
959	 0.114458025867498 
960	 0.112410937361626 
961	 0.116063667008672 
962	 0.124894162672692 
963	 0.126406633229908 
964	 0.124499264082348 
965	 0.123751006351194 
966	 0.121339464180703 
967	 0.118258091903457 
968	 0.117019636635774 
969	 0.114835579515776 
970	 0.111917448856353 
971	 0.11177801898299 
972	 0.112919693818773 
973	 0.114470758396906 
974	 0.116759430480596 
975	 0.119324140469397 
976	 0.121504815243221 
977	 0.121763463354729 
978	 0.119846314909195 
979	 0.115518756053204 
980	 0.116119841793844 
981	 0.121479787299589 
982	 0.122535668016056 
983	 0.12214488163471 
984	 0.122262392428365 
985	 0.124775574713268 
986	 0.126950584011099 
987	 0.125877027303184 
988	 0.124710129305402 
989	 0.123065812002808 
990	 0.118976517027079 
991	 0.115126369138121 
992	 0.113429646729615 
993	 0.117284193756904 
994	 0.120788921813621 
995	 0.120747365607057 
996	 0.117728440877106 
997	 0.117977375911632 
998	 0.126241560074998 
999	 0.125890801128082 
1000	 0.121160396281299 
1001	 0.124361858114345 
1002	 0.121940371589922 
1003	 0.115945027654022 
1004	 0.125283205607719 
1005	 0.129274700914097 
1006	 0.121138249437986 
1007	 0.112248086573065 
1008	 0.109721684237582 
1009	 0.11745267632524 
1010	 0.123801618659232 
1011	 0.125116246831865 
1012	 0.119116721150479 
1013	 0.117269916921203 
1014	 0.120523431784603 
1015	 0.124579330698831 
1016	 0.123400620710101 
1017	 0.118762564965754 
1018	 0.127914750498915 
1019	 0.132600990155005 
1020	 0.124413439520565 
1021	 0.118481732655109 
1022	 0.117572239126468 
1023	 0.122833221558157 
1024	 0.13642982930562 
1025	 0.143868906495521 
1026	 0.121969882178405 
1027	 0.119045341523474 
1028	 0.1340179257262 
1029	 0.123661075069994 
1030	 0.114856326121806 
1031	 0.116605230311307 
1032	 0.12617562700652 
1033	 0.130852681326876 
1034	 0.124915676346069 
1035	 0.129781209710514 
1036	 0.136442595206681 
1037	 0.134443825766243 
1038	 0.134295281333429 
1039	 0.136398402965482 
1040	 0.138241734497324 
1041	 0.136368535787655 
1042	 0.131536569443411 
1043	 0.126151171373302 
1044	 0.133907738124923 
1045	 0.151826934704824 
1046	 0.147503622568178 
1047	 0.131140635470408 
1048	 0.114375427807777 
1049	 0.131664192176217 
1050	 0.1513500527752 
1051	 0.1440711467914 
1052	 0.135315603917864 
1053	 0.130022887316079 
1054	 0.129822860110657 
1055	 0.137396910273699 
1056	 0.151241070036953 
1057	 0.169559538710031 
1058	 0.159839154933128 
1059	 0.123859667155349 
1060	 0.121935047336818 
1061	 0.117251388269366 
1062	 9.79708139754318E-02 
1063	 0.100195242894619 
1064	 0.106549370682626 
1065	 0.108758508867053 
1066	 0.158720155559828 
1067	 0.19661903368577 
1068	 0.160035633735784 
1069	 0.121786361808816 
1070	 0.10456735651865 
1071	 0.119399554658172 
1072	 0.130984122092845 
1073	 0.126426343101304 
1074	 9.47469147462742E-02 
1075	 0.112680274295155 
