Wavelength	A00373.asd
325	 3.64356268571864E-02 
326	 3.77148548398621E-02 
327	 4.30634721567076E-02 
328	 3.49158350468257E-02 
329	 3.12721126333321E-02 
330	 3.61082314166978E-02 
331	 3.23791435313111E-02 
332	 3.06093174144285E-02 
333	 4.11778872581921E-02 
334	 0.046730627728368 
335	 0.046141764602541 
336	 4.37091938500552E-02 
337	 4.20623456270849E-02 
338	 4.21898997031338E-02 
339	 4.32389963024379E-02 
340	 0.042874659447175 
341	 3.96981137905974E-02 
342	 3.86656424901283E-02 
343	 0.040502766678836 
344	 4.58044406621082E-02 
345	 4.46945716754932E-02 
346	 3.78801399316704E-02 
347	 3.92678501007745E-02 
348	 4.11330239263717E-02 
349	 3.88751999648883E-02 
350	 4.19124247728456E-02 
351	 4.53443804966638E-02 
352	 3.97338824606855E-02 
353	 3.66042823420909E-02 
354	 3.83189962050699E-02 
355	 4.24864112440128E-02 
356	 0.043195824149586 
357	 3.81812952047788E-02 
358	 3.93208677373336E-02 
359	 4.28422166811943E-02 
360	 4.09786818365208E-02 
361	 4.03635301937052E-02 
362	 4.20176806267531E-02 
363	 0.044244767510309 
364	 0.044336726392749 
365	 4.15919395741992E-02 
366	 4.14064599504236E-02 
367	 4.23116369846206E-02 
368	 0.041585814107142 
369	 4.16637369052809E-02 
370	 4.23660723758814E-02 
371	 4.11320383853144E-02 
372	 4.06721331997081E-02 
373	 0.042263537624486 
374	 4.37536275337536E-02 
375	 4.44911276237522E-02 
376	 4.40070807949071E-02 
377	 4.31986985990784E-02 
378	 4.21738350297158E-02 
379	 3.99523967113955E-02 
380	 4.00013136392898E-02 
381	 4.34266559976091E-02 
382	 4.54293661506042E-02 
383	 0.045424128087523 
384	 4.33836098035785E-02 
385	 4.30771099541258E-02 
386	 4.44722818766495E-02 
387	 0.044421151633022 
388	 4.34589701427652E-02 
389	 4.20479889231277E-02 
390	 0.041203898155609 
391	 4.18302137515652E-02 
392	 4.47054997031725E-02 
393	 4.46240583234958E-02 
394	 4.23336258289949E-02 
395	 4.34254392551434E-02 
396	 4.42043315888149E-02 
397	 4.32523208318045E-02 
398	 4.16993870835441E-02 
399	 4.05220904433428E-02 
400	 4.04850717602688E-02 
401	 4.09313474381153E-02 
402	 4.16980972331182E-02 
403	 4.29448995371699E-02 
404	 4.37311572251641E-02 
405	 4.36960126246792E-02 
406	 4.33519766444444E-02 
407	 4.30476219021407E-02 
408	 4.31254697613765E-02 
409	 0.043131102120648 
410	 4.30038987590891E-02 
411	 4.28369165295103E-02 
412	 4.28664642203088E-02 
413	 4.31521946709384E-02 
414	 4.32525834368072E-02 
415	 4.34361713762321E-02 
416	 4.41043010491857E-02 
417	 4.39803026368769E-02 
418	 4.33270021771026E-02 
419	 4.39360858276782E-02 
420	 4.44815342311524E-02 
421	 4.43309258376461E-02 
422	 4.44706262983696E-02 
423	 4.47291287225205E-02 
424	 4.47084484712357E-02 
425	 4.45646792662506E-02 
426	 4.45165339547908E-02 
427	 4.52366300514416E-02 
428	 4.57286267678795E-02 
429	 4.54245515130152E-02 
430	 4.54566413635111E-02 
431	 4.55622732962093E-02 
432	 4.50701564021199E-02 
433	 4.43689625629868E-02 
434	 4.38862121148466E-02 
435	 4.46733222657446E-02 
436	 4.53671171939421E-02 
437	 4.51362383670933E-02 
438	 4.52708436711132E-02 
439	 4.55637925168828E-02 
440	 4.52761421319797E-02 
441	 4.51939961039304E-02 
442	 4.54804787914247E-02 
443	 0.045775411382568 
444	 4.59135396797164E-02 
445	 4.58257553965923E-02 
446	 4.62381612714838E-02 
447	 0.046823783593238 
448	 4.65483421752872E-02 
449	 4.65444685769572E-02 
450	 4.70496904306683E-02 
451	 4.72196994482452E-02 
452	 4.72719194763973E-02 
453	 4.74541768525254E-02 
454	 4.74390931348323E-02 
455	 4.73450603087608E-02 
456	 4.76838326779639E-02 
457	 4.78519679673315E-02 
458	 4.77033700921357E-02 
459	 4.79891041790518E-02 
460	 4.82220490362075E-02 
461	 4.77827085392614E-02 
462	 4.76818302908608E-02 
463	 4.79494374947318E-02 
464	 4.79067603389827E-02 
465	 4.79159205999641E-02 
466	 4.81310889480272E-02 
467	 4.83281399324536E-02 
468	 0.048384218951187 
469	 4.81629307655396E-02 
470	 4.81688971262342E-02 
471	 4.84794616909096E-02 
472	 4.89005186294481E-02 
473	 4.90084912890629E-02 
474	 4.85996911570477E-02 
475	 4.83733164035244E-02 
476	 4.83735930858741E-02 
477	 4.85058739502806E-02 
478	 4.83669722325567E-02 
479	 4.80726329627772E-02 
480	 0.048677300181926 
481	 4.92150531039142E-02 
482	 4.89363437505973E-02 
483	 4.87747593027676E-02 
484	 4.89476460334207E-02 
485	 4.97097929218623E-02 
486	 0.049532550521912 
487	 4.83532063745756E-02 
488	 4.91300756005589E-02 
489	 5.01834078115803E-02 
490	 4.96950175021693E-02 
491	 0.049262573613782 
492	 4.92098657966769E-02 
493	 0.049533740922352 
494	 4.99232928576672E-02 
495	 5.01804896132396E-02 
496	 5.01356015566165E-02 
497	 5.00335639973119E-02 
498	 5.02070097218956E-02 
499	 5.04826176141494E-02 
500	 5.06960969374817E-02 
501	 5.04054133454665E-02 
502	 5.03521563588973E-02 
503	 5.08818500296501E-02 
504	 5.08647467138524E-02 
505	 5.07435473899198E-02 
506	 5.15249432190075E-02 
507	 5.17653549604655E-02 
508	 5.13761164988835E-02 
509	 5.17301511604628E-02 
510	 5.22502083722186E-02 
511	 5.24593654677875E-02 
512	 5.27069093399075E-02 
513	 5.29859441265311E-02 
514	 5.31642521327734E-02 
515	 5.33199306919376E-02 
516	 5.34441906508441E-02 
517	 5.33071409314003E-02 
518	 5.33075930134141E-02 
519	 5.38474747032575E-02 
520	 5.40195856752042E-02 
521	 5.39418086196814E-02 
522	 5.44824528977495E-02 
523	 5.49050308175362E-02 
524	 5.49695486091916E-02 
525	 5.54812962829334E-02 
526	 5.60361224369518E-02 
527	 5.59466386772583E-02 
528	 5.61251018305047E-02 
529	 5.65882249127254E-02 
530	 5.65060092474008E-02 
531	 5.65572637806823E-02 
532	 5.71406376646269E-02 
533	 5.75152316881549E-02 
534	 5.76310916756201E-02 
535	 5.75795663709179E-02 
536	 5.78282816332788E-02 
537	 5.84241999673758E-02 
538	 5.88053627048179E-02 
539	 0.058915882111701 
540	 5.87567727026346E-02 
541	 5.88330276039456E-02 
542	 5.90829134241064E-02 
543	 5.89998093439896E-02 
544	 5.90890930795813E-02 
545	 5.95170611924905E-02 
546	 5.99381425805605E-02 
547	 6.02151711598683E-02 
548	 6.02204558615699E-02 
549	 6.03361613639404E-02 
550	 6.06077411373897E-02 
551	 6.08296288099411E-02 
552	 6.09844285680098E-02 
553	 6.10565299266351E-02 
554	 6.10181375125919E-02 
555	 6.10315740506879E-02 
556	 0.061394285479459 
557	 6.18102160901815E-02 
558	 6.21093657306461E-02 
559	 6.20308483625072E-02 
560	 6.19701235934243E-02 
561	 6.22778638496765E-02 
562	 6.24960731477387E-02 
563	 0.06254774783964 
564	 6.24543185041752E-02 
565	 6.23985367935189E-02 
566	 6.24500483717895E-02 
567	 6.24441463010208E-02 
568	 6.24508739668678E-02 
569	 6.25753560402439E-02 
570	 6.28073041930713E-02 
571	 6.30379119698704E-02 
572	 6.29354630024365E-02 
573	 6.28000555898514E-02 
574	 6.28422681586211E-02 
575	 6.31668673296732E-02 
576	 6.35007411251115E-02 
577	 6.33216399896556E-02 
578	 6.31500442270379E-02 
579	 6.31539159105269E-02 
580	 6.32664259301158E-02 
581	 6.33811764369485E-02 
582	 6.34128568202725E-02 
583	 6.35394381118567E-02 
584	 6.36807239123724E-02 
585	 6.35340774786072E-02 
586	 6.34626706634192E-02 
587	 6.35741091012947E-02 
588	 6.35466361710854E-02 
589	 6.34127770324308E-02 
590	 6.32597729311496E-02 
591	 6.33418375939204E-02 
592	 6.36022283837848E-02 
593	 6.36373209093625E-02 
594	 6.37207697050363E-02 
595	 6.39951623559875E-02 
596	 6.42832009112156E-02 
597	 6.44627733446975E-02 
598	 6.43859191353781E-02 
599	 6.40336122526414E-02 
600	 6.36086579044919E-02 
601	 6.39896491189312E-02 
602	 6.42859546172019E-02 
603	 6.37659764862921E-02 
604	 6.39120104204339E-02 
605	 6.44478237060575E-02 
606	 6.39406951901167E-02 
607	 6.37009120432896E-02 
608	 6.41167506498355E-02 
609	 6.41821807117228E-02 
610	 6.40007773802818E-02 
611	 6.38198234843797E-02 
612	 6.39903981484289E-02 
613	 6.43721270503127E-02 
614	 6.41935345714683E-02 
615	 6.38983700827414E-02 
616	 6.37509838351878E-02 
617	 6.34986755569839E-02 
618	 6.33400451226456E-02 
619	 6.36847027387346E-02 
620	 6.36869418129292E-02 
621	 6.32980113012655E-02 
622	 6.35674507212641E-02 
623	 6.37211855247578E-02 
624	 6.31086787169575E-02 
625	 6.30648593827711E-02 
626	 6.35070632250525E-02 
627	 6.35713500295392E-02 
628	 6.35943973603885E-02 
629	 0.063630521725893 
630	 6.32877757694011E-02 
631	 6.30851857795073E-02 
632	 6.36779567973662E-02 
633	 6.40086768197326E-02 
634	 6.39215144932499E-02 
635	 0.06378856953564 
636	 6.38442928309345E-02 
637	 6.41811652028441E-02 
638	 6.42637396959653E-02 
639	 6.41309843937221E-02 
640	 6.39577698304681E-02 
641	 6.41413741998119E-02 
642	 6.46101221601044E-02 
643	 6.44537426078948E-02 
644	 6.41750610796347E-02 
645	 6.42283353912744E-02 
646	 0.064213241304441 
647	 6.41065358786948E-02 
648	 6.40338758348034E-02 
649	 6.39585949677146E-02 
650	 6.38530233306924E-02 
651	 6.35986935481233E-02 
652	 6.34068452783685E-02 
653	 0.063530162098092 
654	 6.37574094176604E-02 
655	 6.38896595997479E-02 
656	 6.34736943874426E-02 
657	 6.28937543445492E-02 
658	 6.24232357459339E-02 
659	 6.18917556806935E-02 
660	 6.15153181198973E-02 
661	 6.17162025683075E-02 
662	 6.13927819252471E-02 
663	 6.04718284265722E-02 
664	 6.01057352909125E-02 
665	 6.00064132356568E-02 
666	 5.98656257304928E-02 
667	 5.92995449221781E-02 
668	 5.85824570321187E-02 
669	 0.058585358259663 
670	 5.84636487901617E-02 
671	 5.80243397986672E-02 
672	 5.80015451108221E-02 
673	 5.81958819770491E-02 
674	 5.83098403744591E-02 
675	 5.81363147070212E-02 
676	 5.78668609849341E-02 
677	 5.82676897652999E-02 
678	 5.85993129022159E-02 
679	 5.85345697727341E-02 
680	 5.88173313848981E-02 
681	 5.92468917812884E-02 
682	 5.93587236583397E-02 
683	 5.97413448928732E-02 
684	 6.04700698495108E-02 
685	 0.061190864243123 
686	 6.19415938300293E-02 
687	 6.27169395515609E-02 
688	 6.32769583918922E-02 
689	 6.38359833914515E-02 
690	 6.50618264109637E-02 
691	 6.62525866473155E-02 
692	 6.72799755651611E-02 
693	 6.85824576643687E-02 
694	 0.069986246043468 
695	 7.12287965100342E-02 
696	 7.23721500395076E-02 
697	 0.073489748019566 
698	 7.48014665672902E-02 
699	 7.60360945831814E-02 
700	 7.70257447607582E-02 
701	 7.77859069588511E-02 
702	 7.84907209462483E-02 
703	 7.93751074018545E-02 
704	 8.01905641289303E-02 
705	 8.09280185962769E-02 
706	 8.17867671131035E-02 
707	 8.23936631308236E-02 
708	 8.25945353531221E-02 
709	 8.32634755982225E-02 
710	 8.42323366456592E-02 
711	 8.49774418679029E-02 
712	 8.55288110640569E-02 
713	 8.59643102629427E-02 
714	 8.66892011846627E-02 
715	 8.73994991965854E-02 
716	 8.78384232951925E-02 
717	 8.82857527591027E-02 
718	 8.88686198420162E-02 
719	 8.97238426703096E-02 
720	 9.02853451146177E-02 
721	 0.090395135937832 
722	 9.04256720060216E-02 
723	 9.04197537561516E-02 
724	 9.03915730187831E-02 
725	 9.07596562250692E-02 
726	 9.14162698616679E-02 
727	 9.18327537280414E-02 
728	 9.19931664792608E-02 
729	 0.091957334571287 
730	 9.22419641704026E-02 
731	 9.27594321235996E-02 
732	 9.33050740642118E-02 
733	 9.34141547239205E-02 
734	 9.32370826533365E-02 
735	 9.36418903458396E-02 
736	 9.41545168404717E-02 
737	 9.44329058296574E-02 
738	 9.45337968991408E-02 
739	 9.46021915695534E-02 
740	 9.48949089884565E-02 
741	 9.51778096264952E-02 
742	 0.095355594207993 
743	 9.53461060955265E-02 
744	 9.54033657948249E-02 
745	 9.57269186304368E-02 
746	 9.59769701539228E-02 
747	 9.61902095053071E-02 
748	 0.096651633501747 
749	 9.68932425517173E-02 
750	 9.68044397221103E-02 
751	 9.67673780704325E-02 
752	 9.69413646316276E-02 
753	 9.74370132367843E-02 
754	 9.77220146546063E-02 
755	 9.77413783631806E-02 
756	 9.76928515674238E-02 
757	 9.76198096667087E-02 
758	 9.75901183790774E-02 
759	 9.78664151642014E-02 
760	 9.86407202662859E-02 
761	 9.94716906599279E-02 
762	 9.99097042372085E-02 
763	 9.99523253079951E-02 
764	 9.97916685250903E-02 
765	 9.98030476260585E-02 
766	 0.100051213486272 
767	 0.100133789070263 
768	 0.100145828767148 
769	 0.100215585572144 
770	 0.100582645097645 
771	 0.101084323138512 
772	 0.100863301419637 
773	 0.100845743125228 
774	 0.101518107998109 
775	 0.101314530616107 
776	 0.100779452318576 
777	 0.101284633809646 
778	 0.101797397966877 
779	 0.101977693260328 
780	 0.101775519345363 
781	 0.101605931567976 
782	 0.101802943822059 
783	 0.102182148139615 
784	 0.10255094624293 
785	 0.102537850027945 
786	 0.102916572484308 
787	 0.1036252543192 
788	 0.103028702696371 
789	 0.102427284085148 
790	 0.103042794290542 
791	 0.103534159119707 
792	 0.103728025959178 
793	 0.103808737455272 
794	 0.104027791777402 
795	 0.104406026290702 
796	 0.104520905208613 
797	 0.104357252603072 
798	 0.103967074595258 
799	 0.103974137986072 
800	 0.104241617651144 
801	 0.103961434418832 
802	 0.104064248940842 
803	 0.104769063418872 
804	 0.105180306038369 
805	 0.105320401821252 
806	 0.105303514202905 
807	 0.105287427410296 
808	 0.105372109379857 
809	 0.105733743661944 
810	 0.105910326408188 
811	 0.105773965191768 
812	 0.106029391413546 
813	 0.10616994976698 
814	 0.105501601866007 
815	 0.105847333898585 
816	 0.107138892374123 
817	 0.1076679711399 
818	 0.107639533014438 
819	 0.107303026812671 
820	 0.107597561367694 
821	 0.108056867724839 
822	 0.108059513855186 
823	 0.108578639600139 
824	 0.109413540965658 
825	 0.109426168604703 
826	 0.109633476423881 
827	 0.110216381558156 
828	 0.109392914171692 
829	 0.108463916288986 
830	 0.109165115754773 
831	 0.110008790069506 
832	 0.110533572137908 
833	 0.110465406911161 
834	 0.110395187728697 
835	 0.110592921302842 
836	 0.110985274576042 
837	 0.111062606857741 
838	 0.110300076019656 
839	 0.109706771556668 
840	 0.109499649771433 
841	 0.109419628434724 
842	 0.110315323578478 
843	 0.112024402367002 
844	 0.111563843241295 
845	 0.110452389061314 
846	 0.110647514197069 
847	 0.111009372003871 
848	 0.111190026268866 
849	 0.110746009537194 
850	 0.110777539649762 
851	 0.111610053823703 
852	 0.112225598021646 
853	 0.112328639047193 
854	 0.111780389709524 
855	 0.112054098787676 
856	 0.112857480064179 
857	 0.112746321313521 
858	 0.112275590827879 
859	 0.111733681220385 
860	 0.111590029726846 
861	 0.111755134215914 
862	 0.11210439492023 
863	 0.112522952524586 
864	 0.113063723979858 
865	 0.114006768816811 
866	 0.114350203866593 
867	 0.113939465071199 
868	 0.113932008003641 
869	 0.113790382232906 
870	 0.113188083645312 
871	 0.113728473987039 
872	 0.1148753741124 
873	 0.115174206413099 
874	 0.114903763896674 
875	 0.114270703469823 
876	 0.113698659845119 
877	 0.114045086969318 
878	 0.115628485201961 
879	 0.115855928864253 
880	 0.115581709422226 
881	 0.116819468812219 
882	 0.116817941692831 
883	 0.115656731937748 
884	 0.116294201851086 
885	 0.116907487522949 
886	 0.116573521625675 
887	 0.116446877509874 
888	 0.116677170964167 
889	 0.117284378104667 
890	 0.117921091974323 
891	 0.118291176321067 
892	 0.117780034922503 
893	 0.117431360775186 
894	 0.117712795579043 
895	 0.117810477640019 
896	 0.118386915195507 
897	 0.120120232901339 
898	 0.120380632634085 
899	 0.119676440800678 
900	 0.120942960579913 
901	 0.120575734484685 
902	 0.11841609503863 
903	 0.11913685836008 
904	 0.120005146057869 
905	 0.118973218808503 
906	 0.118540242708872 
907	 0.118967728096013 
908	 0.120083831236961 
909	 0.120712081318498 
910	 0.120665767498196 
911	 0.121101292018661 
912	 0.120368612397349 
913	 0.118198854189569 
914	 0.11910953769831 
915	 0.121182418489476 
916	 0.121532965328255 
917	 0.12260711153276 
918	 0.123305665397934 
919	 0.118814647714234 
920	 0.118491508106693 
921	 0.123664725255689 
922	 0.122656794231266 
923	 0.120358242099434 
924	 0.121413305192906 
925	 0.120968259294125 
926	 0.119906057178116 
927	 0.121993360984381 
928	 0.121417746133912 
929	 0.117379460224194 
930	 0.117713721571539 
931	 0.117162571524446 
932	 0.112217899728104 
933	 0.111696443485959 
934	 0.115013330745209 
935	 0.118728054421457 
936	 0.120673839229335 
937	 0.120264780746492 
938	 0.118091360582481 
939	 0.116155046063332 
940	 0.115517435409511 
941	 0.116981734976388 
942	 0.118810820829499 
943	 0.119811968496355 
944	 0.121232519830174 
945	 0.121933449150177 
946	 0.119958667776383 
947	 0.125118396189934 
948	 0.133202808298423 
949	 0.121795176028242 
950	 0.118134804012822 
951	 0.129559064541277 
952	 0.12679932382304 
953	 0.120538500203905 
954	 0.121890571206891 
955	 0.123203527517019 
956	 0.12222507429535 
957	 0.116687556934153 
958	 0.120088532119578 
959	 0.129025022180308 
960	 0.119920350158736 
961	 0.113978951285327 
962	 0.120202694088851 
963	 0.127079281685288 
964	 0.129338536267813 
965	 0.12372389077735 
966	 0.122344632468955 
967	 0.123773142057188 
968	 0.121001489586662 
969	 0.115769564863528 
970	 0.111446374141361 
971	 0.119124347948336 
972	 0.124134225997191 
973	 0.119683886740259 
974	 0.117297501271225 
975	 0.119982491014697 
976	 0.128814408020325 
977	 0.129501545657001 
978	 0.124495027291372 
979	 0.125585666375155 
980	 0.124156793794255 
981	 0.120304017625604 
982	 0.122995544447932 
983	 0.125500499374657 
984	 0.124750468105002 
985	 0.12699784638564 
986	 0.128942008038421 
987	 0.126964557551314 
988	 0.127806211613175 
989	 0.129594801500312 
990	 0.126114413563852 
991	 0.12378527800944 
992	 0.124054483792693 
993	 0.124730690071046 
994	 0.126381046232649 
995	 0.12822112142746 
996	 0.124579210302938 
997	 0.121278849213237 
998	 0.124125407020842 
999	 0.126936303892228 
1000	 0.128142136404589 
1001	 0.127089943607817 
1002	 0.122934981757675 
1003	 0.118792594894178 
1004	 0.125413362974059 
1005	 0.129871246988759 
1006	 0.126987977588281 
1007	 0.119748086573065 
1008	 0.117406212395734 
1009	 0.125343385836455 
1010	 0.126892882891847 
1011	 0.123566834833445 
1012	 0.120748575941438 
1013	 0.122431843485316 
1014	 0.126893979602083 
1015	 0.127642844495553 
1016	 0.127794077359843 
1017	 0.128068403842689 
1018	 0.128149020893056 
1019	 0.125927833446549 
1020	 0.121635930287506 
1021	 0.123960679944192 
1022	 0.129195853013695 
1023	 0.132668115953017 
1024	 0.134767231980224 
1025	 0.131642154645088 
1026	 0.117407267771948 
1027	 0.120564954729503 
1028	 0.137241146870248 
1029	 0.132738040829836 
1030	 0.126305277007927 
1031	 0.125596663881214 
1032	 0.135068569658441 
1033	 0.13684719124559 
1034	 0.123503397006204 
1035	 0.127437281436871 
1036	 0.133213569034317 
1037	 0.123206511827262 
1038	 0.116530089843068 
1039	 0.116690426564986 
1040	 0.122998743079692 
1041	 0.129823316608111 
1042	 0.133772706118997 
1043	 0.131951607915545 
1044	 0.126110707913667 
1045	 0.123431761004052 
1046	 0.151277482694853 
1047	 0.156359544078055 
1048	 0.116342643945073 
1049	 0.112847414631744 
1050	 0.127386536660471 
1051	 0.134635958764939 
1052	 0.137653410716857 
1053	 0.13245457158131 
1054	 0.115292521335171 
1055	 0.130533366421936 
1056	 0.165645019048615 
1057	 0.171562327078323 
1058	 0.140406650615774 
1059	 8.89076427320743E-02 
1060	 0.113289949542372 
1061	 0.119465508213254 
1062	 0.082947653474962 
1063	 0.11712582444682 
1064	 0.15172943284867 
1065	 0.138626887086842 
1066	 0.154306166162317 
1067	 0.168881191694411 
1068	 0.145894742914578 
1069	 0.127775252338107 
1070	 0.116913267579827 
1071	 0.103202160970559 
1072	 9.84203514797814E-02 
1073	 0.104701379599141 
1074	 0.121415298256989 
1075	 0.135700004448963 
