Wavelength	A00398.asd
325	 0.037183824367798 
326	 4.23476232630755E-02 
327	 4.71496790909248E-02 
328	 4.39275435118639E-02 
329	 4.24211091244783E-02 
330	 4.48525928295745E-02 
331	 4.21718335393148E-02 
332	 3.99886482461441E-02 
333	 4.38061077641033E-02 
334	 4.16500921748403E-02 
335	 0.037434798721625 
336	 4.52430945945863E-02 
337	 4.93895851608217E-02 
338	 4.61276856795041E-02 
339	 4.25901698968248E-02 
340	 4.05215078789206E-02 
341	 4.09414125066745E-02 
342	 4.23228336428669E-02 
343	 4.40848430309531E-02 
344	 4.64174459692382E-02 
345	 4.38150631841508E-02 
346	 3.77359953039986E-02 
347	 0.039295477414888 
348	 4.25208543733729E-02 
349	 4.31462192779938E-02 
350	 0.042652698536485 
351	 4.12261045321045E-02 
352	 3.86958199034093E-02 
353	 3.82871667463998E-02 
354	 4.01378006574644E-02 
355	 4.16996032034334E-02 
356	 4.18336258554133E-02 
357	 4.02466781549119E-02 
358	 3.99295095133365E-02 
359	 0.041127708018964 
360	 4.36519688880107E-02 
361	 4.33646705771487E-02 
362	 4.10725215204565E-02 
363	 4.32977414301601E-02 
364	 4.42901779253537E-02 
365	 4.17179109444573E-02 
366	 4.16981098908796E-02 
367	 4.22945780164261E-02 
368	 4.01087893966684E-02 
369	 3.97592058140835E-02 
370	 4.13363892392117E-02 
371	 4.15211911933108E-02 
372	 4.12250045737087E-02 
373	 4.10627133748604E-02 
374	 4.19032571500196E-02 
375	 4.31111271891064E-02 
376	 4.37056299871854E-02 
377	 4.25467464772885E-02 
378	 4.02566557500996E-02 
379	 3.93522169014979E-02 
380	 4.03926199607146E-02 
381	 4.31244942223922E-02 
382	 4.40867837012009E-02 
383	 4.37154971537595E-02 
384	 4.30936514180486E-02 
385	 4.32681694642738E-02 
386	 4.36883314067567E-02 
387	 0.041510000182584 
388	 4.08373612426116E-02 
389	 4.27292848327597E-02 
390	 4.16618553038138E-02 
391	 0.040388108306072 
392	 0.042527373688649 
393	 4.30683660697777E-02 
394	 4.19396420427138E-02 
395	 4.20434610913662E-02 
396	 4.24796936643008E-02 
397	 4.27272205159458E-02 
398	 4.22165629553706E-02 
399	 0.041148091847892 
400	 3.98005825289383E-02 
401	 0.040387215367756 
402	 4.21566218365178E-02 
403	 4.24426736083338E-02 
404	 0.042273909444263 
405	 4.21091399467786E-02 
406	 4.20669015647694E-02 
407	 0.042314620225428 
408	 4.30056118405843E-02 
409	 4.24030096674735E-02 
410	 4.10872013573957E-02 
411	 4.18145518272705E-02 
412	 4.26301401428135E-02 
413	 4.26067150886007E-02 
414	 4.22161748376699E-02 
415	 0.041825542681672 
416	 4.18346452851569E-02 
417	 4.19120592091223E-02 
418	 4.19625353213051E-02 
419	 4.19472938434521E-02 
420	 4.19429470194353E-02 
421	 4.19956959274635E-02 
422	 4.20502148518287E-02 
423	 4.22900690184049E-02 
424	 4.29970338706514E-02 
425	 4.32351384668437E-02 
426	 4.30806685414569E-02 
427	 4.37677616274295E-02 
428	 4.44225322425223E-02 
429	 4.44573640659981E-02 
430	 4.40378065057985E-02 
431	 4.37178907684908E-02 
432	 4.44064654423266E-02 
433	 4.39552045594409E-02 
434	 4.25673213062936E-02 
435	 4.30326600635879E-02 
436	 4.37107846759524E-02 
437	 4.35847564357111E-02 
438	 0.044128153127399 
439	 4.48715157985719E-02 
440	 0.044604850535815 
441	 4.43377848728267E-02 
442	 4.43384829407471E-02 
443	 4.43227009651336E-02 
444	 4.44119189416289E-02 
445	 4.46877818190741E-02 
446	 4.48539295869253E-02 
447	 4.49951169567944E-02 
448	 4.54425823486774E-02 
449	 4.57852983010743E-02 
450	 4.58569748023535E-02 
451	 4.55924905903739E-02 
452	 4.54434342968005E-02 
453	 4.58244543058724E-02 
454	 4.59785803843622E-02 
455	 4.59218814791234E-02 
456	 4.61569487131828E-02 
457	 4.62774575116637E-02 
458	 4.61928376689134E-02 
459	 4.63976224039508E-02 
460	 4.65851418067969E-02 
461	 4.63595378747984E-02 
462	 4.61891935748394E-02 
463	 4.61458002383091E-02 
464	 4.60249403201224E-02 
465	 4.62289193812925E-02 
466	 4.68571647327605E-02 
467	 4.70899379329776E-02 
468	 4.69912661712906E-02 
469	 4.68078197898975E-02 
470	 4.66362662652266E-02 
471	 4.66054972730187E-02 
472	 4.70010333215668E-02 
473	 4.72891145926134E-02 
474	 4.71629596319864E-02 
475	 4.71368352576361E-02 
476	 4.71896556086606E-02 
477	 4.71737766666745E-02 
478	 4.69232906741346E-02 
479	 4.65513046936185E-02 
480	 4.66577841066088E-02 
481	 4.70715706852646E-02 
482	 4.76019832813331E-02 
483	 4.78446643867633E-02 
484	 4.79154294036077E-02 
485	 4.83744016612502E-02 
486	 4.82023465162288E-02 
487	 4.73819255601509E-02 
488	 4.78580486884393E-02 
489	 4.85328497015535E-02 
490	 4.82069101603029E-02 
491	 4.76885542386256E-02 
492	 4.73909422206757E-02 
493	 4.80212672631854E-02 
494	 4.84355491791787E-02 
495	 4.82326888671441E-02 
496	 4.83743713351014E-02 
497	 4.86909579962204E-02 
498	 4.88487756667261E-02 
499	 4.91651124712146E-02 
500	 4.94900245445986E-02 
501	 4.90425969462939E-02 
502	 4.88026591674272E-02 
503	 4.92841728596878E-02 
504	 4.94851474633499E-02 
505	 4.94908970273424E-02 
506	 0.049664528805334 
507	 4.98281887664712E-02 
508	 4.99842721183411E-02 
509	 5.03495706560562E-02 
510	 5.05753595365865E-02 
511	 5.04236177724435E-02 
512	 5.05399911530423E-02 
513	 5.08085695108099E-02 
514	 5.06431198137854E-02 
515	 5.07934039988256E-02 
516	 0.051352823931372 
517	 5.12816117468572E-02 
518	 5.10359761343901E-02 
519	 5.11792813918591E-02 
520	 5.12944584758384E-02 
521	 5.14674754965078E-02 
522	 5.21899927123669E-02 
523	 5.27502224292078E-02 
524	 5.28867068090016E-02 
525	 5.32939663755557E-02 
526	 5.36980407833453E-02 
527	 0.053614082907545 
528	 5.35222705673417E-02 
529	 5.35605057119773E-02 
530	 0.053687437095576 
531	 0.053946481023752 
532	 5.43338508440803E-02 
533	 5.45551195559842E-02 
534	 5.46418682881829E-02 
535	 5.47359426453459E-02 
536	 5.49584716799643E-02 
537	 0.055289664844217 
538	 5.54162605252236E-02 
539	 5.54646315043396E-02 
540	 5.55673065555523E-02 
541	 5.56022180572132E-02 
542	 5.55991768439551E-02 
543	 0.055644713842461 
544	 5.59241967133605E-02 
545	 5.64251112961842E-02 
546	 5.65604297941684E-02 
547	 5.65272656961243E-02 
548	 5.66554417658151E-02 
549	 5.66815144670105E-02 
550	 5.66780679876525E-02 
551	 5.71041122576899E-02 
552	 5.74521196199458E-02 
553	 5.74156306787913E-02 
554	 5.73191406347784E-02 
555	 5.73261533797091E-02 
556	 5.76497190479501E-02 
557	 5.79562097204582E-02 
558	 5.81351016721836E-02 
559	 5.82568668580786E-02 
560	 5.84014010447035E-02 
561	 5.86264270489807E-02 
562	 5.87130516957386E-02 
563	 5.86697958045121E-02 
564	 5.85976780560422E-02 
565	 5.86696526893102E-02 
566	 5.88924813464132E-02 
567	 5.87945367610564E-02 
568	 5.85574683594093E-02 
569	 5.84672292216476E-02 
570	 5.85700441716159E-02 
571	 5.88674113296516E-02 
572	 5.93533014931716E-02 
573	 5.95491608912699E-02 
574	 0.05925170940653 
575	 5.94199853546318E-02 
576	 5.98449380727624E-02 
577	 5.99015406282181E-02 
578	 0.05986774091521 
579	 5.97799464501997E-02 
580	 5.94256863023478E-02 
581	 5.91939736927517E-02 
582	 5.94241194089893E-02 
583	 5.99061127580356E-02 
584	 0.06040132145773 
585	 6.04583237481477E-02 
586	 6.03910575945639E-02 
587	 6.03062957168684E-02 
588	 6.00428375254635E-02 
589	 5.97985757930977E-02 
590	 5.98428891064569E-02 
591	 5.98224291532044E-02 
592	 5.97068759408196E-02 
593	 5.96467721242884E-02 
594	 5.98196168173865E-02 
595	 6.02797260317944E-02 
596	 6.05320787646606E-02 
597	 6.06792560415932E-02 
598	 6.10690699743758E-02 
599	 6.09690271583541E-02 
600	 6.03994734457545E-02 
601	 6.04592305640475E-02 
602	 6.06958474670026E-02 
603	 6.06808614243465E-02 
604	 6.06880738036584E-02 
605	 6.07714405127017E-02 
606	 6.09642551276859E-02 
607	 6.11770434654205E-02 
608	 6.13147634757929E-02 
609	 6.11177229980483E-02 
610	 6.08242208803614E-02 
611	 6.07592398864555E-02 
612	 6.08984518310926E-02 
613	 6.11084676231558E-02 
614	 6.09289145489101E-02 
615	 6.09257295816255E-02 
616	 6.13370366582673E-02 
617	 6.10785606357974E-02 
618	 6.05909124432213E-02 
619	 6.08911587260048E-02 
620	 6.10747897789428E-02 
621	 6.09576481693705E-02 
622	 6.09830221098169E-02 
623	 6.09731681644187E-02 
624	 6.07711952844229E-02 
625	 6.06152030182817E-02 
626	 6.05569210417197E-02 
627	 6.05817791249634E-02 
628	 6.07063271782795E-02 
629	 6.09244038971008E-02 
630	 6.12236051425083E-02 
631	 6.13654126975675E-02 
632	 6.10759633663686E-02 
633	 6.13726591526983E-02 
634	 6.20849528809528E-02 
635	 6.18421750216329E-02 
636	 0.061419218383542 
637	 6.13285123228846E-02 
638	 6.17353616285571E-02 
639	 6.22372191086405E-02 
640	 6.20902636046891E-02 
641	 6.17601845976813E-02 
642	 6.15171007652874E-02 
643	 6.18278551159922E-02 
644	 6.21958090248136E-02 
645	 6.21639554720132E-02 
646	 6.18493477864124E-02 
647	 6.14775688988207E-02 
648	 6.15426407025248E-02 
649	 6.18121771928431E-02 
650	 6.21066542465633E-02 
651	 6.19773242527912E-02 
652	 6.17974650539839E-02 
653	 6.20505812137947E-02 
654	 6.24273200650251E-02 
655	 6.26408712710775E-02 
656	 6.19396835531504E-02 
657	 6.13010229011663E-02 
658	 0.061263455051838 
659	 6.09058865570997E-02 
660	 6.04702386678196E-02 
661	 0.060544342884803 
662	 6.01919522537294E-02 
663	 5.94352433427709E-02 
664	 5.95634649992809E-02 
665	 5.97977189364021E-02 
666	 5.94723690267897E-02 
667	 5.90862873717861E-02 
668	 5.87730724020714E-02 
669	 0.058686683122552 
670	 5.83381658866291E-02 
671	 5.77396078356693E-02 
672	 5.80524614875177E-02 
673	 5.85375417757176E-02 
674	 5.82703203760721E-02 
675	 5.81015319179773E-02 
676	 0.05819385917237 
677	 5.84515988863259E-02 
678	 5.86361637747856E-02 
679	 5.86755166822617E-02 
680	 5.91083631797659E-02 
681	 5.97044263232038E-02 
682	 6.00032481880842E-02 
683	 6.03657785811549E-02 
684	 6.08568181120172E-02 
685	 6.13862686290423E-02 
686	 6.17975504298488E-02 
687	 6.19825870586734E-02 
688	 6.26346500999608E-02 
689	 6.35781419748509E-02 
690	 6.42454558295198E-02 
691	 6.50909388306819E-02 
692	 6.61558714823431E-02 
693	 6.69311128847161E-02 
694	 6.74502698559426E-02 
695	 6.77834401028639E-02 
696	 6.84920459179772E-02 
697	 6.95037317503198E-02 
698	 7.03636362717551E-02 
699	 7.09988667959673E-02 
700	 7.13878042130012E-02 
701	 0.071865638195935 
702	 7.25093941535213E-02 
703	 0.073361836420922 
704	 7.39304766576492E-02 
705	 7.41998679765435E-02 
706	 7.45827448954631E-02 
707	 7.48935714402244E-02 
708	 7.50293620526525E-02 
709	 7.50894809510886E-02 
710	 7.53844708764832E-02 
711	 7.65056113819243E-02 
712	 7.70185673696385E-02 
713	 7.67910721791209E-02 
714	 7.74777187510094E-02 
715	 7.82728908327503E-02 
716	 7.84107488889606E-02 
717	 7.84481696480168E-02 
718	 7.86054333775652E-02 
719	 7.91984460225515E-02 
720	 0.079519517948813 
721	 7.94425340633945E-02 
722	 7.97577238281455E-02 
723	 8.00143604145268E-02 
724	 7.96509666592647E-02 
725	 8.01783083556512E-02 
726	 8.13566025045593E-02 
727	 8.14637399601939E-02 
728	 8.13079792523565E-02 
729	 8.13183251477154E-02 
730	 8.15383575861823E-02 
731	 8.18657074964253E-02 
732	 8.21445202730357E-02 
733	 8.21954642086564E-02 
734	 8.21528803389806E-02 
735	 0.082584594582659 
736	 8.31827830445598E-02 
737	 8.36576030571057E-02 
738	 8.35258993419533E-02 
739	 0.083196751824157 
740	 8.35457096331178E-02 
741	 8.39759057135182E-02 
742	 8.42637165813945E-02 
743	 8.43395642431852E-02 
744	 8.41819645360977E-02 
745	 8.38458590356608E-02 
746	 8.41791259905187E-02 
747	 8.49243161738194E-02 
748	 8.51222558979459E-02 
749	 8.52431079712041E-02 
750	 8.54049322788205E-02 
751	 0.085366399737816 
752	 8.55266894866319E-02 
753	 8.62652003580056E-02 
754	 8.62852323070626E-02 
755	 8.58034104467616E-02 
756	 8.62363527714289E-02 
757	 0.086679822200259 
758	 8.67241385682554E-02 
759	 8.61424976470673E-02 
760	 8.56469474513904E-02 
761	 8.77949721312095E-02 
762	 0.088711650735552 
763	 8.81299912212401E-02 
764	 8.82181408032693E-02 
765	 8.87599350355073E-02 
766	 8.94354899008131E-02 
767	 8.91880917937088E-02 
768	 8.86660609355699E-02 
769	 8.86601889140076E-02 
770	 8.90466446841577E-02 
771	 8.95825274647858E-02 
772	 8.94271733053445E-02 
773	 8.93737712283436E-02 
774	 8.98694169467493E-02 
775	 8.98072961012737E-02 
776	 8.96259010166273E-02 
777	 9.04193317400302E-02 
778	 9.08301748502085E-02 
779	 9.05539843311073E-02 
780	 9.00855043726933E-02 
781	 9.01539463854128E-02 
782	 9.11961805812566E-02 
783	 9.15231470925942E-02 
784	 9.13065523964369E-02 
785	 9.15570266724166E-02 
786	 9.16699376497605E-02 
787	 9.15630803954097E-02 
788	 9.16585292726926E-02 
789	 9.20514117093005E-02 
790	 9.27534357441735E-02 
791	 9.30372046710597E-02 
792	 9.30215264232201E-02 
793	 9.33935966801867E-02 
794	 9.35571005196601E-02 
795	 9.33615489100759E-02 
796	 9.31257551298611E-02 
797	 9.29970718271784E-02 
798	 9.31003315632686E-02 
799	 9.34263440280932E-02 
800	 9.37760159617256E-02 
801	 9.35878221278544E-02 
802	 9.36964671267671E-02 
803	 9.42867391233144E-02 
804	 9.43741303384947E-02 
805	 9.44383638538048E-02 
806	 9.50265831574725E-02 
807	 9.49251205549233E-02 
808	 9.44458829179712E-02 
809	 9.52348269273863E-02 
810	 9.58529355164123E-02 
811	 9.57579883972559E-02 
812	 9.57650542025631E-02 
813	 9.60159814009261E-02 
814	 9.65949944405165E-02 
815	 9.70454704082201E-02 
816	 9.72798217307818E-02 
817	 9.75466821810441E-02 
818	 9.74984589175761E-02 
819	 9.72112421348841E-02 
820	 9.79221995928531E-02 
821	 0.098630608002135 
822	 9.80819967372046E-02 
823	 9.78675500049574E-02 
824	 9.82381355863254E-02 
825	 9.88469335645112E-02 
826	 9.91287565539199E-02 
827	 9.89257476389605E-02 
828	 9.91195278975745E-02 
829	 9.89912644280032E-02 
830	 9.76711514587928E-02 
831	 9.81164153903499E-02 
832	 0.100002492701293 
833	 0.100630603523716 
834	 0.10036042297923 
835	 9.95716696884794E-02 
836	 9.98045963633193E-02 
837	 0.100334040084577 
838	 0.100204650546853 
839	 0.100116298070025 
840	 0.100211943594371 
841	 0.10041925332298 
842	 0.101038070388 
843	 0.10194311769668 
844	 0.101741455427456 
845	 0.101188883830252 
846	 0.101253235919072 
847	 0.101381457227318 
848	 0.101505027437816 
849	 0.101702580681309 
850	 0.102091944897741 
851	 0.102518142728731 
852	 0.101856929849309 
853	 0.101101935688424 
854	 0.101386981595574 
855	 0.101746249849641 
856	 0.10200065163466 
857	 0.102239071651137 
858	 0.102310187134253 
859	 0.102248162343182 
860	 0.10248183093018 
861	 0.102748082198058 
862	 0.102788472470237 
863	 0.102852091835913 
864	 0.103144221446151 
865	 0.104110108083715 
866	 0.104431311465396 
867	 0.103849834578581 
868	 0.103417470196005 
869	 0.103895548758478 
870	 0.105565685923972 
871	 0.10520991260664 
872	 0.103981983920502 
873	 0.105105249222607 
874	 0.106223669417805 
875	 0.106386918287798 
876	 0.104648541985584 
877	 0.103757268025217 
878	 0.105371724949274 
879	 0.105914197833438 
880	 0.10582068981697 
881	 0.106659848314698 
882	 0.106145330426645 
883	 0.104596319808231 
884	 0.105136620956421 
885	 0.106543515425299 
886	 0.107758355981396 
887	 0.106555446507174 
888	 0.105408019121265 
889	 0.107791113771199 
890	 0.109549226912914 
891	 0.109835316901104 
892	 0.109385691194505 
893	 0.108339090175601 
894	 0.107116160055404 
895	 0.107053320063709 
896	 0.108225857513083 
897	 0.110373422998929 
898	 0.111222550938 
899	 0.110944007117629 
900	 0.111667664222654 
901	 0.110301599850596 
902	 0.107044814670742 
903	 0.106886443669201 
904	 0.108077009258917 
905	 0.109162659490732 
906	 0.11140752225817 
907	 0.113071261626888 
908	 0.110856925584611 
909	 0.109344306948836 
910	 0.1100005798586 
911	 0.112607630734219 
912	 0.114460326080198 
913	 0.114095640156648 
914	 0.113592814507415 
915	 0.113175443293066 
916	 0.112890827475973 
917	 0.114939014707691 
918	 0.117616058335687 
919	 0.115286109230109 
920	 0.113416035824607 
921	 0.11362680421127 
922	 0.113082988020601 
923	 0.113140914609498 
924	 0.114808069283372 
925	 0.113769182092427 
926	 0.111437165775401 
927	 0.112660352223163 
928	 0.1134732560951 
929	 0.112402111806115 
930	 0.109269218080603 
931	 0.108026555272746 
932	 0.111668725420257 
933	 0.114049255911715 
934	 0.114062194920044 
935	 0.112122140128288 
936	 0.116538038223281 
937	 0.123746828587129 
938	 0.119788547167043 
939	 0.116272113484548 
940	 0.116733724145436 
941	 0.119621467105092 
942	 0.120903910272674 
943	 0.117979337625672 
944	 0.114165375927125 
945	 0.112474073868998 
946	 0.116377952385655 
947	 0.122938569563968 
948	 0.127876252848728 
949	 0.120937524443611 
950	 0.117564923717709 
951	 0.122920377943649 
952	 0.12507288657629 
953	 0.124053499113248 
954	 0.120959981594797 
955	 0.118315654428596 
956	 0.116303038889691 
957	 0.114215198596646 
958	 0.114132427701845 
959	 0.114737325366897 
960	 0.108749942973075 
961	 0.110422677684302 
962	 0.122680917758621 
963	 0.122307355123223 
964	 0.118899814266367 
965	 0.12261923398038 
966	 0.121643088780454 
967	 0.116623282430258 
968	 0.112247788309574 
969	 0.109857204821347 
970	 0.110126093911485 
971	 0.11353867680009 
972	 0.114549170662547 
973	 0.111441949518222 
974	 0.113627472261924 
975	 0.119399446036727 
976	 0.125209031779008 
977	 0.123630916987691 
978	 0.116819252675123 
979	 0.112353695230649 
980	 0.114039850585076 
981	 0.120327246027248 
982	 0.121108301303501 
983	 0.119165549447089 
984	 0.116836571445076 
985	 0.117791072631657 
986	 0.121238377201156 
987	 0.125342368947232 
988	 0.122649958029641 
989	 0.116824802096291 
990	 0.118041965654909 
991	 0.117158107752922 
992	 0.113959432755836 
993	 0.116856963741997 
994	 0.121245825958442 
995	 0.123964596791248 
996	 0.122102871528469 
997	 0.11907161599768 
998	 0.118464371443357 
999	 0.117587258191101 
1000	 0.117718721180819 
1001	 0.121674821623678 
1002	 0.122350185701302 
1003	 0.119320421750079 
1004	 0.117662855676478 
1005	 0.118515276044204 
1006	 0.120254208512798 
1007	 0.110673247503675 
1008	 0.106596957620516 
1009	 0.119131697587024 
1010	 0.123855422519054 
1011	 0.12121952204542 
1012	 0.116593211271304 
1013	 0.115265595658559 
1014	 0.118195888858606 
1015	 0.123910038316623 
1016	 0.129580851806401 
1017	 0.131428696183202 
1018	 0.11994550721098 
1019	 0.111431994677488 
1020	 0.114466634353761 
1021	 0.120293979221136 
1022	 0.127226076956048 
1023	 0.13363825095859 
1024	 0.133975217650143 
1025	 0.127304321683469 
1026	 0.113976814367363 
1027	 0.111238206959519 
1028	 0.117974126444169 
1029	 0.115033286637146 
1030	 0.117144134618838 
1031	 0.125237598288658 
1032	 0.121008241787587 
1033	 0.116659303888487 
1034	 0.120570795098288 
1035	 0.129722388348701 
1036	 0.139063254129179 
1037	 0.143183233186479 
1038	 0.132097873489985 
1039	 0.118562833089578 
1040	 0.126791111439029 
1041	 0.134411330816876 
1042	 0.13483253475772 
1043	 0.126629415362946 
1044	 0.117533945345983 
1045	 0.117008235107213 
1046	 0.14934685276581 
1047	 0.155039628687535 
1048	 0.109289639075925 
1049	 0.104778944965136 
1050	 0.12065523443449 
1051	 0.128496037110449 
1052	 0.133076178175994 
1053	 0.13537467742584 
1054	 0.13723042367538 
1055	 0.138755962191589 
1056	 0.140826380408041 
1057	 0.145919268649916 
1058	 0.140713382326371 
1059	 0.124851907752731 
1060	 0.118557335171446 
1061	 0.113103434263956 
1062	 0.107785387081659 
1063	 0.125020295253821 
1064	 0.137624632156648 
1065	 0.133681739862448 
1066	 0.184962066225907 
1067	 0.215982749849088 
1068	 0.150548650810468 
1069	 0.142441410934291 
1070	 0.177045773001854 
1071	 0.174860305511414 
1072	 0.147303586762294 
1073	 0.117306020520249 
1074	 0.134458301932299 
1075	 0.162636149880907 
