Wavelength	A00315.asd
325	 5.05091026385703E-02 
326	 6.25915540382683E-02 
327	 0.078974233672355 
328	 6.82795180994216E-02 
329	 6.44732198327534E-02 
330	 7.53004859978666E-02 
331	 7.09470689696989E-02 
332	 6.55349297036815E-02 
333	 7.37756845344384E-02 
334	 7.60783417442945E-02 
335	 7.31271414698889E-02 
336	 7.40875383780764E-02 
337	 0.074870431295225 
338	 7.45033868642439E-02 
339	 7.45109678125257E-02 
340	 7.19834549511931E-02 
341	 6.57734443130302E-02 
342	 7.10524432778383E-02 
343	 8.10231768536391E-02 
344	 8.00850486316597E-02 
345	 7.34319292078868E-02 
346	 6.58506461040306E-02 
347	 6.94301720567039E-02 
348	 7.47624545319551E-02 
349	 7.54109725088018E-02 
350	 0.074964381589406 
351	 0.074136899425125 
352	 7.33188376782419E-02 
353	 7.23066272642907E-02 
354	 7.16195776215763E-02 
355	 7.32879236402593E-02 
356	 7.39452496712543E-02 
357	 7.20475123464137E-02 
358	 0.07244078312781 
359	 7.40507958786986E-02 
360	 7.44664228446325E-02 
361	 7.31651783277877E-02 
362	 7.13662830060934E-02 
363	 7.36851005179436E-02 
364	 7.49439025713025E-02 
365	 7.29029366535739E-02 
366	 7.21775806146358E-02 
367	 7.23517761670328E-02 
368	 7.22249241975216E-02 
369	 7.15566673242475E-02 
370	 7.05781158220913E-02 
371	 0.070133928801416 
372	 7.07938900176287E-02 
373	 7.25049920400822E-02 
374	 7.25449531454917E-02 
375	 7.21007201217116E-02 
376	 7.31690712351031E-02 
377	 7.33958025548306E-02 
378	 7.24747734161732E-02 
379	 7.11441824321138E-02 
380	 0.07050952010212 
381	 7.10169790195345E-02 
382	 7.12645180101396E-02 
383	 7.13298522367786E-02 
384	 7.15169116748257E-02 
385	 7.28783397899334E-02 
386	 7.41362358860122E-02 
387	 7.05179359986667E-02 
388	 6.94164145901734E-02 
389	 7.28787295886442E-02 
390	 0.071767525521372 
391	 6.97533369296783E-02 
392	 0.071871052278895 
393	 7.12634584477094E-02 
394	 6.86066184878244E-02 
395	 6.99965237801249E-02 
396	 7.10847685558769E-02 
397	 7.04542034658456E-02 
398	 7.11289169698483E-02 
399	 7.16090931593318E-02 
400	 7.02875374816359E-02 
401	 6.97727506908204E-02 
402	 7.02523449097018E-02 
403	 7.10673460121487E-02 
404	 7.15568872606452E-02 
405	 7.14867309341496E-02 
406	 7.14455743024142E-02 
407	 7.15526849229125E-02 
408	 7.18694211405494E-02 
409	 7.18334848383784E-02 
410	 7.14339678490055E-02 
411	 7.08825667914371E-02 
412	 7.10032239473726E-02 
413	 0.071925396604193 
414	 7.18184111620878E-02 
415	 7.12865825880016E-02 
416	 7.13332492294258E-02 
417	 7.13187191056497E-02 
418	 7.12642266999321E-02 
419	 7.17054685633048E-02 
420	 7.19278683205334E-02 
421	 7.16592702860036E-02 
422	 7.19709450521909E-02 
423	 7.23905311381646E-02 
424	 0.072065818505847 
425	 7.20341472784559E-02 
426	 7.23759658026165E-02 
427	 7.23367253118907E-02 
428	 7.24148464082331E-02 
429	 7.28950939872896E-02 
430	 7.34347069870707E-02 
431	 7.36076582892438E-02 
432	 7.28195637243445E-02 
433	 7.21488867038169E-02 
434	 7.19011867941932E-02 
435	 7.19056251395656E-02 
436	 7.18846039926018E-02 
437	 7.17194941331788E-02 
438	 7.21671831265249E-02 
439	 7.27992046009876E-02 
440	 7.26564015792442E-02 
441	 7.24740006930938E-02 
442	 7.24421387194366E-02 
443	 7.23640529795993E-02 
444	 7.23077807694903E-02 
445	 7.23480278495553E-02 
446	 7.27157180706381E-02 
447	 7.30982432168791E-02 
448	 7.27130189462282E-02 
449	 7.24240121976586E-02 
450	 7.25460063685464E-02 
451	 7.30384659716617E-02 
452	 7.34172679751697E-02 
453	 7.32349431950148E-02 
454	 7.31281199249271E-02 
455	 0.07321176042893 
456	 7.34233676657206E-02 
457	 7.36064125095438E-02 
458	 7.37067457036478E-02 
459	 7.39205264613144E-02 
460	 7.40525742381504E-02 
461	 7.38666999482273E-02 
462	 7.37941636195248E-02 
463	 7.37747941479103E-02 
464	 7.32132621908308E-02 
465	 7.30361119853757E-02 
466	 7.35955956394456E-02 
467	 7.36549535151175E-02 
468	 7.34742191590734E-02 
469	 7.36331191224215E-02 
470	 7.41104590290226E-02 
471	 7.46728443823455E-02 
472	 7.45641421822928E-02 
473	 7.42523831003382E-02 
474	 7.40669681856707E-02 
475	 7.40408195505926E-02 
476	 7.40874218615322E-02 
477	 7.40533259383235E-02 
478	 0.073733169867705 
479	 7.33477623082042E-02 
480	 7.40591026121402E-02 
481	 7.47672901613324E-02 
482	 7.45852519983985E-02 
483	 7.42263214372809E-02 
484	 7.39696957370832E-02 
485	 7.42158824822804E-02 
486	 0.074164933775174 
487	 7.37675386392503E-02 
488	 7.44582252528334E-02 
489	 7.51363291471479E-02 
490	 7.46605711378021E-02 
491	 7.40507056396027E-02 
492	 7.38308149396157E-02 
493	 7.48928899644594E-02 
494	 7.55983069556355E-02 
495	 7.53330049889071E-02 
496	 7.52715562784321E-02 
497	 7.54713176446416E-02 
498	 0.07585606305863 
499	 7.60676931201154E-02 
500	 7.60987496172339E-02 
501	 7.62980762940183E-02 
502	 7.64649894918115E-02 
503	 7.65085291776643E-02 
504	 7.66544606922159E-02 
505	 7.70051757926386E-02 
506	 7.76947072277485E-02 
507	 7.81412690985321E-02 
508	 7.82954057030452E-02 
509	 7.86915175991774E-02 
510	 7.92450324130801E-02 
511	 7.98505742501279E-02 
512	 8.01896426923794E-02 
513	 8.04850495064111E-02 
514	 8.14263773433778E-02 
515	 0.082169069660459 
516	 8.25059599424553E-02 
517	 8.30952059317878E-02 
518	 8.39360232964555E-02 
519	 8.49399359995805E-02 
520	 8.55536712209685E-02 
521	 8.59675922049739E-02 
522	 8.70337817892742E-02 
523	 8.81110100321067E-02 
524	 8.89129771597324E-02 
525	 8.96077855272329E-02 
526	 9.02386235080202E-02 
527	 9.08370224458248E-02 
528	 9.15070817882284E-02 
529	 9.21848689947428E-02 
530	 9.25398956669902E-02 
531	 9.30101795244793E-02 
532	 9.38525630930985E-02 
533	 9.45930861595033E-02 
534	 0.095048171996542 
535	 9.49510338325592E-02 
536	 9.53503344292729E-02 
537	 9.63826612143572E-02 
538	 9.69142789139848E-02 
539	 9.72414646214745E-02 
540	 9.76931656208803E-02 
541	 9.80486741717534E-02 
542	 9.83008724705197E-02 
543	 9.85021751917872E-02 
544	 9.88213541282755E-02 
545	 9.92871565188186E-02 
546	 9.95619546297627E-02 
547	 9.97463587388971E-02 
548	 0.100010806702192 
549	 0.100359783243446 
550	 0.10082178579095 
551	 0.101513711212796 
552	 0.102047723191989 
553	 0.102171092033048 
554	 0.101991278680827 
555	 0.101877107177261 
556	 0.102497222830627 
557	 0.102755186697065 
558	 0.102430648171656 
559	 0.102316245959306 
560	 0.102296490376627 
561	 0.102237192852474 
562	 0.102201562153588 
563	 0.102146579633589 
564	 0.101940037584422 
565	 0.101757108564056 
566	 0.101608609029554 
567	 0.101073785917086 
568	 0.100519798053498 
569	 0.100448684676188 
570	 0.100361305467358 
571	 0.100150704469408 
572	 9.99512155319962E-02 
573	 9.95338576309505E-02 
574	 9.88673099844999E-02 
575	 0.098961361048592 
576	 9.92215251982538E-02 
577	 9.82944160769853E-02 
578	 9.76483427997774E-02 
579	 9.75622693468211E-02 
580	 9.70421059866244E-02 
581	 9.65979902610709E-02 
582	 9.66674593889232E-02 
583	 9.65582707644222E-02 
584	 9.62861655964815E-02 
585	 9.62558083180706E-02 
586	 9.61373497227289E-02 
587	 9.58175011088251E-02 
588	 9.54677506990495E-02 
589	 9.51507481551984E-02 
590	 9.49348471256696E-02 
591	 0.094679151760162 
592	 9.44044679396337E-02 
593	 0.094259953001803 
594	 9.42434600575715E-02 
595	 9.43185903557414E-02 
596	 9.41715269396998E-02 
597	 9.40439213670095E-02 
598	 9.44787567541887E-02 
599	 9.43719987473032E-02 
600	 9.36452554839465E-02 
601	 9.35701441638136E-02 
602	 9.36459982987331E-02 
603	 9.33978814316433E-02 
604	 9.31016724807239E-02 
605	 9.28356247169042E-02 
606	 9.26430514011301E-02 
607	 9.26635226391778E-02 
608	 9.28535040025268E-02 
609	 9.26509615200257E-02 
610	 9.21077876615638E-02 
611	 9.13695217830189E-02 
612	 0.091311856668337 
613	 9.17201390205083E-02 
614	 9.10293946874328E-02 
615	 9.05946576257826E-02 
616	 9.10697303190061E-02 
617	 9.06035837992339E-02 
618	 8.96685301129631E-02 
619	 8.94777185584471E-02 
620	 8.96474580348072E-02 
621	 8.98879103161258E-02 
622	 8.94460767161564E-02 
623	 8.87391599414422E-02 
624	 8.82192920721896E-02 
625	 8.83753823455789E-02 
626	 8.88704288117384E-02 
627	 8.85476962037236E-02 
628	 8.84320652916512E-02 
629	 8.88277562608372E-02 
630	 0.089049530758089 
631	 8.89752528254422E-02 
632	 8.85451327293585E-02 
633	 8.86759104562938E-02 
634	 8.91208861834099E-02 
635	 0.088307925533083 
636	 8.74212336214092E-02 
637	 0.087149465462123 
638	 8.69039186693902E-02 
639	 8.66154474391861E-02 
640	 0.086300145334906 
641	 8.59442710658634E-02 
642	 8.55182504068338E-02 
643	 8.49181645361269E-02 
644	 0.084252172926691 
645	 8.36338014218412E-02 
646	 8.32866750981383E-02 
647	 8.30733920807382E-02 
648	 8.25284214642398E-02 
649	 0.081930334669163 
650	 8.14628901208605E-02 
651	 0.081447392649644 
652	 8.15500026530512E-02 
653	 8.13474916246076E-02 
654	 8.12601520012532E-02 
655	 0.081225800815742 
656	 8.06681221394756E-02 
657	 8.03170633537489E-02 
658	 8.04654154161943E-02 
659	 7.98116771605531E-02 
660	 7.89172135023595E-02 
661	 7.89204732010617E-02 
662	 7.87862865748026E-02 
663	 7.82873180319048E-02 
664	 7.77770053040789E-02 
665	 7.73534723539894E-02 
666	 7.70787339056715E-02 
667	 0.076720506381389 
668	 7.64050096350113E-02 
669	 7.66151223451212E-02 
670	 7.64412592256707E-02 
671	 0.075789492141236 
672	 7.62241076939943E-02 
673	 7.67912462967492E-02 
674	 7.63001136308185E-02 
675	 7.60995111212644E-02 
676	 7.63192535226987E-02 
677	 7.63563985164859E-02 
678	 7.65271013861203E-02 
679	 7.69338253034143E-02 
680	 0.077084967265848 
681	 7.71296952734911E-02 
682	 0.077369527029646 
683	 0.07814935385661 
684	 7.93520333652178E-02 
685	 8.00994398322237E-02 
686	 8.09808996665351E-02 
687	 8.24709932184897E-02 
688	 0.083771805166437 
689	 8.49103731365066E-02 
690	 8.64575089806204E-02 
691	 8.86104068752688E-02 
692	 9.13557984335368E-02 
693	 9.40038175189316E-02 
694	 9.66936759428907E-02 
695	 9.95150554244601E-02 
696	 0.102873752644457 
697	 0.106513275428577 
698	 0.109601566171168 
699	 0.112946806639838 
700	 0.116818130078791 
701	 0.120576886891847 
702	 0.124323933048848 
703	 0.128308087759533 
704	 0.132103934383923 
705	 0.135628424095123 
706	 0.138867472952797 
707	 0.141926743933732 
708	 0.144931715609128 
709	 0.148297798331516 
710	 0.151762666827531 
711	 0.154756333528054 
712	 0.157803299466572 
713	 0.160964553039947 
714	 0.163916434442236 
715	 0.166491764047732 
716	 0.16871224091318 
717	 0.171306822105386 
718	 0.174372955731253 
719	 0.177220631680413 
720	 0.179432285367482 
721	 0.180945268144246 
722	 0.182572936320666 
723	 0.184214121037001 
724	 0.185545461081973 
725	 0.187307104659487 
726	 0.1893773425492 
727	 0.191351696948821 
728	 0.192667845569901 
729	 0.193179248337846 
730	 0.194096760895216 
731	 0.195277940269394 
732	 0.196318789037872 
733	 0.197196961108297 
734	 0.198008249502524 
735	 0.199052153601546 
736	 0.200131496341216 
737	 0.201038129021594 
738	 0.201460085950232 
739	 0.201772644608828 
740	 0.202754362850932 
741	 0.203522370600616 
742	 0.203923599133652 
743	 0.204610756344308 
744	 0.205129632399766 
745	 0.205125138987328 
746	 0.20521266676306 
747	 0.205499215854933 
748	 0.205956704824714 
749	 0.206447117146954 
750	 0.206858081936833 
751	 0.206988090117771 
752	 0.207031216861676 
753	 0.207220940438309 
754	 0.207778613908396 
755	 0.208481782700988 
756	 0.208611895833595 
757	 0.208486135320095 
758	 0.208370019693361 
759	 0.209337502009614 
760	 0.211546894975075 
761	 0.2125871293675 
762	 0.21243802669766 
763	 0.212000848337766 
764	 0.212768301712146 
765	 0.213002238330431 
766	 0.212368278028932 
767	 0.212450691682 
768	 0.21266340886753 
769	 0.212176001353477 
770	 0.212058932185073 
771	 0.212396231193418 
772	 0.212446812412703 
773	 0.212671491293182 
774	 0.213312742884151 
775	 0.213667126047945 
776	 0.213846974793403 
777	 0.214279979756924 
778	 0.214291910078177 
779	 0.213864189322359 
780	 0.213711244711005 
781	 0.213971138556813 
782	 0.214659922295038 
783	 0.21490846001785 
784	 0.214880247049665 
785	 0.215288658409135 
786	 0.215426117425514 
787	 0.215214844143989 
788	 0.21537678604348 
789	 0.215799054421267 
790	 0.216300527744811 
791	 0.216434491079456 
792	 0.216267605474263 
793	 0.216196550233921 
794	 0.216068777224917 
795	 0.215920319152831 
796	 0.216152547396157 
797	 0.216229388358183 
798	 0.215659446142781 
799	 0.215655761615722 
800	 0.216167394381782 
801	 0.216380919608369 
802	 0.216637431329824 
803	 0.216979070527063 
804	 0.217029075459606 
805	 0.217092988743226 
806	 0.217489977241177 
807	 0.217202707247818 
808	 0.216661668066047 
809	 0.217798121736296 
810	 0.218407642078969 
811	 0.217744693586261 
812	 0.217704436365567 
813	 0.21826322293105 
814	 0.219151748460498 
815	 0.219598508763347 
816	 0.219687294559933 
817	 0.220588587674325 
818	 0.220809918325523 
819	 0.220082554765154 
820	 0.220674572883755 
821	 0.221546055993494 
822	 0.221306112186365 
823	 0.221741859906707 
824	 0.222658964139722 
825	 0.222365921882297 
826	 0.222358420982747 
827	 0.223135297115478 
828	 0.22363933941403 
829	 0.223629011239925 
830	 0.222997360641911 
831	 0.223701663086427 
832	 0.225103599718017 
833	 0.224019555968933 
834	 0.223314950682178 
835	 0.22405442188265 
836	 0.224705332698984 
837	 0.224979190361749 
838	 0.224720001865427 
839	 0.224373017253586 
840	 0.224292122869972 
841	 0.225153844907204 
842	 0.225908791845595 
843	 0.226028090383072 
844	 0.225494134060131 
845	 0.224916399566178 
846	 0.224969119686662 
847	 0.22532031910131 
848	 0.225691195377745 
849	 0.225406734026207 
850	 0.225631594396517 
851	 0.226722569662646 
852	 0.227862367636684 
853	 0.227972194625513 
854	 0.226181156874236 
855	 0.225923093983749 
856	 0.227000791141117 
857	 0.227109927986897 
858	 0.227102151089601 
859	 0.227046185166094 
860	 0.226003081239618 
861	 0.225458643314843 
862	 0.226671442236266 
863	 0.226222663816959 
864	 0.225135118580559 
865	 0.227443097474635 
866	 0.228932601856942 
867	 0.228481176115475 
868	 0.228107105709083 
869	 0.228621447925823 
870	 0.230294779544763 
871	 0.22942446361665 
872	 0.227741554351441 
873	 0.229703404957707 
874	 0.231520033108143 
875	 0.231893726420808 
876	 0.230509639762037 
877	 0.229729593443392 
878	 0.231003716551205 
879	 0.23134334818634 
880	 0.231332488297742 
881	 0.232618351860089 
882	 0.232535829586064 
883	 0.231249106266388 
884	 0.231818849521384 
885	 0.233113143750021 
886	 0.234257506928872 
887	 0.233928879932218 
888	 0.233443142103924 
889	 0.234682954949319 
890	 0.234791637461305 
891	 0.233860491227875 
892	 0.234465591087738 
893	 0.234365873805633 
894	 0.233058712760365 
895	 0.234388555566313 
896	 0.235873580103805 
897	 0.234426534205891 
898	 0.234620083908705 
899	 0.236533298221899 
900	 0.238084644011062 
901	 0.237573498417854 
902	 0.235333690694148 
903	 0.235605038064426 
904	 0.236850181647588 
905	 0.237669757683022 
906	 0.237692116770592 
907	 0.237534201591869 
908	 0.238471863962616 
909	 0.238535464444733 
910	 0.237740421766528 
911	 0.23816468833483 
912	 0.240064710296026 
913	 0.242922327328431 
914	 0.242808288079281 
915	 0.241042410924788 
916	 0.239828644987951 
917	 0.239470615025549 
918	 0.239384154365398 
919	 0.237282143411179 
920	 0.237354380951676 
921	 0.239978846248474 
922	 0.239047681398298 
923	 0.237652838544003 
924	 0.23859563209726 
925	 0.23796419563301 
926	 0.235866155902921 
927	 0.23395742131021 
928	 0.233030858243401 
929	 0.233452878983331 
930	 0.23487647369702 
931	 0.234721487807616 
932	 0.231064699988182 
933	 0.227595673646588 
934	 0.227815870152262 
935	 0.234992933052659 
936	 0.239770103625967 
937	 0.239526890899757 
938	 0.234162402841462 
939	 0.232540238700237 
940	 0.23589235275024 
941	 0.235731798637823 
942	 0.232225718402129 
943	 0.226491075839602 
944	 0.226094913505121 
945	 0.228155835946134 
946	 0.226400899058152 
947	 0.227788421234548 
948	 0.232111441054288 
949	 0.233643371938068 
950	 0.23292022516577 
951	 0.230404127042156 
952	 0.22756803504487 
953	 0.225310481691183 
954	 0.224633392532042 
955	 0.230279695154231 
956	 0.235453878571197 
957	 0.227185372783261 
958	 0.218603531011037 
959	 0.214333017521243 
960	 0.21554030663042 
961	 0.223536733843401 
962	 0.234485372535766 
963	 0.227284172338648 
964	 0.218424689004647 
965	 0.223916961117572 
966	 0.224693076920547 
967	 0.220739891368323 
968	 0.218327290603633 
969	 0.215293763169991 
970	 0.212965049469024 
971	 0.218008230426705 
972	 0.220602306603374 
973	 0.21728852351986 
974	 0.223350113008033 
975	 0.229804991207149 
976	 0.225806212483159 
977	 0.224558115242561 
978	 0.225582757968986 
979	 0.222225656023149 
980	 0.221335222487541 
981	 0.223174447179736 
982	 0.220740148908437 
983	 0.220649636941128 
984	 0.225413735322217 
985	 0.226720648139504 
986	 0.226021231639675 
987	 0.225669083360077 
988	 0.224440051190078 
989	 0.223028931706942 
990	 0.222990451771781 
991	 0.224067246191299 
992	 0.225266560947279 
993	 0.223145493171827 
994	 0.222832358351586 
995	 0.225793609627055 
996	 0.224167217026408 
997	 0.222623421592796 
998	 0.225940148008736 
999	 0.228250243641601 
1000	 0.229055464415225 
1001	 0.229394878579169 
1002	 0.225416036135828 
1003	 0.220257103288561 
1004	 0.227060420337906 
1005	 0.234228471929699 
1006	 0.235863332399636 
1007	 0.228486745400172 
1008	 0.22518160368655 
1009	 0.23405366198328 
1010	 0.231948439694708 
1011	 0.226344588355233 
1012	 0.231212323373205 
1013	 0.230831875031528 
1014	 0.226732173339262 
1015	 0.230753853154322 
1016	 0.233029883401071 
1017	 0.233223906536642 
1018	 0.244155234042977 
1019	 0.24735431243578 
1020	 0.235345241180604 
1021	 0.229318531644806 
1022	 0.230266719289088 
1023	 0.236564750222114 
1024	 0.246891923791559 
1025	 0.249547688045158 
1026	 0.226903330825464 
1027	 0.225843658359486 
1028	 0.246415050712483 
1029	 0.25227095278343 
1030	 0.241286903116894 
1031	 0.220411748271138 
1032	 0.227032723212446 
1033	 0.240048724135724 
1034	 0.245105823348414 
1035	 0.251537080002316 
1036	 0.253705906470695 
1037	 0.246411088605415 
1038	 0.244395835296123 
1039	 0.245941366487412 
1040	 0.243030416417435 
1041	 0.234943640534316 
1042	 0.228112717783003 
1043	 0.240155227559494 
1044	 0.253538570936577 
1045	 0.25777420915228 
1046	 0.246883747507601 
1047	 0.226186409399221 
1048	 0.20403867003678 
1049	 0.212694019521017 
1050	 0.231111272976591 
1051	 0.237229115005349 
1052	 0.236142184325169 
1053	 0.231514062223122 
1054	 0.229021198142551 
1055	 0.237987822769953 
1056	 0.250366076695583 
1057	 0.243839684038313 
1058	 0.230503418167761 
1059	 0.22046404942359 
1060	 0.245985461545281 
1061	 0.237158796959429 
1062	 0.183018950665005 
1063	 0.210475822864046 
1064	 0.244970220726705 
1065	 0.232345202377818 
1066	 0.243147744004163 
1067	 0.24558109864271 
1068	 0.204978294706083 
1069	 0.214658805968233 
1070	 0.246668416913692 
1071	 0.222110529788722 
1072	 0.181590371165104 
1073	 0.154134788070712 
1074	 0.1841694342062 
1075	 0.222776166043259 
