Wavelength	A00313.asd
325	 6.61514053278428E-02 
326	 6.73688635272347E-02 
327	 7.04216997148763E-02 
328	 7.23119855222143E-02 
329	 7.50239902930462E-02 
330	 7.76598353132994E-02 
331	 7.15047687873829E-02 
332	 6.78145790936797E-02 
333	 7.70145825745967E-02 
334	 7.82208775706101E-02 
335	 7.35693713756623E-02 
336	 7.61135218968177E-02 
337	 7.86899653303984E-02 
338	 7.90407832751937E-02 
339	 7.75903538883831E-02 
340	 7.48076475500732E-02 
341	 7.15140851986718E-02 
342	 7.22392435012637E-02 
343	 7.55505664083321E-02 
344	 7.80492436715257E-02 
345	 7.69971003184406E-02 
346	 7.36924916346613E-02 
347	 7.62013473685884E-02 
348	 7.96307884301627E-02 
349	 8.04317722333103E-02 
350	 7.89962785456119E-02 
351	 7.63010221000582E-02 
352	 7.35519941374417E-02 
353	 7.20634954736246E-02 
354	 7.24146280697924E-02 
355	 7.55274571592511E-02 
356	 7.60908916330456E-02 
357	 7.20581208611699E-02 
358	 7.40878774533114E-02 
359	 7.81927211392971E-02 
360	 0.076639029942401 
361	 7.46245000178618E-02 
362	 7.38241222555373E-02 
363	 7.55781028433279E-02 
364	 7.59585431518794E-02 
365	 7.33561456118065E-02 
366	 7.18036134360611E-02 
367	 7.13539438290071E-02 
368	 7.14471720174046E-02 
369	 7.28505156664801E-02 
370	 7.44970345900874E-02 
371	 7.23915368643028E-02 
372	 7.11271102366622E-02 
373	 7.28227252034752E-02 
374	 7.31374082522581E-02 
375	 7.29230713368504E-02 
376	 7.39458256118074E-02 
377	 7.47950439122134E-02 
378	 7.45761440822482E-02 
379	 7.13075553567139E-02 
380	 6.95203359615289E-02 
381	 7.11204007544155E-02 
382	 7.18269875776955E-02 
383	 7.19177690077032E-02 
384	 7.23368710218022E-02 
385	 7.43582775812698E-02 
386	 7.65312070294998E-02 
387	 0.073743804669676 
388	 7.17773065709421E-02 
389	 7.26949379824652E-02 
390	 7.17357705265429E-02 
391	 7.09129725770451E-02 
392	 7.29060476849632E-02 
393	 7.26282671255932E-02 
394	 7.05982084081354E-02 
395	 7.13981634435156E-02 
396	 7.25496666046755E-02 
397	 7.29286348621775E-02 
398	 7.27512237712034E-02 
399	 7.19904166174547E-02 
400	 7.06586997383623E-02 
401	 7.07671489761943E-02 
402	 7.18544426873179E-02 
403	 7.19741496353246E-02 
404	 7.17214630478501E-02 
405	 7.14586770392364E-02 
406	 7.19316524598304E-02 
407	 7.25473492398921E-02 
408	 7.25062576242286E-02 
409	 7.23494380715548E-02 
410	 7.21332587708178E-02 
411	 7.15389769208483E-02 
412	 7.15151046603158E-02 
413	 7.22899342425033E-02 
414	 7.22786082688356E-02 
415	 7.19134731663953E-02 
416	 7.19544924517043E-02 
417	 0.071663683768947 
418	 7.11668065331609E-02 
419	 0.071319301350626 
420	 7.16125347107524E-02 
421	 7.17744947009947E-02 
422	 0.072008311997294 
423	 7.22119540037065E-02 
424	 7.22235035075086E-02 
425	 7.21390970535877E-02 
426	 0.072049174491595 
427	 0.07214175413485 
428	 7.23154844751081E-02 
429	 7.25228629986507E-02 
430	 7.30327173603276E-02 
431	 7.34430040502957E-02 
432	 7.30827319170415E-02 
433	 7.23300000439198E-02 
434	 7.16106023929053E-02 
435	 7.18834593564697E-02 
436	 0.072272531895022 
437	 7.22080436777516E-02 
438	 7.22164182474502E-02 
439	 7.22989705451768E-02 
440	 7.23381516396745E-02 
441	 7.22902045723526E-02 
442	 7.22126845514108E-02 
443	 7.24198374572019E-02 
444	 7.25785682304668E-02 
445	 7.24549399239477E-02 
446	 0.072702301587837 
447	 7.30676961617349E-02 
448	 7.27188788129588E-02 
449	 7.25817451360273E-02 
450	 0.072893760658652 
451	 7.31630545362318E-02 
452	 7.33039304092291E-02 
453	 7.32719205798244E-02 
454	 7.33229008854551E-02 
455	 7.34595042814561E-02 
456	 7.35510094091415E-02 
457	 7.34896703125965E-02 
458	 7.33309671449353E-02 
459	 7.37297077658803E-02 
460	 7.40523746443392E-02 
461	 7.35165990241767E-02 
462	 7.30869791910075E-02 
463	 7.29413918189848E-02 
464	 7.28516673544912E-02 
465	 0.072863936648608 
466	 7.30278291250949E-02 
467	 0.073614834969578 
468	 7.40649414474872E-02 
469	 7.35449752001128E-02 
470	 7.35788649330836E-02 
471	 7.42494853134917E-02 
472	 7.43826579351514E-02 
473	 7.42120765531963E-02 
474	 7.39349438158664E-02 
475	 7.38801454998497E-02 
476	 7.39980171547138E-02 
477	 7.41225507873122E-02 
478	 0.074002120267326 
479	 7.37151516426805E-02 
480	 7.39308427699031E-02 
481	 7.42186529866107E-02 
482	 7.42174940620971E-02 
483	 7.40795524978188E-02 
484	 0.073970861616986 
485	 7.42627287963125E-02 
486	 7.42919370063973E-02 
487	 7.40028305409659E-02 
488	 7.45227715136459E-02 
489	 0.074985493950456 
490	 7.45010360750633E-02 
491	 7.40008660709569E-02 
492	 7.38941003838871E-02 
493	 7.48243776286446E-02 
494	 7.53521474873225E-02 
495	 7.49701886390553E-02 
496	 0.074913101312331 
497	 7.51486341921442E-02 
498	 0.075476413984006 
499	 7.58048117965192E-02 
500	 7.60802174661447E-02 
501	 7.62461243577833E-02 
502	 7.65063681710593E-02 
503	 7.69408250050674E-02 
504	 7.71483044237502E-02 
505	 7.72495334625569E-02 
506	 7.75209843944382E-02 
507	 7.78836846879645E-02 
508	 7.83343453334517E-02 
509	 7.89279439833836E-02 
510	 7.94994744709332E-02 
511	 7.99249292905562E-02 
512	 8.03655625469855E-02 
513	 8.08541152302007E-02 
514	 8.13926149359387E-02 
515	 0.081940709973503 
516	 8.25442933508351E-02 
517	 8.35478367212881E-02 
518	 0.084478223173425 
519	 8.48391090071447E-02 
520	 0.085680113802935 
521	 8.68837245921229E-02 
522	 8.75846853792455E-02 
523	 8.81843984429549E-02 
524	 8.88800991937799E-02 
525	 8.97421106007069E-02 
526	 0.090520851750847 
527	 0.090840817256273 
528	 9.15374070698324E-02 
529	 0.092561376199963 
530	 9.29857314303894E-02 
531	 9.33187537045094E-02 
532	 0.093927672283946 
533	 9.49184998456453E-02 
534	 9.58156899966881E-02 
535	 9.56187604255044E-02 
536	 9.58804319030999E-02 
537	 9.68402425613859E-02 
538	 0.097059052335347 
539	 0.09715687978924 
540	 9.77733115922794E-02 
541	 0.098356302499765 
542	 9.87520808831744E-02 
543	 9.88257083375982E-02 
544	 9.90360429477956E-02 
545	 9.95477463254755E-02 
546	 0.100027682023303 
547	 0.10031231967275 
548	 0.100236856240564 
549	 0.100459084574332 
550	 0.100999275741082 
551	 0.10127696518144 
552	 0.10166319994959 
553	 0.102288421230213 
554	 0.102197183730793 
555	 0.101816142158765 
556	 0.102178050547324 
557	 0.102492851486998 
558	 0.102549987269901 
559	 0.102603334649526 
560	 0.102585854469134 
561	 0.102440237331636 
562	 0.102315992203724 
563	 0.102216090477461 
564	 0.102064885225865 
565	 0.101913120654462 
566	 0.101732273060475 
567	 0.101243799071216 
568	 0.100685264180035 
569	 0.10038329773456 
570	 0.100159129473582 
571	 9.99933781152882E-02 
572	 0.100006439626211 
573	 9.98081774003345E-02 
574	 0.099229216035569 
575	 9.90651128519088E-02 
576	 9.89982079122362E-02 
577	 9.82318063273064E-02 
578	 9.76481932325203E-02 
579	 9.74785570922084E-02 
580	 9.74258613865161E-02 
581	 9.72367469247929E-02 
582	 9.67236108969221E-02 
583	 0.09630178465053 
584	 9.61288012260317E-02 
585	 9.64365484726601E-02 
586	 9.65927404474831E-02 
587	 9.63010734949708E-02 
588	 9.56401221627638E-02 
589	 9.50125407414606E-02 
590	 9.49375803922019E-02 
591	 9.48890763666123E-02 
592	 9.47092956543048E-02 
593	 9.42720678776886E-02 
594	 0.094229387977243 
595	 9.48334644058004E-02 
596	 9.48018034885936E-02 
597	 9.43254384062015E-02 
598	 9.40345994417442E-02 
599	 9.39590386575676E-02 
600	 9.40554133851867E-02 
601	 9.39647013102823E-02 
602	 9.38551722478327E-02 
603	 9.38558596641435E-02 
604	 9.34720719829476E-02 
605	 0.092866892221304 
606	 9.26283458574415E-02 
607	 9.25386984966222E-02 
608	 9.25244390579022E-02 
609	 9.26704274626243E-02 
610	 9.25310545327639E-02 
611	 9.15720580165394E-02 
612	 9.12856411035529E-02 
613	 9.16797493155158E-02 
614	 9.14855320328049E-02 
615	 9.10340759773802E-02 
616	 9.05672612811169E-02 
617	 9.03755791148345E-02 
618	 9.03723130263019E-02 
619	 9.03337732654269E-02 
620	 9.01549747362745E-02 
621	 8.98338820250936E-02 
622	 8.95567674203939E-02 
623	 8.93559208935362E-02 
624	 8.92548207336856E-02 
625	 8.92109010698866E-02 
626	 8.92064061425085E-02 
627	 8.92428341743188E-02 
628	 8.92215367871498E-02 
629	 8.91088786291047E-02 
630	 8.89601114449539E-02 
631	 8.89413724652094E-02 
632	 8.92390745707772E-02 
633	 0.089372872515154 
634	 8.91938661063277E-02 
635	 8.86528764680423E-02 
636	 8.81277566700421E-02 
637	 8.78322066374002E-02 
638	 8.74485700203705E-02 
639	 8.69260631144322E-02 
640	 8.62136104641132E-02 
641	 8.60046361612775E-02 
642	 8.61966580372284E-02 
643	 8.53286933465803E-02 
644	 8.43212831232223E-02 
645	 0.083990620852777 
646	 8.35144584640647E-02 
647	 8.28816528042959E-02 
648	 8.24653447318505E-02 
649	 0.081982479762058 
650	 0.081443182442045 
651	 8.14550942094899E-02 
652	 8.17291153457814E-02 
653	 0.081865038721537 
654	 8.17758602737109E-02 
655	 8.14536602975136E-02 
656	 8.10795396388826E-02 
657	 8.06078877271296E-02 
658	 8.00844543623527E-02 
659	 7.97899527155331E-02 
660	 0.07959066420549 
661	 7.92490467717893E-02 
662	 7.87580414945679E-02 
663	 7.81863192772071E-02 
664	 7.78004084989413E-02 
665	 7.76778274275174E-02 
666	 7.78111476842715E-02 
667	 7.73935442286717E-02 
668	 7.67227019182657E-02 
669	 7.69954936480349E-02 
670	 7.66201014640634E-02 
671	 7.54491237922657E-02 
672	 7.61315819011283E-02 
673	 7.71490627498434E-02 
674	 7.65831856693435E-02 
675	 7.63405370228068E-02 
676	 7.66292827893136E-02 
677	 7.67191777315812E-02 
678	 0.076890043375762 
679	 7.72339962597593E-02 
680	 7.73481308954713E-02 
681	 7.74320467752824E-02 
682	 0.077871635244246 
683	 0.078306589000242 
684	 7.87846254325929E-02 
685	 0.079926236124816 
686	 8.13019097098428E-02 
687	 8.24933872076165E-02 
688	 8.36307875093713E-02 
689	 8.49585198275685E-02 
690	 8.71679271803834E-02 
691	 0.089502525891781 
692	 9.17897975782251E-02 
693	 9.41945847474641E-02 
694	 9.70255523093727E-02 
695	 0.10044090895181 
696	 0.103851516899039 
697	 0.10713746711544 
698	 0.110450091022455 
699	 0.113899116456775 
700	 0.117471733046259 
701	 0.120983159787892 
702	 0.124569561468596 
703	 0.128450468319503 
704	 0.132278437253727 
705	 0.135931752198811 
706	 0.139174732360844 
707	 0.142466783163815 
708	 0.146040997967969 
709	 0.14911122137272 
710	 0.152034277226249 
711	 0.155714137224967 
712	 0.159185089729644 
713	 0.162138744023513 
714	 0.164764610318106 
715	 0.167275158638428 
716	 0.169995820917913 
717	 0.172569725358158 
718	 0.175094655034207 
719	 0.177799239467599 
720	 0.180048529866187 
721	 0.181709566742979 
722	 0.183742583484239 
723	 0.185582614293122 
724	 0.186348616152011 
725	 0.18772339530009 
726	 0.189813110094473 
727	 0.192051114557196 
728	 0.193557517680855 
729	 0.194050908864197 
730	 0.195140381076373 
731	 0.196560941584546 
732	 0.197684654445692 
733	 0.198656773956836 
734	 0.199547532933035 
735	 0.200429676939439 
736	 0.201309260061999 
737	 0.202143666668559 
738	 0.20275270221377 
739	 0.203293602113884 
740	 0.204079399822141 
741	 0.205031244432 
742	 0.205948689288182 
743	 0.206252782417551 
744	 0.206012070714056 
745	 0.205421832933615 
746	 0.205890746184284 
747	 0.20701534047068 
748	 0.207181380752656 
749	 0.20752720734304 
750	 0.208289812991519 
751	 0.208613797189208 
752	 0.208691475684393 
753	 0.208812717684812 
754	 0.20941940584307 
755	 0.210248669665282 
756	 0.210279179360788 
757	 0.210270149858501 
758	 0.210580725296801 
759	 0.210968127290752 
760	 0.212070239325404 
761	 0.214385398266658 
762	 0.214517835675435 
763	 0.213144007108078 
764	 0.213540601352653 
765	 0.214131985580827 
766	 0.214264202094688 
767	 0.213786194042885 
768	 0.21319694965542 
769	 0.213049933458468 
770	 0.213401318924234 
771	 0.214047470578869 
772	 0.214118994393282 
773	 0.214384964194291 
774	 0.215211670255225 
775	 0.215047507236357 
776	 0.214424129430935 
777	 0.214658941265934 
778	 0.215229253117903 
779	 0.215856547282237 
780	 0.216050972295686 
781	 0.216020357088336 
782	 0.215978580137197 
783	 0.216184130061669 
784	 0.216531642473803 
785	 0.216680084184867 
786	 0.216926437143383 
787	 0.21726349699448 
788	 0.217208484036499 
789	 0.217060091929477 
790	 0.217129983757997 
791	 0.217460359433931 
792	 0.21785407099808 
793	 0.217800483888712 
794	 0.21785601867203 
795	 0.218070873904977 
796	 0.217622959749019 
797	 0.217149849711648 
798	 0.217305400315471 
799	 0.217409993190764 
800	 0.217438573989196 
801	 0.2176310604659 
802	 0.218226545110028 
803	 0.219042141089917 
804	 0.218559019859007 
805	 0.217892860084919 
806	 0.21832381021153 
807	 0.218660111174927 
808	 0.218796562989541 
809	 0.219194448541017 
810	 0.21926252342738 
811	 0.21894539343432 
812	 0.219609409568421 
813	 0.220553712089813 
814	 0.220709780181633 
815	 0.220948621379801 
816	 0.221452091593096 
817	 0.222212192770843 
818	 0.222321075415312 
819	 0.221693051882933 
820	 0.222175187103176 
821	 0.223007289314724 
822	 0.223139592676837 
823	 0.223352921261252 
824	 0.223685096011353 
825	 0.223748121279596 
826	 0.22403386834379 
827	 0.224733360862882 
828	 0.225700137939672 
829	 0.225976062337867 
830	 0.22453886641961 
831	 0.224611217342188 
832	 0.226066267192083 
833	 0.226449914464409 
834	 0.226185888434201 
835	 0.225617621688072 
836	 0.225879266550088 
837	 0.226379674053753 
838	 0.226358971149232 
839	 0.226605116153892 
840	 0.22705867552406 
841	 0.227067908474627 
842	 0.227242705940361 
843	 0.227736640953429 
844	 0.22787398687784 
845	 0.227808914303026 
846	 0.227775249151234 
847	 0.227593353203965 
848	 0.227386855289032 
849	 0.227564789428065 
850	 0.227805928751671 
851	 0.228016241451201 
852	 0.228544728699133 
853	 0.228819221849802 
854	 0.228260378181307 
855	 0.22794653068858 
856	 0.227928055683165 
857	 0.227698805790149 
858	 0.227714907418189 
859	 0.227956449446317 
860	 0.22744793354152 
861	 0.227373282538676 
862	 0.228736213605871 
863	 0.228637274479345 
864	 0.228025906460163 
865	 0.230639278313987 
866	 0.231476200293201 
867	 0.229664647596335 
868	 0.229820095843042 
869	 0.23036030947349 
870	 0.229984708307249 
871	 0.230470162608193 
872	 0.231583145869603 
873	 0.232441327440526 
874	 0.232522382790405 
875	 0.231863787791769 
876	 0.231350334696295 
877	 0.231521957926238 
878	 0.232607449794803 
879	 0.23322724763505 
880	 0.233547604143893 
881	 0.234201528902572 
882	 0.234116143949637 
883	 0.233462313687029 
884	 0.233673861428381 
885	 0.234800491955105 
886	 0.236479115633577 
887	 0.236094470511909 
888	 0.235014784205334 
889	 0.235413779548954 
890	 0.236165728563845 
891	 0.236781249959584 
892	 0.236507350996771 
893	 0.236219564436613 
894	 0.236348392129916 
895	 0.23653970825811 
896	 0.237164324037028 
897	 0.238565176045814 
898	 0.239059090000058 
899	 0.239061734014385 
900	 0.240833534230025 
901	 0.24035886957914 
902	 0.237436963433741 
903	 0.236961683077759 
904	 0.238250936360767 
905	 0.240344848108788 
906	 0.240870173807665 
907	 0.240055743681911 
908	 0.238966997541406 
909	 0.240290680026474 
910	 0.243146781139149 
911	 0.240553106280611 
912	 0.23922127936525 
913	 0.242319163447532 
914	 0.243124476230475 
915	 0.24273364930608 
916	 0.243314594185357 
917	 0.243168991814345 
918	 0.241972213496132 
919	 0.239220219760421 
920	 0.239015787143539 
921	 0.241925663765728 
922	 0.242699994694079 
923	 0.241844913690167 
924	 0.240162204631019 
925	 0.238994087328487 
926	 0.238825483340189 
927	 0.240164695827331 
928	 0.239743626350639 
929	 0.236672507283916 
930	 0.233361731069335 
931	 0.233039066045489 
932	 0.237360897619166 
933	 0.2344512656827 
934	 0.230135705273494 
935	 0.235352839348229 
936	 0.239829297627317 
937	 0.24104800431061 
938	 0.239525960613686 
939	 0.237812730131911 
940	 0.237582973166778 
941	 0.24234091422284 
942	 0.241999753326627 
943	 0.231386841233507 
944	 0.233667239374853 
945	 0.24076845167646 
946	 0.235335994771168 
947	 0.231718052840983 
948	 0.232242863058392 
949	 0.232223765119293 
950	 0.231954611346443 
951	 0.231116548007955 
952	 0.227954650797364 
953	 0.226009806432033 
954	 0.228168294924601 
955	 0.229118046183556 
956	 0.230044638985854 
957	 0.235137811694112 
958	 0.230668956540941 
959	 0.218944623200973 
960	 0.218371418373673 
961	 0.222244000575759 
962	 0.226339575785289 
963	 0.227943440100201 
964	 0.228327127811345 
965	 0.228853859170468 
966	 0.227149667648475 
967	 0.223583751598612 
968	 0.21922716989071 
969	 0.216884501054569 
970	 0.217766004293426 
971	 0.223049524548766 
972	 0.225729360897211 
973	 0.222972452528255 
974	 0.22292729294303 
975	 0.225226783068734 
976	 0.228275807840701 
977	 0.229075113906923 
978	 0.226954160146973 
979	 0.221738237017928 
980	 0.219637055405482 
981	 0.222188092116846 
982	 0.227594595909047 
983	 0.230047328120642 
984	 0.227350780671427 
985	 0.227981084231939 
986	 0.230144089652802 
987	 0.230811311043122 
988	 0.225848787446505 
989	 0.220175737066014 
990	 0.225016564402208 
991	 0.228163827880024 
992	 0.22733865581089 
993	 0.22766211975115 
994	 0.230676290064468 
995	 0.235763505129136 
996	 0.235085369834108 
997	 0.230788079982147 
998	 0.226312444997363 
999	 0.226842404850408 
1000	 0.231314926529133 
1001	 0.236222733227773 
1002	 0.233345847816649 
1003	 0.224723808732907 
1004	 0.224494375615071 
1005	 0.228135015228486 
1006	 0.232933329271624 
1007	 0.235061964620609 
1008	 0.234207917866541 
1009	 0.231248345599346 
1010	 0.233253548630253 
1011	 0.235309784162925 
1012	 0.22976523855343 
1013	 0.229454215007329 
1014	 0.234440204839843 
1015	 0.238180801794699 
1016	 0.238403866866315 
1017	 0.236591732475467 
1018	 0.243362702284074 
1019	 0.247571794498673 
1020	 0.24430640972381 
1021	 0.245191600689391 
1022	 0.242869449713759 
1023	 0.231290007299275 
1024	 0.233071045232174 
1025	 0.240212704675891 
1026	 0.233564684744488 
1027	 0.230313906379683 
1028	 0.233562140427333 
1029	 0.240132494224719 
1030	 0.240371821003085 
1031	 0.234693006315243 
1032	 0.243538098021182 
1033	 0.249280394734428 
1034	 0.242676212603651 
1035	 0.244564574296987 
1036	 0.249595178509107 
1037	 0.250367054627888 
1038	 0.247377192690901 
1039	 0.243809131495776 
1040	 0.244928972144854 
1041	 0.255401409325973 
1042	 0.267521848589635 
1043	 0.258359817798915 
1044	 0.248166103526631 
1045	 0.247404447384707 
1046	 0.264710881688491 
1047	 0.264351230515869 
1048	 0.232721504421545 
1049	 0.235443023650937 
1050	 0.246753381271503 
1051	 0.238876057070033 
1052	 0.2390228822131 
1053	 0.241310786522543 
1054	 0.231741061076178 
1055	 0.251354369568475 
1056	 0.282519270569249 
1057	 0.265610898500031 
1058	 0.245783279340149 
1059	 0.238864905608661 
1060	 0.256005072900328 
1061	 0.25843466568405 
1062	 0.238297677347449 
1063	 0.257999393439961 
1064	 0.262609111340129 
1065	 0.223238667111764 
1066	 0.238047064932857 
1067	 0.26966119164169 
1068	 0.271277899872753 
1069	 0.280911819232724 
1070	 0.283777089670652 
1071	 0.247193135507979 
1072	 0.223163167714818 
1073	 0.221601373616932 
1074	 0.233141974941485 
1075	 0.247497790459166 
