Wavelength	A00331.asd
325	 6.11559930123128E-02 
326	 7.05524032270293E-02 
327	 7.01351812569539E-02 
328	 6.11541630202172E-02 
329	 5.54601615297786E-02 
330	 5.64441015176149E-02 
331	 0.054549916143996 
332	 0.054914419231825 
333	 6.24850950187405E-02 
334	 6.44448637171835E-02 
335	 6.26692172381876E-02 
336	 6.71629324670123E-02 
337	 6.80050372152103E-02 
338	 6.38095435622515E-02 
339	 6.27156387745859E-02 
340	 6.19787317059814E-02 
341	 5.94551231870855E-02 
342	 6.01024223562032E-02 
343	 6.33952399187893E-02 
344	 6.78057106717142E-02 
345	 0.066407543682006 
346	 6.06975896517054E-02 
347	 6.43401032876628E-02 
348	 6.76790614920642E-02 
349	 6.49139342117628E-02 
350	 6.60109843964581E-02 
351	 6.81338117544373E-02 
352	 6.47722873167432E-02 
353	 6.41828604268147E-02 
354	 6.70869829326122E-02 
355	 6.83547355145519E-02 
356	 6.84201885555064E-02 
357	 6.77556781428372E-02 
358	 6.75807677811041E-02 
359	 6.79438171179739E-02 
360	 6.86916308321426E-02 
361	 6.74453596960435E-02 
362	 6.51046329432247E-02 
363	 6.67154714921079E-02 
364	 0.067463955390037 
365	 6.54544008925249E-02 
366	 6.63452315884518E-02 
367	 0.067829172229823 
368	 6.61286461701501E-02 
369	 6.53970055582447E-02 
370	 6.60267764259553E-02 
371	 6.58029195971463E-02 
372	 6.62068711247011E-02 
373	 6.78575957562833E-02 
374	 6.93295328066378E-02 
375	 0.07028988715542 
376	 7.05690284114256E-02 
377	 6.96627916421153E-02 
378	 6.78857746311036E-02 
379	 6.62258083986539E-02 
380	 6.60685595910799E-02 
381	 6.77003071611791E-02 
382	 0.067928632044468 
383	 6.74368322840521E-02 
384	 6.75686703988188E-02 
385	 0.069804105862828 
386	 7.21006543805857E-02 
387	 6.72696218464957E-02 
388	 0.064441467814864 
389	 6.67640027186697E-02 
390	 6.63810091807148E-02 
391	 6.53591560797201E-02 
392	 6.68191485913152E-02 
393	 6.73125654847412E-02 
394	 6.66504139072081E-02 
395	 6.64738616075153E-02 
396	 6.61742380919643E-02 
397	 6.55984824340491E-02 
398	 0.065220258567687 
399	 6.47383621092455E-02 
400	 6.38395929782925E-02 
401	 6.42176203897481E-02 
402	 0.065509412154374 
403	 6.62845103270237E-02 
404	 6.64155446873531E-02 
405	 6.59768363162757E-02 
406	 6.58517180732405E-02 
407	 6.62824757615774E-02 
408	 6.74124023355747E-02 
409	 6.71281782294692E-02 
410	 6.58445327707389E-02 
411	 6.60611858845102E-02 
412	 6.67358110170445E-02 
413	 6.72983760898758E-02 
414	 0.067560895177752 
415	 6.73738219620597E-02 
416	 6.65974673061089E-02 
417	 6.61825099164653E-02 
418	 6.63648366194527E-02 
419	 6.71615967606958E-02 
420	 6.74498591321617E-02 
421	 6.68261249576248E-02 
422	 6.71855443905933E-02 
423	 6.79791047577965E-02 
424	 6.81195256658167E-02 
425	 6.79388052943927E-02 
426	 6.77305119273709E-02 
427	 6.82983045977738E-02 
428	 6.87777292333362E-02 
429	 6.85952257595436E-02 
430	 6.80141311823923E-02 
431	 6.75151788740415E-02 
432	 6.78287880819069E-02 
433	 6.76900966138803E-02 
434	 6.71133657419218E-02 
435	 6.74350582856714E-02 
436	 6.77473443686232E-02 
437	 6.75247240151285E-02 
438	 6.79312791928121E-02 
439	 6.84772312018147E-02 
440	 0.067946627991298 
441	 6.76987453395694E-02 
442	 6.80290038130458E-02 
443	 6.83100030389495E-02 
444	 6.84977275933343E-02 
445	 6.85966606626247E-02 
446	 6.89289120355759E-02 
447	 6.93371426592631E-02 
448	 6.93552855640964E-02 
449	 6.93414607624769E-02 
450	 6.94520834688195E-02 
451	 6.98177403508904E-02 
452	 7.01502709415764E-02 
453	 7.01745968158224E-02 
454	 7.03019688961494E-02 
455	 7.04890858552476E-02 
456	 7.04206108471899E-02 
457	 7.01294371867527E-02 
458	 0.069750531209448 
459	 6.99379817820165E-02 
460	 7.02649746024552E-02 
461	 7.01736401898159E-02 
462	 7.02769910531361E-02 
463	 7.04748045970017E-02 
464	 6.99148305061316E-02 
465	 7.00031942805573E-02 
466	 0.071200492268186 
467	 7.12345701813655E-02 
468	 7.05604309615657E-02 
469	 7.02236763634105E-02 
470	 7.02275321246462E-02 
471	 7.05627021866305E-02 
472	 7.11063093234856E-02 
473	 7.13759157446948E-02 
474	 7.11077601720943E-02 
475	 7.08420808932245E-02 
476	 7.08097018658924E-02 
477	 7.12988353241189E-02 
478	 7.11965785913456E-02 
479	 0.070557140586413 
480	 7.10653168069865E-02 
481	 0.071751008657028 
482	 7.18108400783482E-02 
483	 7.17500721322839E-02 
484	 7.17880591616689E-02 
485	 7.23666123146381E-02 
486	 7.21455690790354E-02 
487	 7.10497420586763E-02 
488	 7.15196849741978E-02 
489	 7.21276602976222E-02 
490	 7.13577707581844E-02 
491	 7.10430917216444E-02 
492	 7.13759506020994E-02 
493	 7.19414838441417E-02 
494	 7.22461390201621E-02 
495	 7.21305762125045E-02 
496	 7.22747259438055E-02 
497	 7.25515664909887E-02 
498	 7.27110650747707E-02 
499	 7.30224288809904E-02 
500	 0.073390986134677 
501	 7.32464439385684E-02 
502	 7.33276257881141E-02 
503	 7.39856552914287E-02 
504	 7.42094621469261E-02 
505	 7.42541813796873E-02 
506	 7.47811777643677E-02 
507	 7.49731516451359E-02 
508	 0.074876047196381 
509	 7.56079078568406E-02 
510	 7.64229373745845E-02 
511	 7.67336451415993E-02 
512	 7.71596574261385E-02 
513	 7.77670052700445E-02 
514	 7.85437696692345E-02 
515	 7.89021228250927E-02 
516	 7.87962326204826E-02 
517	 7.92859546580542E-02 
518	 8.00462830743338E-02 
519	 8.06282071594164E-02 
520	 8.10420729520126E-02 
521	 8.14310527293924E-02 
522	 0.082214619761587 
523	 8.29552897450774E-02 
524	 8.34739017425121E-02 
525	 8.40069596678972E-02 
526	 8.45674803809451E-02 
527	 8.51370697814798E-02 
528	 0.085572051465367 
529	 8.59378200935093E-02 
530	 8.65921311543845E-02 
531	 8.73105784780474E-02 
532	 8.79437666905485E-02 
533	 0.088634159117343 
534	 0.089152001374789 
535	 8.89813540752937E-02 
536	 8.91142224786151E-02 
537	 8.97802301364421E-02 
538	 9.03714314998304E-02 
539	 9.08535434246716E-02 
540	 9.12067790598853E-02 
541	 9.12313375708186E-02 
542	 9.11256152801754E-02 
543	 9.14734810229178E-02 
544	 9.18717999491438E-02 
545	 9.22192382344375E-02 
546	 9.30445494846383E-02 
547	 9.36672092280573E-02 
548	 9.31645515481852E-02 
549	 0.093272378494456 
550	 9.41298418448687E-02 
551	 9.46309245366161E-02 
552	 0.094955590928131 
553	 9.51890893453543E-02 
554	 0.095145019391739 
555	 9.50793721853382E-02 
556	 9.54953897458294E-02 
557	 9.59044566242269E-02 
558	 0.096125602984713 
559	 9.61467507354326E-02 
560	 9.61280476444127E-02 
561	 9.62085223600033E-02 
562	 9.61195543560516E-02 
563	 9.60033812527518E-02 
564	 9.63880922146852E-02 
565	 0.096603539989764 
566	 9.63898559416873E-02 
567	 9.60929175150168E-02 
568	 9.57033787712342E-02 
569	 9.51715340947405E-02 
570	 9.51208311983056E-02 
571	 9.55055321688729E-02 
572	 9.56401771909968E-02 
573	 9.55495190006898E-02 
574	 9.53024570468254E-02 
575	 0.095502817662637 
576	 9.56774237605172E-02 
577	 9.47777464075598E-02 
578	 9.42500874719175E-02 
579	 9.44216950612224E-02 
580	 9.45275285991711E-02 
581	 9.44388364753845E-02 
582	 9.41037795680305E-02 
583	 0.094098937420048 
584	 9.43460981494272E-02 
585	 9.43854159933359E-02 
586	 9.42869423744361E-02 
587	 9.40731356717894E-02 
588	 9.38059331480568E-02 
589	 9.36464157016218E-02 
590	 9.37858365408216E-02 
591	 9.35331026592503E-02 
592	 9.29853781019765E-02 
593	 9.29776430844743E-02 
594	 9.31142525992779E-02 
595	 9.31750633294012E-02 
596	 9.33371301542399E-02 
597	 9.35402835846724E-02 
598	 9.36807026383148E-02 
599	 0.093463610440605 
600	 9.29870084825309E-02 
601	 9.31041956263414E-02 
602	 9.32719950599668E-02 
603	 9.30354531999188E-02 
604	 9.33811715906406E-02 
605	 9.39358626903009E-02 
606	 9.32813371741371E-02 
607	 9.28083383622656E-02 
608	 9.30043784272299E-02 
609	 9.32035462627843E-02 
610	 9.30659207818353E-02 
611	 9.22612457714386E-02 
612	 9.20445298974394E-02 
613	 9.23886243180848E-02 
614	 9.20933941861388E-02 
615	 0.091626568675955 
616	 9.12835419968341E-02 
617	 0.091015458564317 
618	 9.08757691346975E-02 
619	 9.09551406516927E-02 
620	 9.09935283419166E-02 
621	 9.08913950121905E-02 
622	 9.06498435218291E-02 
623	 9.03633266084956E-02 
624	 9.01401862006086E-02 
625	 9.02180144705444E-02 
626	 9.04705214017133E-02 
627	 9.04839206627377E-02 
628	 9.03689111364849E-02 
629	 9.02220939782339E-02 
630	 9.03820371323573E-02 
631	 9.06473985160282E-02 
632	 9.07312435943715E-02 
633	 9.07773539413592E-02 
634	 9.07151742082846E-02 
635	 9.01775928106355E-02 
636	 0.089854842905494 
637	 9.00740888052491E-02 
638	 8.98984756588466E-02 
639	 8.93597409936655E-02 
640	 8.86851774046745E-02 
641	 8.87747233174998E-02 
642	 8.94507483665561E-02 
643	 8.85709556698066E-02 
644	 8.75857941422849E-02 
645	 8.77594116671607E-02 
646	 8.75206099794805E-02 
647	 8.68761338588445E-02 
648	 8.65984136449634E-02 
649	 8.64052690314672E-02 
650	 8.62107130942041E-02 
651	 8.60602769264513E-02 
652	 0.085936391256254 
653	 8.58158188778139E-02 
654	 8.58573518158928E-02 
655	 8.59385098317942E-02 
656	 8.55325614147754E-02 
657	 8.50205312664673E-02 
658	 8.46294620036642E-02 
659	 0.08397919000479 
660	 8.33638810479577E-02 
661	 8.33675300600267E-02 
662	 8.27621290214031E-02 
663	 8.15352492061057E-02 
664	 8.12413338703214E-02 
665	 8.11248364043643E-02 
666	 8.05152891648492E-02 
667	 7.96247350431789E-02 
668	 7.88512402160705E-02 
669	 0.079162831845127 
670	 7.89735771651101E-02 
671	 0.078052972000522 
672	 7.87519030325962E-02 
673	 7.96392167947912E-02 
674	 0.078926972052558 
675	 7.83590035666093E-02 
676	 7.83131941089327E-02 
677	 7.86509071508278E-02 
678	 7.90538628179572E-02 
679	 7.93388391894425E-02 
680	 7.96501545925634E-02 
681	 8.00396908232587E-02 
682	 8.05520563397289E-02 
683	 8.13538112958757E-02 
684	 8.24068255553068E-02 
685	 8.34323587102081E-02 
686	 0.084489887206385 
687	 8.56381811339408E-02 
688	 8.72427059140796E-02 
689	 0.089027700791952 
690	 9.05471655051688E-02 
691	 9.23264344749646E-02 
692	 9.45284358164018E-02 
693	 9.68408149689333E-02 
694	 0.099342075660707 
695	 0.102018868344118 
696	 0.104840066079576 
697	 0.107646014741795 
698	 0.110156579215751 
699	 0.112567748423857 
700	 0.114972884174622 
701	 0.117603163899111 
702	 0.120278602324785 
703	 0.12272513546701 
704	 0.125161137224085 
705	 0.127595727227348 
706	 0.12981442868133 
707	 0.131819817975454 
708	 0.133628341934197 
709	 0.135328017627237 
710	 0.137139856020696 
711	 0.139464819574921 
712	 0.141571463822879 
713	 0.143222713002681 
714	 0.144560320112447 
715	 0.145979083329803 
716	 0.147889288473872 
717	 0.14923708075559 
718	 0.150178315141171 
719	 0.151827220490019 
720	 0.153547917086063 
721	 0.154939048366414 
722	 0.155807035053691 
723	 0.156314793401088 
724	 0.156547018663547 
725	 0.157481689425107 
726	 0.159032457044064 
727	 0.16042062698256 
728	 0.161283299856456 
729	 0.161527207298054 
730	 0.162060714428894 
731	 0.162882903371825 
732	 0.16382686343703 
733	 0.164498719898234 
734	 0.164868556182073 
735	 0.165073797144144 
736	 0.16560331427876 
737	 0.166651805528456 
738	 0.166899134581673 
739	 0.166826012624566 
740	 0.167698302520372 
741	 0.168325786389974 
742	 0.168497424099315 
743	 0.168980066606866 
744	 0.169413509624697 
745	 0.16950288888441 
746	 0.169642403058318 
747	 0.169940314909274 
748	 0.17049596766807 
749	 0.170988598014442 
750	 0.171303366061857 
751	 0.171598317324468 
752	 0.171861239431238 
753	 0.172072575903755 
754	 0.172224602824467 
755	 0.172424526921802 
756	 0.173079432593716 
757	 0.173144516059652 
758	 0.172287663802169 
759	 0.172204806849097 
760	 0.173681689777334 
761	 0.176688884421913 
762	 0.177635790361884 
763	 0.176726597752023 
764	 0.17658030725121 
765	 0.17697329646491 
766	 0.177584793694872 
767	 0.177323799996835 
768	 0.176777956097137 
769	 0.176672996660268 
770	 0.17694313012182 
771	 0.177453858269449 
772	 0.177719001376099 
773	 0.177922372133783 
774	 0.178190316143262 
775	 0.178489038975813 
776	 0.178830810307564 
777	 0.179268251888515 
778	 0.179402601500561 
779	 0.179229264215222 
780	 0.179173788865387 
781	 0.17965108503139 
782	 0.180837504765395 
783	 0.18110011030808 
784	 0.180778196110311 
785	 0.181226217553055 
786	 0.18139546795191 
787	 0.181132608657976 
788	 0.181298397028951 
789	 0.181696710289849 
790	 0.182093497537055 
791	 0.18248577761517 
792	 0.182707423844595 
793	 0.18231172802549 
794	 0.182394343002257 
795	 0.183165917142944 
796	 0.183500090936217 
797	 0.183368336082884 
798	 0.182873812105095 
799	 0.182886045826263 
800	 0.183421731053993 
801	 0.184017428718017 
802	 0.184532354257154 
803	 0.18481752290994 
804	 0.184635354590947 
805	 0.18451617149639 
806	 0.184998360702516 
807	 0.184855294592043 
808	 0.18438027970074 
809	 0.185214623761357 
810	 0.185702196434818 
811	 0.185323230811732 
812	 0.18571816580946 
813	 0.186436279095119 
814	 0.186708405546995 
815	 0.186977216039563 
816	 0.187497101795355 
817	 0.188903174986483 
818	 0.189216485360584 
819	 0.188088123101619 
820	 0.188639221383584 
821	 0.189998241318037 
822	 0.190850022512119 
823	 0.191374805640045 
824	 0.191410380686381 
825	 0.190426102024385 
826	 0.190307728757169 
827	 0.191558293587981 
828	 0.191725882925888 
829	 0.191270441281276 
830	 0.191071966241879 
831	 0.191782247297193 
832	 0.193102851129595 
833	 0.19379785540041 
834	 0.194096868501715 
835	 0.1941566110937 
836	 0.194497707397618 
837	 0.194681156876942 
838	 0.1941959010398 
839	 0.194107591802976 
840	 0.194399891118458 
841	 0.19424663638565 
842	 0.194584011767919 
843	 0.195484065747858 
844	 0.194977195391882 
845	 0.194213582411465 
846	 0.194624370681147 
847	 0.195019082893173 
848	 0.19521410823052 
849	 0.195394026976693 
850	 0.195611840399174 
851	 0.195942427123402 
852	 0.196648733678999 
853	 0.197178476914011 
854	 0.196943620725026 
855	 0.19654505858335 
856	 0.196141335107483 
857	 0.19561147244994 
858	 0.196013431993556 
859	 0.197255263066929 
860	 0.19687874374158 
861	 0.196374815262125 
862	 0.197202601830616 
863	 0.197581807141217 
864	 0.1976241611056 
865	 0.198368109900213 
866	 0.199002618960357 
867	 0.199309205798995 
868	 0.19968439304598 
869	 0.199870264988722 
870	 0.19976018580149 
871	 0.20045696661468 
872	 0.20162035171456 
873	 0.202288171977461 
874	 0.20268806555489 
875	 0.202756016232063 
876	 0.202055644441198 
877	 0.201509835117451 
878	 0.201779394072804 
879	 0.202397593934003 
880	 0.203240693359863 
881	 0.204242862121818 
882	 0.20420156285271 
883	 0.203456814396347 
884	 0.204405668821182 
885	 0.205485683593017 
886	 0.205828873672685 
887	 0.205968032589538 
888	 0.206344335060748 
889	 0.207440650263956 
890	 0.207910853288033 
891	 0.207736123224909 
892	 0.207992230858733 
893	 0.20794727807117 
894	 0.207424010567967 
895	 0.207320848211828 
896	 0.208012012639822 
897	 0.20967408016981 
898	 0.20986463855285 
899	 0.209209497688765 
900	 0.210832314994929 
901	 0.211044485742091 
902	 0.209399806703022 
903	 0.209381346767875 
904	 0.21023636677681 
905	 0.211177671653989 
906	 0.211425810548812 
907	 0.211173530125868 
908	 0.210996256506088 
909	 0.21154620129489 
910	 0.212605596621967 
911	 0.212431502137933 
912	 0.212398343482749 
913	 0.213174559344578 
914	 0.213409569388709 
915	 0.213789465749845 
916	 0.215251029856738 
917	 0.216488200939789 
918	 0.216685094322812 
919	 0.214239098409824 
920	 0.213576987177719 
921	 0.215392054696089 
922	 0.214128767845437 
923	 0.212527667124897 
924	 0.213113258550911 
925	 0.212490054688783 
926	 0.211634821061292 
927	 0.213983975589324 
928	 0.215739999443636 
929	 0.214820212079869 
930	 0.208149067485367 
931	 0.205650930179758 
932	 0.213864389049433 
933	 0.210002856719334 
934	 0.202847241649016 
935	 0.21010132232769 
936	 0.21959661779819 
937	 0.224609860556718 
938	 0.216330560789114 
939	 0.211397252458123 
940	 0.213608180640385 
941	 0.213721022030118 
942	 0.210961042642467 
943	 0.205885670335061 
944	 0.207203936234401 
945	 0.212160999254804 
946	 0.214648605566449 
947	 0.214692036233053 
948	 0.214047282369546 
949	 0.219511585565645 
950	 0.220812700944356 
951	 0.21547357186216 
952	 0.216097637159502 
953	 0.217618976489221 
954	 0.215042966993883 
955	 0.214300992789877 
956	 0.214992159108269 
957	 0.214873590729099 
958	 0.212352111977609 
959	 0.20860835969586 
960	 0.208510832432084 
961	 0.210282760783794 
962	 0.212634886672296 
963	 0.214435873855023 
964	 0.215234430672436 
965	 0.21484200286251 
966	 0.215099617741837 
967	 0.214367586035939 
968	 0.208533543857095 
969	 0.205733463755028 
970	 0.207899473697357 
971	 0.212927056809086 
972	 0.215700275302249 
973	 0.214139896701566 
974	 0.214326937956751 
975	 0.21602213242969 
976	 0.218087314986633 
977	 0.218056986059695 
978	 0.216895256249321 
979	 0.218029822380322 
980	 0.216018598500987 
981	 0.211777104562695 
982	 0.214557794488267 
983	 0.216108296817499 
984	 0.212939509867324 
985	 0.213525508679225 
986	 0.216921128418603 
987	 0.220864625706366 
988	 0.21983762287224 
989	 0.216233002646502 
990	 0.217050447755031 
991	 0.21618828979225 
992	 0.213901662457945 
993	 0.217090175562092 
994	 0.221238761039921 
995	 0.223046200130074 
996	 0.218277714325868 
997	 0.213688117300704 
998	 0.215962694781064 
999	 0.218436661808209 
1000	 0.220303801346145 
1001	 0.222364567571622 
1002	 0.21607837363648 
1003	 0.20594208707196 
1004	 0.214383617780665 
1005	 0.219947884414921 
1006	 0.21555330015115 
1007	 0.212951492726443 
1008	 0.215133498612537 
1009	 0.222815070834402 
1010	 0.22699848459104 
1011	 0.226507906967606 
1012	 0.221758679779362 
1013	 0.218784632447553 
1014	 0.218421815156427 
1015	 0.218353344492112 
1016	 0.21982159275563 
1017	 0.221971016863575 
1018	 0.220081458806729 
1019	 0.220273268038938 
1020	 0.224217969969351 
1021	 0.219166098594923 
1022	 0.21477247168362 
1023	 0.220579923616084 
1024	 0.226400969822074 
1025	 0.22609685874349 
1026	 0.212808399710194 
1027	 0.211521795537847 
1028	 0.22150852001066 
1029	 0.219016931830948 
1030	 0.220852271108713 
1031	 0.22859502008358 
1032	 0.223970092646264 
1033	 0.217562262472076 
1034	 0.2168684078877 
1035	 0.219839003415072 
1036	 0.222586978705749 
1037	 0.221516198054211 
1038	 0.219676309054555 
1039	 0.219083362103415 
1040	 0.222029834070709 
1041	 0.223689845023113 
1042	 0.222566691819076 
1043	 0.218229645145781 
1044	 0.212629610702927 
1045	 0.21100772767475 
1046	 0.230905569713642 
1047	 0.234088415283415 
1048	 0.205156773133392 
1049	 0.207983668030216 
1050	 0.217831101316022 
1051	 0.208081074057794 
1052	 0.204561864988875 
1053	 0.206187616428239 
1054	 0.205433976438842 
1055	 0.208844099615423 
1056	 0.221178192837879 
1057	 0.252698879447516 
1058	 0.251022929245818 
1059	 0.21464134176535 
1060	 0.215432725272777 
1061	 0.216539545244237 
1062	 0.206499721857196 
1063	 0.218976343137345 
1064	 0.229034481045979 
1065	 0.221687736242227 
1066	 0.236488668065613 
1067	 0.244369581320069 
1068	 0.213340352099473 
1069	 0.184267943767568 
1070	 0.179471663884663 
1071	 0.217989511483245 
1072	 0.224246079689544 
1073	 0.19394829589786 
1074	 0.161358067217059 
1075	 0.162124187151263 
