Wavelength	A00362.asd
325	 3.83087074868105E-02 
326	 3.98560625522825E-02 
327	 4.24208641900829E-02 
328	 4.03245178398173E-02 
329	 3.84037194433669E-02 
330	 3.81068802558969E-02 
331	 3.57447970822183E-02 
332	 3.68056690331445E-02 
333	 4.59112266967313E-02 
334	 0.045979734828238 
335	 4.00715985202887E-02 
336	 4.12794396592029E-02 
337	 0.044454915627425 
338	 4.75105936292112E-02 
339	 4.92348045025095E-02 
340	 4.68140341990334E-02 
341	 3.92566967226406E-02 
342	 4.01732228307352E-02 
343	 4.62232049641204E-02 
344	 4.78318716205936E-02 
345	 4.63117017759157E-02 
346	 0.043265143523236 
347	 4.38880061944784E-02 
348	 4.50856472602339E-02 
349	 0.044792866479442 
350	 4.49643601647981E-02 
351	 4.48544348727472E-02 
352	 4.28379414878574E-02 
353	 4.22979781026014E-02 
354	 4.34754635889196E-02 
355	 4.39321160991859E-02 
356	 4.39410897621622E-02 
357	 4.38217907517901E-02 
358	 0.044664478252529 
359	 4.56390443256058E-02 
360	 4.53533906329679E-02 
361	 4.48430422233366E-02 
362	 4.45781990521327E-02 
363	 4.52194642392484E-02 
364	 4.54827105071057E-02 
365	 0.044833445971241 
366	 0.044641694984093 
367	 4.44703505413524E-02 
368	 4.35464494027179E-02 
369	 4.31994466332409E-02 
370	 4.34492975903503E-02 
371	 4.32043497403204E-02 
372	 4.32780324420863E-02 
373	 4.39680230609731E-02 
374	 4.41812911280369E-02 
375	 0.044052938509362 
376	 4.39419790602504E-02 
377	 4.46122932429489E-02 
378	 4.54469217883446E-02 
379	 4.36988716303346E-02 
380	 4.28028729497598E-02 
381	 4.41979239288502E-02 
382	 4.49436895380591E-02 
383	 4.50506148795375E-02 
384	 0.044935927669723 
385	 0.046196895199396 
386	 4.78089346335736E-02 
387	 4.55458281126425E-02 
388	 4.39639253352201E-02 
389	 4.48001403890376E-02 
390	 4.50573873982476E-02 
391	 4.53111003330743E-02 
392	 4.64887931288909E-02 
393	 4.57582777453811E-02 
394	 4.37471876900913E-02 
395	 4.39150022525905E-02 
396	 0.044305502884174 
397	 4.40958042860486E-02 
398	 4.37251996727774E-02 
399	 4.30351093933628E-02 
400	 4.18756202617322E-02 
401	 4.23992765797425E-02 
402	 4.40538569386704E-02 
403	 4.47346542785251E-02 
404	 0.044794759422603 
405	 4.44585851101866E-02 
406	 4.42308509426572E-02 
407	 0.044518848614544 
408	 4.57023228927296E-02 
409	 4.54755760820851E-02 
410	 4.42106785299414E-02 
411	 4.44973638422065E-02 
412	 4.48631955935035E-02 
413	 4.46504679803363E-02 
414	 4.43268622008198E-02 
415	 0.044124441670888 
416	 4.42767396095228E-02 
417	 4.42510405426373E-02 
418	 0.044131562861077 
419	 4.46396813406946E-02 
420	 4.49703274733785E-02 
421	 4.47637689469625E-02 
422	 4.47917814119631E-02 
423	 4.50396815887014E-02 
424	 4.53554843724544E-02 
425	 4.56227114381057E-02 
426	 4.58078676603097E-02 
427	 4.59380228189132E-02 
428	 4.61064274421886E-02 
429	 4.63478740191011E-02 
430	 4.64788477653697E-02 
431	 4.64040795312099E-02 
432	 4.60267182305376E-02 
433	 4.54944353242625E-02 
434	 4.51027793887268E-02 
435	 4.56605406867054E-02 
436	 4.61097427870531E-02 
437	 4.58222590069362E-02 
438	 4.59235267491788E-02 
439	 4.62812396778392E-02 
440	 4.63668519861413E-02 
441	 4.63699931341116E-02 
442	 4.63900680546072E-02 
443	 4.66097170099421E-02 
444	 4.69187882951123E-02 
445	 4.72102978876203E-02 
446	 4.73879884804362E-02 
447	 4.74697125125881E-02 
448	 4.75219872908117E-02 
449	 4.76723782780852E-02 
450	 4.79179327611894E-02 
451	 0.047964564342797 
452	 4.80538438895245E-02 
453	 4.84165986817399E-02 
454	 4.85552123001646E-02 
455	 4.84613806023588E-02 
456	 0.048381440392096 
457	 4.83657372963361E-02 
458	 4.84612616708251E-02 
459	 4.87341263386225E-02 
460	 4.89027099926488E-02 
461	 4.86494723861115E-02 
462	 4.86810122514999E-02 
463	 4.88873463247877E-02 
464	 4.83170987687522E-02 
465	 4.81588051450176E-02 
466	 4.88703654283045E-02 
467	 4.89752996976434E-02 
468	 4.87218638707674E-02 
469	 4.87122580270112E-02 
470	 4.91873046483037E-02 
471	 4.98997875284396E-02 
472	 4.97685015986142E-02 
473	 4.94190859329115E-02 
474	 4.92757522586219E-02 
475	 4.92496926082108E-02 
476	 4.93711496234492E-02 
477	 4.97305796866272E-02 
478	 4.96192992375001E-02 
479	 4.91115796342764E-02 
480	 4.94280523928829E-02 
481	 4.99331952082175E-02 
482	 5.00859184729227E-02 
483	 5.00719919114857E-02 
484	 5.00699025965635E-02 
485	 5.05270547411594E-02 
486	 0.050381447578434 
487	 4.95997624592433E-02 
488	 0.050227236880038 
489	 5.09178590654791E-02 
490	 5.02582297936081E-02 
491	 4.97705612481705E-02 
492	 4.98510405730651E-02 
493	 5.07845403380329E-02 
494	 5.14475555580013E-02 
495	 5.13611051563212E-02 
496	 5.10938667450025E-02 
497	 5.09601627105373E-02 
498	 5.12803262444178E-02 
499	 5.15506529594089E-02 
500	 0.051674285645805 
501	 5.18024991982707E-02 
502	 5.19752907101718E-02 
503	 5.21608525552006E-02 
504	 5.18492318901815E-02 
505	 5.15548219794773E-02 
506	 5.22422400091285E-02 
507	 5.25281498827467E-02 
508	 5.23123600324666E-02 
509	 5.29430947229768E-02 
510	 5.34474881696715E-02 
511	 0.053112686653989 
512	 5.33255540798215E-02 
513	 5.38998424440418E-02 
514	 0.053822190905932 
515	 5.39122894170103E-02 
516	 5.43567446558936E-02 
517	 5.45147822973649E-02 
518	 5.46135629307296E-02 
519	 5.49332953060952E-02 
520	 0.055144006477853 
521	 0.055333839862876 
522	 5.59688751042827E-02 
523	 5.63823382560126E-02 
524	 5.63636020575867E-02 
525	 5.67607950785052E-02 
526	 5.71930895603629E-02 
527	 5.69943133844365E-02 
528	 5.70479899396544E-02 
529	 5.74738516132166E-02 
530	 5.78440664321261E-02 
531	 5.81890637239454E-02 
532	 0.058532064136542 
533	 5.89618963393562E-02 
534	 5.92764901115439E-02 
535	 5.90424174228153E-02 
536	 5.89346491691345E-02 
537	 5.91570754234666E-02 
538	 5.95095142796083E-02 
539	 5.98020057415159E-02 
540	 5.98752138601449E-02 
541	 6.01278415564569E-02 
542	 6.04635593826476E-02 
543	 6.03847671119261E-02 
544	 6.04437294814015E-02 
545	 6.08357575372142E-02 
546	 6.12521684215552E-02 
547	 0.061431799877751 
548	 6.10827154653144E-02 
549	 6.12287090227576E-02 
550	 6.18756895447953E-02 
551	 6.20974284487253E-02 
552	 6.22379302205505E-02 
553	 6.24745826229751E-02 
554	 6.23853996994345E-02 
555	 0.062285197715178 
556	 6.28832570240198E-02 
557	 6.31479644351374E-02 
558	 6.28920839126703E-02 
559	 6.28898928534338E-02 
560	 6.31485743021374E-02 
561	 6.35970004498299E-02 
562	 6.35881656419645E-02 
563	 6.32678828877334E-02 
564	 6.33295328898155E-02 
565	 6.35077963364696E-02 
566	 6.36804152850259E-02 
567	 6.37323784991781E-02 
568	 6.36485518579835E-02 
569	 6.34323811088591E-02 
570	 6.35471470057385E-02 
571	 6.39654166530845E-02 
572	 6.41958478551363E-02 
573	 6.42295106214851E-02 
574	 6.41136755703991E-02 
575	 0.064354870460269 
576	 6.47095937273049E-02 
577	 6.45944242681283E-02 
578	 6.45564376090657E-02 
579	 6.46702145337495E-02 
580	 6.44740175595876E-02 
581	 6.42469147600408E-02 
582	 6.42611456732556E-02 
583	 6.46148906731547E-02 
584	 6.50703057059797E-02 
585	 6.50016763715931E-02 
586	 6.48292662659854E-02 
587	 0.064735924127992 
588	 6.47488941640012E-02 
589	 0.06480770546374 
590	 6.48221354136772E-02 
591	 6.45144832309385E-02 
592	 6.41331310260536E-02 
593	 0.064673586024752 
594	 6.51611160811931E-02 
595	 6.50530509122911E-02 
596	 6.49481192058973E-02 
597	 0.065001380027455 
598	 6.53621482735777E-02 
599	 6.54788917684205E-02 
600	 6.52729183331491E-02 
601	 6.52394065677686E-02 
602	 0.065300301271464 
603	 6.53714090639007E-02 
604	 6.55486904991656E-02 
605	 6.56421748417256E-02 
606	 6.50612358935409E-02 
607	 6.48657228522826E-02 
608	 6.53673743857749E-02 
609	 6.55934545830716E-02 
610	 6.54253246425341E-02 
611	 6.48461246844104E-02 
612	 6.46429343559987E-02 
613	 0.064797018183645 
614	 6.44353284683282E-02 
615	 6.43153672130564E-02 
616	 0.064804809301782 
617	 6.49493331278732E-02 
618	 6.47463309517901E-02 
619	 6.44125694154054E-02 
620	 6.42993222879107E-02 
621	 6.44558584572037E-02 
622	 6.45163165956208E-02 
623	 6.44866357485039E-02 
624	 6.43964365591833E-02 
625	 6.44229698993703E-02 
626	 0.064565663490807 
627	 6.47356606592219E-02 
628	 6.48794940586166E-02 
629	 6.49532777039823E-02 
630	 6.49047600521912E-02 
631	 6.48352862812485E-02 
632	 6.48735892032138E-02 
633	 6.51649491847542E-02 
634	 6.55164610736227E-02 
635	 6.51690464526346E-02 
636	 6.49761227854191E-02 
637	 6.53486429049937E-02 
638	 6.51608133899293E-02 
639	 6.47711043318891E-02 
640	 6.50868330263413E-02 
641	 6.52498358862078E-02 
642	 6.51169234932488E-02 
643	 6.53072941764785E-02 
644	 6.54154460889411E-02 
645	 6.51219354923593E-02 
646	 6.53721556408936E-02 
647	 6.58566542392091E-02 
648	 6.52877517361211E-02 
649	 6.47271857278929E-02 
650	 6.46016431853086E-02 
651	 6.46788214042006E-02 
652	 6.48223877410246E-02 
653	 6.48893153182522E-02 
654	 6.45641313832433E-02 
655	 6.39652632912507E-02 
656	 6.38671583728311E-02 
657	 6.38678915365913E-02 
658	 6.36700593395185E-02 
659	 6.29659355564008E-02 
660	 6.22499011202079E-02 
661	 6.23943328191741E-02 
662	 6.21518079536897E-02 
663	 6.13785512712372E-02 
664	 6.10802699295456E-02 
665	 6.10114713920508E-02 
666	 0.060886176807542 
667	 0.060048850452972 
668	 0.058995472512668 
669	 5.92607746651629E-02 
670	 5.92673136297186E-02 
671	 5.86714550676128E-02 
672	 5.90618549608244E-02 
673	 5.94917912732503E-02 
674	 5.87912081795388E-02 
675	 5.86466680341107E-02 
676	 5.91196816445674E-02 
677	 0.05916202487276 
678	 5.92562644336418E-02 
679	 0.059600388854139 
680	 5.97465916055516E-02 
681	 5.98048379788726E-02 
682	 6.00025899163921E-02 
683	 0.060787019149729 
684	 6.19387523242128E-02 
685	 6.20755940946387E-02 
686	 6.21740952780454E-02 
687	 6.31065097871315E-02 
688	 6.42503617417251E-02 
689	 6.53350248568203E-02 
690	 6.62347661998845E-02 
691	 6.74401417293919E-02 
692	 6.89468545549101E-02 
693	 0.06978618059201 
694	 7.05106370157993E-02 
695	 7.17086531945667E-02 
696	 7.31874553946932E-02 
697	 7.46727523154291E-02 
698	 7.55850227554559E-02 
699	 7.64434254934933E-02 
700	 7.74895080115962E-02 
701	 7.86380989540877E-02 
702	 7.98027685980656E-02 
703	 8.08791917386904E-02 
704	 8.19464602211527E-02 
705	 8.28418693262653E-02 
706	 8.28857387293979E-02 
707	 8.30110260552177E-02 
708	 8.38153834225156E-02 
709	 0.084749281243556 
710	 8.57024798930624E-02 
711	 8.66597994539262E-02 
712	 8.73883964246658E-02 
713	 8.78475011418106E-02 
714	 8.82628337033263E-02 
715	 8.86437483902905E-02 
716	 8.90154464348552E-02 
717	 0.089344108426212 
718	 8.98666839237044E-02 
719	 9.13358697792492E-02 
720	 9.18538031567835E-02 
721	 9.12242502011654E-02 
722	 0.091930103314449 
723	 9.27947763100837E-02 
724	 9.23244728435335E-02 
725	 9.22867009357804E-02 
726	 9.28943971399633E-02 
727	 9.34697123207319E-02 
728	 9.39276367934167E-02 
729	 9.41534307704638E-02 
730	 9.38442614594069E-02 
731	 9.36860060588709E-02 
732	 0.09461183032105 
733	 9.52331499519374E-02 
734	 9.53697508577702E-02 
735	 9.56003198166071E-02 
736	 9.57592179536204E-02 
737	 9.57748229314622E-02 
738	 9.60237898186152E-02 
739	 0.096462407778326 
740	 9.69233763541888E-02 
741	 9.71890853739756E-02 
742	 9.72477454386991E-02 
743	 9.74280350864947E-02 
744	 9.75929063955603E-02 
745	 9.76425512568074E-02 
746	 9.79241429715311E-02 
747	 9.83236915778679E-02 
748	 9.84184817730736E-02 
749	 9.86108137714321E-02 
750	 9.89378183810169E-02 
751	 9.87951847047832E-02 
752	 9.86210031301327E-02 
753	 9.89085074468926E-02 
754	 9.93159970713162E-02 
755	 9.96589985315549E-02 
756	 9.96331831108632E-02 
757	 9.96306987486293E-02 
758	 9.97874797188515E-02 
759	 9.94026739541286E-02 
760	 9.90714233154132E-02 
761	 0.100956321851961 
762	 0.101720757279182 
763	 0.101283878864929 
764	 0.101869106282766 
765	 0.102508344854716 
766	 0.102776723671484 
767	 0.10245483791619 
768	 0.101988430394324 
769	 0.10187011512551 
770	 0.102082851380941 
771	 0.102463798769833 
772	 0.102377503704391 
773	 0.102386641437329 
774	 0.102804524209642 
775	 0.102811319981204 
776	 0.102764596441326 
777	 0.103552159703031 
778	 0.103829306440709 
779	 0.103389051383836 
780	 0.1031245657008 
781	 0.103360841329949 
782	 0.104240747868492 
783	 0.104627487187411 
784	 0.104600025490345 
785	 0.104766986134029 
786	 0.10492877010989 
787	 0.105031201602641 
788	 0.105025041824726 
789	 0.105049863062895 
790	 0.105230746343884 
791	 0.10544704005113 
792	 0.105579644971844 
793	 0.105307137662418 
794	 0.105677420848716 
795	 0.106719909691082 
796	 0.106478583477979 
797	 0.106036895737975 
798	 0.106538473154504 
799	 0.106629338168871 
800	 0.106410792015688 
801	 0.106898818443441 
802	 0.107170240352848 
803	 0.10692657876502 
804	 0.106632408773694 
805	 0.106542614338447 
806	 0.106855688911336 
807	 0.106715878657934 
808	 0.106384112511554 
809	 0.107196234714535 
810	 0.107746911671985 
811	 0.107553420967816 
812	 0.107792682925656 
813	 0.108289577967862 
814	 0.108674593647868 
815	 0.108792547048452 
816	 0.108833178473321 
817	 0.109662518564607 
818	 0.109805866984637 
819	 0.109068399121477 
820	 0.110192159849511 
821	 0.111572336891578 
822	 0.111116718025483 
823	 0.110904703593139 
824	 0.11115547202531 
825	 0.111089160769961 
826	 0.111031234135477 
827	 0.111085967995342 
828	 0.111141815186638 
829	 0.110917619100953 
830	 0.110145426530046 
831	 0.110486335282066 
832	 0.111727674807636 
833	 0.112258558361114 
834	 0.112280469397121 
835	 0.112045538213143 
836	 0.112753061540483 
837	 0.113349828087693 
838	 0.112601733561392 
839	 0.112356987894639 
840	 0.112795575963588 
841	 0.113222706716913 
842	 0.113775339963283 
843	 0.11424591677726 
844	 0.113342694458105 
845	 0.112330057909959 
846	 0.112709236925109 
847	 0.11365510521669 
848	 0.114559458013114 
849	 0.114326104227498 
850	 0.113513318291315 
851	 0.112649208034362 
852	 0.113202689735769 
853	 0.114076904908311 
854	 0.113989801088494 
855	 0.114194037668196 
856	 0.114570793737332 
857	 0.114178193578747 
858	 0.114199093095829 
859	 0.114721208191785 
860	 0.113903357102856 
861	 0.113433658966784 
862	 0.114800839371893 
863	 0.11437064797582 
864	 0.113236901241099 
865	 0.115697599507733 
866	 0.117186373770692 
867	 0.116481552863925 
868	 0.11584654230213 
869	 0.115646610756816 
870	 0.116100433542996 
871	 0.117094656205146 
872	 0.117837405371569 
873	 0.116808313208382 
874	 0.117242832527442 
875	 0.119027051851204 
876	 0.117261738013972 
877	 0.11592856804724 
878	 0.117568352354459 
879	 0.118071272577881 
880	 0.117776084722072 
881	 0.118177811027519 
882	 0.117792630887114 
883	 0.116738308909668 
884	 0.116643165586212 
885	 0.117151925696181 
886	 0.118002925079518 
887	 0.118853875475325 
888	 0.119531808055349 
889	 0.119903825016383 
890	 0.120191781632998 
891	 0.120430423047158 
892	 0.12071667880057 
893	 0.119824354402531 
894	 0.117753540582814 
895	 0.118213377546429 
896	 0.120326955654598 
897	 0.122409664647312 
898	 0.12150873423354 
899	 0.11926290740551 
900	 0.121601763180208 
901	 0.122639718796142 
902	 0.121219359440112 
903	 0.121247999273969 
904	 0.121846806558384 
905	 0.122199374614394 
906	 0.122047101392063 
907	 0.121964979479963 
908	 0.123089610867615 
909	 0.123419525110355 
910	 0.122835866251403 
911	 0.123181685308729 
912	 0.12421827392229 
913	 0.125615492570719 
914	 0.126472902435428 
915	 0.126141421126976 
916	 0.124151260965553 
917	 0.124260594929678 
918	 0.126041893128663 
919	 0.12604021652336 
920	 0.12658743602148 
921	 0.127657995083392 
922	 0.125217414373568 
923	 0.122645543375612 
924	 0.123093708569757 
925	 0.124197027295294 
926	 0.125016248457425 
927	 0.124369525353407 
928	 0.123256015443889 
929	 0.121981662530037 
930	 0.120127811364318 
931	 0.119317772236371 
932	 0.120408807226947 
933	 0.1177745333464 
934	 0.115042561329992 
935	 0.118577437572118 
936	 0.125382618720741 
937	 0.131729489083278 
938	 0.1317401305662 
939	 0.126355160972396 
940	 0.119407652737126 
941	 0.125493426191476 
942	 0.131308370563372 
943	 0.127463328469396 
944	 0.12269839831793 
945	 0.120515961729685 
946	 0.124079429342587 
947	 0.125485877912522 
948	 0.124515141100262 
949	 0.127665247220052 
950	 0.132283808794052 
951	 0.135396517910333 
952	 0.127899020222647 
953	 0.12050459498677 
954	 0.122984671329788 
955	 0.127279842413713 
956	 0.130181319105761 
957	 0.12854233485566 
958	 0.127034429725907 
959	 0.126360548596585 
960	 0.123510389634786 
961	 0.124724351344369 
962	 0.130838340818486 
963	 0.12938974659896 
964	 0.127088482644241 
965	 0.13061003518502 
966	 0.129521429884555 
967	 0.126129383492593 
968	 0.128434547395605 
969	 0.127803708588459 
970	 0.123337546261223 
971	 0.120642924080309 
972	 0.120330631226548 
973	 0.122679422561369 
974	 0.127395237924283 
975	 0.131403276920881 
976	 0.131493333001512 
977	 0.129888004440491 
978	 0.127700438565431 
979	 0.126011367326878 
980	 0.128248680189192 
981	 0.132996769637842 
982	 0.131636016911967 
983	 0.129054427338738 
984	 0.128318220239737 
985	 0.129766753288857 
986	 0.132527858943957 
987	 0.135066940209696 
988	 0.129248891110999 
989	 0.12213309921745 
990	 0.130884867550477 
991	 0.132530753138812 
992	 0.125305241593997 
993	 0.128321001640867 
994	 0.131719050360651 
995	 0.1307331213317 
996	 0.128029443949107 
997	 0.127356085498042 
998	 0.131415109339171 
999	 0.129086818342547 
1000	 0.126260456531431 
1001	 0.136272427061332 
1002	 0.135165671466373 
1003	 0.123365686773703 
1004	 0.123764504165453 
1005	 0.126058180773479 
1006	 0.126249192301872 
1007	 0.124666480815044 
1008	 0.127126838584909 
1009	 0.136437900833922 
1010	 0.139168399571642 
1011	 0.1352859344608 
1012	 0.127663732090261 
1013	 0.123522319300242 
1014	 0.125347352717571 
1015	 0.134573169401124 
1016	 0.136848939276239 
1017	 0.130489302597892 
1018	 0.130495151662043 
1019	 0.132351417970341 
1020	 0.134058398600642 
1021	 0.139969751226449 
1022	 0.14211516671547 
1023	 0.134207580631487 
1024	 0.13492226008478 
1025	 0.138195315854151 
1026	 0.12904983309025 
1027	 0.133551642887269 
1028	 0.146853788151934 
1029	 0.133957524052429 
1030	 0.125228976953472 
1031	 0.128825718141752 
1032	 0.128926304811637 
1033	 0.131326897951894 
1034	 0.138384762817876 
1035	 0.141032340076276 
1036	 0.141667149774988 
1037	 0.143065195190822 
1038	 0.13524541719386 
1039	 0.127254903268401 
1040	 0.136778226029581 
1041	 0.142749279488284 
1042	 0.14143249844828 
1043	 0.138501716599665 
1044	 0.135934807569212 
1045	 0.13688346362966 
1046	 0.151361567264039 
1047	 0.143819879480827 
1048	 0.104816238965893 
1049	 0.126003316848934 
1050	 0.153544592287771 
1051	 0.136014400203466 
1052	 0.137567955638042 
1053	 0.147521558303092 
1054	 0.135382557384087 
1055	 0.13719166729098 
1056	 0.156530883220449 
1057	 0.185090557905889 
1058	 0.179876719063166 
1059	 0.142401177164311 
1060	 0.150138582084557 
1061	 0.134877075939466 
1062	 8.29264663348662E-02 
1063	 0.104314541204726 
1064	 0.13692774749494 
1065	 0.13424519636485 
1066	 0.150627582536212 
1067	 0.162363355027823 
1068	 0.142817283915007 
1069	 0.143027870544731 
1070	 0.152358195127482 
1071	 0.13603870667988 
1072	 0.118817177025731 
1073	 0.102997086537103 
1074	 0.075809558420303 
1075	 9.13624384034466E-02 
