Wavelength	A00304.asd
325	 6.08688523187457E-02 
326	 6.09043325411756E-02 
327	 6.75024043183793E-02 
328	 7.09521909035917E-02 
329	 6.90641889822574E-02 
330	 6.31806772550326E-02 
331	 6.40811357258483E-02 
332	 6.73144373827289E-02 
333	 6.78557143667658E-02 
334	 6.80364597488675E-02 
335	 6.87458663832257E-02 
336	 7.16770356143253E-02 
337	 7.18669736928424E-02 
338	 0.069357916462092 
339	 0.072358400230377 
340	 7.33164026669222E-02 
341	 6.71373088154958E-02 
342	 7.10986048925512E-02 
343	 7.94339966493736E-02 
344	 7.73077187289231E-02 
345	 7.30656993997689E-02 
346	 6.95784749928286E-02 
347	 6.83777886824615E-02 
348	 0.068908357000363 
349	 7.04638847797109E-02 
350	 7.15947728241704E-02 
351	 7.18382899004265E-02 
352	 7.08955223880597E-02 
353	 6.95610123643305E-02 
354	 6.90497651846191E-02 
355	 7.30517589333581E-02 
356	 7.46132333779538E-02 
357	 0.070538343312237 
358	 0.070694521185479 
359	 7.32513007707705E-02 
360	 7.37764757536579E-02 
361	 7.10986343359736E-02 
362	 6.73658187445594E-02 
363	 7.07445879135506E-02 
364	 7.32090658433147E-02 
365	 7.11644123398703E-02 
366	 7.13798523652133E-02 
367	 7.20161602387424E-02 
368	 6.97384785557416E-02 
369	 6.84092493103615E-02 
370	 6.87109754624212E-02 
371	 6.98642231850797E-02 
372	 7.00877187086282E-02 
373	 6.87476239551435E-02 
374	 6.90646748794053E-02 
375	 7.03181998752486E-02 
376	 7.10423694541037E-02 
377	 7.12591696072764E-02 
378	 7.07749324391884E-02 
379	 6.89755812989457E-02 
380	 6.80205519210771E-02 
381	 6.87441044117267E-02 
382	 0.068548118224014 
383	 6.80103670510804E-02 
384	 6.82341672582352E-02 
385	 0.070355842203691 
386	 7.29090440481424E-02 
387	 7.10693260603568E-02 
388	 6.90263085432322E-02 
389	 6.85789570433777E-02 
390	 6.79275821156884E-02 
391	 6.77681297851596E-02 
392	 6.90023547831321E-02 
393	 6.95694778288223E-02 
394	 6.93472802301326E-02 
395	 6.94216960615819E-02 
396	 6.93724074195522E-02 
397	 6.90550932027643E-02 
398	 6.86307522584911E-02 
399	 6.79911970359403E-02 
400	 6.70317617343966E-02 
401	 6.70777951989413E-02 
402	 6.79826963451125E-02 
403	 6.89746644573366E-02 
404	 6.94108930255815E-02 
405	 6.91537495386033E-02 
406	 6.93268674464627E-02 
407	 6.96940566613686E-02 
408	 6.98311842376611E-02 
409	 6.93686153578156E-02 
410	 6.87447153843842E-02 
411	 6.95010733838522E-02 
412	 6.98997298149368E-02 
413	 6.92474704403872E-02 
414	 6.87272559936937E-02 
415	 6.86506147393343E-02 
416	 0.069244192930276 
417	 6.92837938716765E-02 
418	 6.88219897146819E-02 
419	 6.90161862273252E-02 
420	 6.92120040048101E-02 
421	 6.91317045537282E-02 
422	 6.94741481937378E-02 
423	 6.98586780259458E-02 
424	 6.96345105408562E-02 
425	 6.96509201757163E-02 
426	 7.00246672698929E-02 
427	 7.03891458844832E-02 
428	 7.04765079690366E-02 
429	 0.07017172187932 
430	 7.00653976441326E-02 
431	 7.01528007691886E-02 
432	 7.03029283150709E-02 
433	 6.99475928860943E-02 
434	 6.92908899642665E-02 
435	 6.96475714081654E-02 
436	 6.98189306355517E-02 
437	 6.91621566517141E-02 
438	 6.96018567202854E-02 
439	 7.05345648463541E-02 
440	 7.03853355893965E-02 
441	 7.00549644148517E-02 
442	 6.98506387524093E-02 
443	 6.98605537149853E-02 
444	 7.00410321203609E-02 
445	 7.03467024495908E-02 
446	 7.08239638801179E-02 
447	 0.071201245673921 
448	 7.08984085910763E-02 
449	 7.04806233532284E-02 
450	 0.070252710597968 
451	 7.05833037121824E-02 
452	 7.09972548664456E-02 
453	 7.10230718684729E-02 
454	 7.12092593890533E-02 
455	 7.14782635021684E-02 
456	 7.13635794221573E-02 
457	 7.10138302154416E-02 
458	 7.06578702826885E-02 
459	 7.11805829676383E-02 
460	 7.18563667662179E-02 
461	 7.17590630882945E-02 
462	 7.16676827594021E-02 
463	 7.15780846391373E-02 
464	 7.08170032608412E-02 
465	 7.05603860126659E-02 
466	 7.13070615674025E-02 
467	 7.18346693589305E-02 
468	 7.20038286833903E-02 
469	 7.18469420054701E-02 
470	 0.071625478454259 
471	 7.14835383105245E-02 
472	 7.15172274729694E-02 
473	 7.18227005567738E-02 
474	 7.23458188610182E-02 
475	 7.21593161496799E-02 
476	 0.071709691144356 
477	 7.20208856442389E-02 
478	 7.19316263323364E-02 
479	 7.13937758456964E-02 
480	 7.15954376200093E-02 
481	 7.20971994668662E-02 
482	 7.24614972264554E-02 
483	 7.20907145300899E-02 
484	 7.15233558453947E-02 
485	 7.23874785738542E-02 
486	 7.27217288609548E-02 
487	 7.20733900259292E-02 
488	 7.21707044346619E-02 
489	 7.24299906568634E-02 
490	 7.21708676319349E-02 
491	 7.18335999798457E-02 
492	 7.17149524955083E-02 
493	 7.24111070571931E-02 
494	 7.29548519209944E-02 
495	 7.29530768278788E-02 
496	 7.29580003607529E-02 
497	 7.29577987526206E-02 
498	 7.28684895482454E-02 
499	 7.30051018061225E-02 
500	 0.073376438396072 
501	 7.37395012959748E-02 
502	 7.40066813900043E-02 
503	 7.41499657265831E-02 
504	 7.44276837057187E-02 
505	 7.48288175137337E-02 
506	 7.52685916380843E-02 
507	 0.075787822411847 
508	 7.63817702750552E-02 
509	 7.70388505366657E-02 
510	 7.75546953093738E-02 
511	 7.77920170567969E-02 
512	 7.80818997054365E-02 
513	 7.85085592961592E-02 
514	 7.91206084724242E-02 
515	 7.97401105939788E-02 
516	 8.03056194587829E-02 
517	 8.08692662072209E-02 
518	 8.16281279056008E-02 
519	 8.27449490398715E-02 
520	 8.34395045957125E-02 
521	 8.38605498216179E-02 
522	 8.48711771730562E-02 
523	 8.59135676830915E-02 
524	 8.67409796808128E-02 
525	 8.74811967384593E-02 
526	 8.81554352823701E-02 
527	 8.87693665510817E-02 
528	 8.95202554971531E-02 
529	 9.03074425819679E-02 
530	 9.06074726969177E-02 
531	 9.09544254903924E-02 
532	 9.16972853379326E-02 
533	 9.25430141668597E-02 
534	 9.32786115719019E-02 
535	 9.35853601652263E-02 
536	 9.38940842568372E-02 
537	 9.43380006519491E-02 
538	 0.094797217964864 
539	 9.52268745737326E-02 
540	 0.095575442721171 
541	 9.56714308705027E-02 
542	 9.56765873356605E-02 
543	 9.60519818780144E-02 
544	 9.66500518812232E-02 
545	 9.73357262594964E-02 
546	 9.77126557981374E-02 
547	 9.78805627151513E-02 
548	 9.80241688614544E-02 
549	 9.81460028621552E-02 
550	 9.83513548155465E-02 
551	 9.89432058300685E-02 
552	 9.95201675042857E-02 
553	 9.98185630083422E-02 
554	 9.99869872928649E-02 
555	 0.100081147289058 
556	 0.100166652021224 
557	 0.100188042974032 
558	 0.10018690139767 
559	 0.10043842763857 
560	 0.100552598896611 
561	 0.100204059251547 
562	 0.100109191246661 
563	 0.100204898036633 
564	 9.99837133565258E-02 
565	 9.96164072270013E-02 
566	 9.91931217843101E-02 
567	 9.89008352909694E-02 
568	 9.85127668732574E-02 
569	 9.77228121755047E-02 
570	 9.74822287964965E-02 
571	 9.77229223294623E-02 
572	 9.73576775726928E-02 
573	 9.69520942645188E-02 
574	 9.68446130880847E-02 
575	 9.69323166710255E-02 
576	 9.68575713313889E-02 
577	 9.59824857613271E-02 
578	 9.53294021906418E-02 
579	 9.51326858016404E-02 
580	 9.47717057963897E-02 
581	 9.44836333419115E-02 
582	 9.44768988183918E-02 
583	 9.45044120680336E-02 
584	 9.44282938317197E-02 
585	 0.09401810085567 
586	 9.36619108739365E-02 
587	 9.34923324693608E-02 
588	 9.32072749735229E-02 
589	 9.29130965573296E-02 
590	 9.27873059449094E-02 
591	 9.26410423029897E-02 
592	 9.24401592267635E-02 
593	 9.21861468140294E-02 
594	 9.21434665058245E-02 
595	 9.24027522543127E-02 
596	 9.23486972617859E-02 
597	 9.20932346334558E-02 
598	 9.19851510000805E-02 
599	 9.18690695397535E-02 
600	 9.17083151781592E-02 
601	 9.15276946903632E-02 
602	 9.13052862754014E-02 
603	 9.10362396228034E-02 
604	 9.08898575380292E-02 
605	 9.08416898834077E-02 
606	 9.07707763397334E-02 
607	 9.06066217810954E-02 
608	 9.03312994454501E-02 
609	 9.01231758029053E-02 
610	 8.97980620759616E-02 
611	 8.91151311926688E-02 
612	 8.89698429882122E-02 
613	 8.92651300120341E-02 
614	 8.89273801981951E-02 
615	 8.84080175396111E-02 
616	 8.80284795067768E-02 
617	 8.80540440080421E-02 
618	 8.81360135158535E-02 
619	 8.75895257426042E-02 
620	 8.72457609760935E-02 
621	 8.72756896372422E-02 
622	 8.73026118918804E-02 
623	 8.71191851775696E-02 
624	 8.66015724822156E-02 
625	 8.65481749558891E-02 
626	 8.68214633221189E-02 
627	 8.66553901384781E-02 
628	 8.65012493479984E-02 
629	 0.086505540247668 
630	 8.64772291983385E-02 
631	 8.64537594847019E-02 
632	 8.64983437228047E-02 
633	 8.66812080987165E-02 
634	 8.67855436172083E-02 
635	 8.60574344578264E-02 
636	 8.54061452259113E-02 
637	 8.53330289436259E-02 
638	 8.51461632072032E-02 
639	 8.47095663667912E-02 
640	 8.39340399245748E-02 
641	 8.33504621832189E-02 
642	 8.30273858421827E-02 
643	 0.082333495226558 
644	 8.18196293380566E-02 
645	 8.19130219512062E-02 
646	 8.14336041680639E-02 
647	 8.04816059991736E-02 
648	 7.99041256052328E-02 
649	 7.94454469618803E-02 
650	 7.90677352920889E-02 
651	 7.89292849139873E-02 
652	 7.88817503334086E-02 
653	 7.87398523226064E-02 
654	 7.89166262426546E-02 
655	 7.91668135000495E-02 
656	 7.82281123276394E-02 
657	 7.75912625569535E-02 
658	 0.07798564893383 
659	 7.76862300351869E-02 
660	 7.70433008166605E-02 
661	 7.69651292666021E-02 
662	 7.64102336063306E-02 
663	 7.53210832142226E-02 
664	 7.46243186141861E-02 
665	 7.45033739535053E-02 
666	 7.49978114382481E-02 
667	 7.50009193742341E-02 
668	 7.46577020771119E-02 
669	 0.074954470472794 
670	 7.47417380255941E-02 
671	 7.38551942322866E-02 
672	 7.38247608406357E-02 
673	 7.41341504831103E-02 
674	 7.40583278068213E-02 
675	 7.39795201900974E-02 
676	 7.39973908513434E-02 
677	 7.42167170579604E-02 
678	 7.42721592286485E-02 
679	 7.40700905081387E-02 
680	 7.44626968768801E-02 
681	 7.51536734239148E-02 
682	 7.55186048093758E-02 
683	 0.075882941938367 
684	 7.63825655601182E-02 
685	 7.71634121037523E-02 
686	 7.83946727834031E-02 
687	 8.01645010626321E-02 
688	 0.081660982375605 
689	 8.29887999414559E-02 
690	 8.50350914560149E-02 
691	 8.72606316857312E-02 
692	 8.95606853090507E-02 
693	 9.19619278622151E-02 
694	 0.094755307456318 
695	 0.098089262711915 
696	 0.10130754881095 
697	 0.104405087193703 
698	 0.107835457653855 
699	 0.1115887605372 
700	 0.115523207133652 
701	 0.119017313840053 
702	 0.122492943089573 
703	 0.12663555874823 
704	 0.13036185674551 
705	 0.133617640321074 
706	 0.137018589463618 
707	 0.140525533715952 
708	 0.144060118049913 
709	 0.147127304338185 
710	 0.150075805730989 
711	 0.153726418191541 
712	 0.157143960696605 
713	 0.160034140516296 
714	 0.162579155740617 
715	 0.165116298542245 
716	 0.168074912444909 
717	 0.170630557548453 
718	 0.173017610133724 
719	 0.176308136034531 
720	 0.178803049463214 
721	 0.180081228850272 
722	 0.181550103196173 
723	 0.183221992700111 
724	 0.18488289695157 
725	 0.186792333322564 
726	 0.188756994615712 
727	 0.190575841340438 
728	 0.191832617527902 
729	 0.192467062757484 
730	 0.193599452486923 
731	 0.195078649754606 
732	 0.196515214309215 
733	 0.197354324201606 
734	 0.197762970619053 
735	 0.198649599272193 
736	 0.199801190353663 
737	 0.200976105348893 
738	 0.20167832431298 
739	 0.201993665014668 
740	 0.202202664905867 
741	 0.20256204898431 
742	 0.203137840342823 
743	 0.20373113323706 
744	 0.204261159209502 
745	 0.204694640701906 
746	 0.205424018549128 
747	 0.206178395194002 
748	 0.206147412160892 
749	 0.206153132069441 
750	 0.206469826806371 
751	 0.206765504229286 
752	 0.207146972387481 
753	 0.207726270447732 
754	 0.208012722968364 
755	 0.208058470533263 
756	 0.208332378655979 
757	 0.208500377990881 
758	 0.208498593717172 
759	 0.208895986807703 
760	 0.210359132242829 
761	 0.212852369652645 
762	 0.213542286101367 
763	 0.212711242602152 
764	 0.21256475841105 
765	 0.212569663146223 
766	 0.21255134413292 
767	 0.212610546494159 
768	 0.21261197498695 
769	 0.21238018860761 
770	 0.212238846465388 
771	 0.212285548394802 
772	 0.212489278139526 
773	 0.212928405862444 
774	 0.21358897437244 
775	 0.213946268775754 
776	 0.214061700858687 
777	 0.214188038037905 
778	 0.214443024647985 
779	 0.21484194749887 
780	 0.215256921237464 
781	 0.21549155373685 
782	 0.215414677944892 
783	 0.215306690302973 
784	 0.215298047577384 
785	 0.215555690609513 
786	 0.215724044311229 
787	 0.215682569861957 
788	 0.215479887348031 
789	 0.21543797921401 
790	 0.215834657228616 
791	 0.216329951847622 
792	 0.216693323606948 
793	 0.216535868000071 
794	 0.216487670595978 
795	 0.216703642965228 
796	 0.216656598268519 
797	 0.216578387730368 
798	 0.216714281834553 
799	 0.216694881502027 
800	 0.216621491168265 
801	 0.216949233331428 
802	 0.217366596782709 
803	 0.217649480726081 
804	 0.217295696046757 
805	 0.217074691776838 
806	 0.217787471674179 
807	 0.217820882672649 
808	 0.217446812726004 
809	 0.218495196910896 
810	 0.219229602198246 
811	 0.219029467286707 
812	 0.219135342102259 
813	 0.219566006075214 
814	 0.22018695523783 
815	 0.220338746501215 
816	 0.220169336098649 
817	 0.220830305064137 
818	 0.220996033664411 
819	 0.220536197089337 
820	 0.222168342246038 
821	 0.223895156717338 
822	 0.223172746887773 
823	 0.222389403370738 
824	 0.222260820091891 
825	 0.223027864091953 
826	 0.224027718972836 
827	 0.224815972583985 
828	 0.224691418177665 
829	 0.224033681372238 
830	 0.223448076176012 
831	 0.223934949768419 
832	 0.225099709547932 
833	 0.225184925454173 
834	 0.224997308393846 
835	 0.22492322008426 
836	 0.225090314550509 
837	 0.225534620010576 
838	 0.226239518369196 
839	 0.226072828157132 
840	 0.225452608049514 
841	 0.226266788793871 
842	 0.227232081529763 
843	 0.227721323678714 
844	 0.22759597910425 
845	 0.227199513624043 
846	 0.226943632484619 
847	 0.226730605297293 
848	 0.226605990164322 
849	 0.226691994700813 
850	 0.226875955448644 
851	 0.22711624768908 
852	 0.227545885013392 
853	 0.227747032847245 
854	 0.227349783611134 
855	 0.227978985867487 
856	 0.229070683317971 
857	 0.22838386858313 
858	 0.228000924681202 
859	 0.228313572762806 
860	 0.22748907604093 
861	 0.226561729087476 
862	 0.22659910346944 
863	 0.227090258731749 
864	 0.227754748300795 
865	 0.228174144441364 
866	 0.228406213731599 
867	 0.228622341075061 
868	 0.229562011100813 
869	 0.230455492759043 
870	 0.230718324483287 
871	 0.23111796239569 
872	 0.231844760470257 
873	 0.233140801587265 
874	 0.232878537930083 
875	 0.231072431550086 
876	 0.230389424014516 
877	 0.231283741646273 
878	 0.233668264636269 
879	 0.23440371298263 
880	 0.234157240201707 
881	 0.234834216123105 
882	 0.233962963936912 
883	 0.232081822097727 
884	 0.233192901166863 
885	 0.234899137893738 
886	 0.235674895917026 
887	 0.23521264893834 
888	 0.234585816061513 
889	 0.235245073099501 
890	 0.236017270998764 
891	 0.236575264267059 
892	 0.236907108704347 
893	 0.236531603797133 
894	 0.235581573416289 
895	 0.236245816461548 
896	 0.237923009865345 
897	 0.239468276385189 
898	 0.238472962026724 
899	 0.23637069011157 
900	 0.238192019829196 
901	 0.238882102557713 
902	 0.237418218306172 
903	 0.236922639428629 
904	 0.237401165222527 
905	 0.238745484183178 
906	 0.240730284174772 
907	 0.24230686867507 
908	 0.241848653816865 
909	 0.239372568458977 
910	 0.23636885166423 
911	 0.237870649928752 
912	 0.240777559911951 
913	 0.242891390480292 
914	 0.243409967729355 
915	 0.242559827114099 
916	 0.240925348582211 
917	 0.241530416458883 
918	 0.242989408359295 
919	 0.239434343057455 
920	 0.238056151391329 
921	 0.240328305279995 
922	 0.23960801228235 
923	 0.238596813214609 
924	 0.239788286456067 
925	 0.23988076270672 
926	 0.238578157136981 
927	 0.236362565332399 
928	 0.236497841147208 
929	 0.239247553931183 
930	 0.238677069864742 
931	 0.237418162589872 
932	 0.23765800950056 
933	 0.238559469618475 
934	 0.237864797127182 
935	 0.23291589927203 
936	 0.231324079864498 
937	 0.233105261363489 
938	 0.233246763587117 
939	 0.23284545856998 
940	 0.232500416202798 
941	 0.234575649755786 
942	 0.233476347862153 
943	 0.226388256857178 
944	 0.226391883241111 
945	 0.231072828491866 
946	 0.233832470482021 
947	 0.23170337266824 
948	 0.227901492120266 
949	 0.236791138289169 
950	 0.238779963753451 
951	 0.228360844103473 
952	 0.22472384418273 
953	 0.226690755967792 
954	 0.23116324875313 
955	 0.232055080638547 
956	 0.229349287391631 
957	 0.22517546180381 
958	 0.22353826492434 
959	 0.22364012783189 
960	 0.217975423408144 
961	 0.216617677593161 
962	 0.22257770646076 
963	 0.224233374146077 
964	 0.223344004875164 
965	 0.222436040790768 
966	 0.219914667142281 
967	 0.217117669972894 
968	 0.216562507166583 
969	 0.218730956226579 
970	 0.222714363047759 
971	 0.22511090005655 
972	 0.22447172561249 
973	 0.221132565974535 
974	 0.221534804358602 
975	 0.225432859310947 
976	 0.231115436550664 
977	 0.229773215761034 
978	 0.223683886475468 
979	 0.221421875516764 
980	 0.222820094091409 
981	 0.226931259984737 
982	 0.230343894249777 
983	 0.231342553019192 
984	 0.229270586578779 
985	 0.226519289538833 
986	 0.225134925076083 
987	 0.226585952773758 
988	 0.224774162771603 
989	 0.222546401371995 
990	 0.227912472384842 
991	 0.230640764393376 
992	 0.229335163368849 
993	 0.230631280607833 
994	 0.232005420970117 
995	 0.231337206286633 
996	 0.223580415578041 
997	 0.217843374997734 
998	 0.222799276661953 
999	 0.227170135145624 
1000	 0.229707160693642 
1001	 0.23194337468537 
1002	 0.2288890622464 
1003	 0.223631441730906 
1004	 0.230576339442776 
1005	 0.235412343517363 
1006	 0.23275030469011 
1007	 0.226821683815703 
1008	 0.226902867801497 
1009	 0.237514746311338 
1010	 0.235747922141431 
1011	 0.229489529052976 
1012	 0.233442720889001 
1013	 0.235631872757928 
1014	 0.234864085608136 
1015	 0.234518732644348 
1016	 0.234824313522398 
1017	 0.235859435970257 
1018	 0.237271360506622 
1019	 0.236605710262421 
1020	 0.233731620256942 
1021	 0.237008017767386 
1022	 0.239823460263706 
1023	 0.236232181738854 
1024	 0.241900264901198 
1025	 0.24642377061088 
1026	 0.229064999109901 
1027	 0.228404222840709 
1028	 0.243178308852346 
1029	 0.238570339639265 
1030	 0.23338722402523 
1031	 0.234061101593795 
1032	 0.240222373705456 
1033	 0.243237321810697 
1034	 0.23922178006212 
1035	 0.244037241932719 
1036	 0.243527803640565 
1037	 0.224976549623609 
1038	 0.233270599042917 
1039	 0.256774135961337 
1040	 0.261123481221294 
1041	 0.250196745142052 
1042	 0.236920166894895 
1043	 0.256227329259842 
1044	 0.26153508120892 
1045	 0.243438649281177 
1046	 0.244631848221024 
1047	 0.23927408712878 
1048	 0.21876398246198 
1049	 0.236417510273212 
1050	 0.253797425425585 
1051	 0.235625368022094 
1052	 0.224687254159562 
1053	 0.227951413965581 
1054	 0.244159059853466 
1055	 0.252771560658276 
1056	 0.249962810316832 
1057	 0.239774448072046 
1058	 0.241605425369654 
1059	 0.253377945841065 
1060	 0.239639813221744 
1061	 0.213033893812747 
1062	 0.187058303560474 
1063	 0.212061660810401 
1064	 0.247693606665259 
1065	 0.260067054952301 
1066	 0.260361110664835 
1067	 0.252521226595389 
1068	 0.240157733641153 
1069	 0.23247375666186 
1070	 0.225653932507969 
1071	 0.209880929138256 
1072	 0.214661463177548 
1073	 0.231634937625929 
1074	 0.223312171269574 
1075	 0.226338656373405 
