Wavelength	A00372.asd
325	 2.63757531473545E-02 
326	 3.24330152157198E-02 
327	 4.40272160606283E-02 
328	 4.62495941728539E-02 
329	 4.23235437381689E-02 
330	 3.57403032938704E-02 
331	 3.63976949618047E-02 
332	 3.95423145427671E-02 
333	 4.00191537101721E-02 
334	 4.36414887429179E-02 
335	 0.047849467108181 
336	 4.48733449629609E-02 
337	 4.25530442370548E-02 
338	 4.29391569795371E-02 
339	 4.29496885107563E-02 
340	 4.27440001095245E-02 
341	 4.25353957561665E-02 
342	 4.16533726702394E-02 
343	 0.041326576494754 
344	 4.43096813678179E-02 
345	 4.37461234112948E-02 
346	 4.02776435264928E-02 
347	 0.04404898962256 
348	 4.74491409402776E-02 
349	 4.56849504300898E-02 
350	 4.44781286890497E-02 
351	 4.32904879109218E-02 
352	 3.99087868611024E-02 
353	 3.81019645815966E-02 
354	 3.86909310782099E-02 
355	 0.040916192238615 
356	 4.22745250799843E-02 
357	 4.16557131595607E-02 
358	 4.32037717636823E-02 
359	 4.50895567604743E-02 
360	 4.39289106482711E-02 
361	 0.042482590280752 
362	 4.20125737498791E-02 
363	 4.44984901124298E-02 
364	 4.48974469108204E-02 
365	 4.15241952828059E-02 
366	 4.19562789106382E-02 
367	 0.044292387631504 
368	 4.49890793235788E-02 
369	 4.49937091725429E-02 
370	 4.44667613080376E-02 
371	 4.31831484417178E-02 
372	 4.31948438513549E-02 
373	 4.51870111513918E-02 
374	 4.53748178912422E-02 
375	 4.46322187818012E-02 
376	 4.47245533425477E-02 
377	 4.42630186009069E-02 
378	 0.043274668770537 
379	 4.26050326697728E-02 
380	 4.30045268972803E-02 
381	 4.44533193020393E-02 
382	 4.41883229702535E-02 
383	 4.34129514552912E-02 
384	 0.044046305989018 
385	 4.43327048365614E-02 
386	 4.38642514933895E-02 
387	 4.26554747686022E-02 
388	 4.19751566190043E-02 
389	 4.22905039505262E-02 
390	 4.24612500237925E-02 
391	 4.28774429987578E-02 
392	 4.40799121564772E-02 
393	 0.044485236598444 
394	 4.40442162242737E-02 
395	 4.37027581718977E-02 
396	 4.32087236691935E-02 
397	 4.25595603867595E-02 
398	 4.21863736537228E-02 
399	 4.16293484968186E-02 
400	 4.04367706322838E-02 
401	 0.040720644646329 
402	 4.22824474356929E-02 
403	 4.40906856556132E-02 
404	 4.44630356163146E-02 
405	 4.31475909623936E-02 
406	 4.34786884363982E-02 
407	 4.45871451244091E-02 
408	 0.045015447534985 
409	 4.42620013770513E-02 
410	 4.30001426518727E-02 
411	 4.34356629738421E-02 
412	 4.41341929187618E-02 
413	 4.43358890165611E-02 
414	 4.39191362324591E-02 
415	 4.33767198790473E-02 
416	 4.33408055958015E-02 
417	 4.36771953335818E-02 
418	 4.41476155396683E-02 
419	 4.41352521471765E-02 
420	 4.40313549752385E-02 
421	 4.40965339277013E-02 
422	 4.45903362919686E-02 
423	 4.50351482617587E-02 
424	 4.47121224547393E-02 
425	 4.45547978231171E-02 
426	 4.48441719774521E-02 
427	 4.57077791347552E-02 
428	 4.62167296637531E-02 
429	 4.58190895491433E-02 
430	 4.53510577177767E-02 
431	 4.51280821902873E-02 
432	 4.54704403249261E-02 
433	 4.53185886380076E-02 
434	 0.044763316099668 
435	 4.52323117751789E-02 
436	 4.56327709050929E-02 
437	 4.53395127493183E-02 
438	 4.58433690673907E-02 
439	 4.64325228298845E-02 
440	 4.53339940375473E-02 
441	 0.045158163194374 
442	 4.62642949852203E-02 
443	 4.66439921608521E-02 
444	 0.046530317155597 
445	 4.62262087608804E-02 
446	 4.63575694741919E-02 
447	 4.66994572283214E-02 
448	 4.64123308015536E-02 
449	 4.66059745026104E-02 
450	 4.74233075721826E-02 
451	 4.76439959184097E-02 
452	 4.76329791033807E-02 
453	 4.78037096662864E-02 
454	 4.77269214664014E-02 
455	 4.75029160020986E-02 
456	 4.76134017873977E-02 
457	 4.76406947749193E-02 
458	 4.75413910489147E-02 
459	 4.81257463991386E-02 
460	 4.86325674458195E-02 
461	 4.81285845061136E-02 
462	 4.81486482516284E-02 
463	 4.85891170343134E-02 
464	 0.047929176422716 
465	 4.75572853980285E-02 
466	 4.81087295690674E-02 
467	 4.86219174669334E-02 
468	 0.048809306101077 
469	 4.84338633503958E-02 
470	 4.82538996615492E-02 
471	 4.84794290972481E-02 
472	 4.90324776398998E-02 
473	 4.94803544724675E-02 
474	 4.95270109360509E-02 
475	 4.92495642743045E-02 
476	 4.89212508263187E-02 
477	 4.89908454629751E-02 
478	 4.88862930759816E-02 
479	 4.86026431871817E-02 
480	 4.87887138616875E-02 
481	 0.049199264419788 
482	 0.049597251441526 
483	 4.97762686891525E-02 
484	 4.98006005317837E-02 
485	 4.99651620619376E-02 
486	 4.98516403129967E-02 
487	 4.95019908902269E-02 
488	 4.99534742942681E-02 
489	 0.050350346175191 
490	 4.98156570479295E-02 
491	 4.92577053387015E-02 
492	 0.049108812719248 
493	 5.00797114069981E-02 
494	 5.07035430204708E-02 
495	 5.04314028063053E-02 
496	 5.03996735087977E-02 
497	 5.04257946097308E-02 
498	 5.01333039987016E-02 
499	 5.03477007464948E-02 
500	 5.09714692592075E-02 
501	 5.09686760221092E-02 
502	 5.08829242857687E-02 
503	 5.10439096369257E-02 
504	 5.13089625180305E-02 
505	 5.15618880295886E-02 
506	 5.16530057813694E-02 
507	 5.15293372374538E-02 
508	 5.13832877015366E-02 
509	 0.052002152407147 
510	 5.27171697805327E-02 
511	 5.29741623870369E-02 
512	 5.30041118246515E-02 
513	 5.29855948838234E-02 
514	 0.05323135579496 
515	 5.35675382218068E-02 
516	 0.053857529119177 
517	 0.053691488743039 
518	 5.36444689453113E-02 
519	 5.43129593183362E-02 
520	 5.44673901556685E-02 
521	 5.42705004657767E-02 
522	 5.48446625379043E-02 
523	 5.55143835688919E-02 
524	 5.59768831647998E-02 
525	 5.64341023077327E-02 
526	 5.66695112733539E-02 
527	 5.63529044521257E-02 
528	 5.64130709950419E-02 
529	 5.68937203755314E-02 
530	 5.70008675229671E-02 
531	 5.71557912850509E-02 
532	 5.76083244503891E-02 
533	 5.79425025964635E-02 
534	 5.81244653522906E-02 
535	 5.82050966336406E-02 
536	 5.83437025411196E-02 
537	 5.85930050467769E-02 
538	 5.88925138122211E-02 
539	 5.91484068184959E-02 
540	 5.92822162045206E-02 
541	 5.95661706219219E-02 
542	 5.98332972024326E-02 
543	 5.94366927595964E-02 
544	 5.93393616450557E-02 
545	 5.98790216052245E-02 
546	 6.03902700423211E-02 
547	 6.06668366776797E-02 
548	 6.05352485364557E-02 
549	 6.05175795374445E-02 
550	 0.060756266760547 
551	 6.12066448742386E-02 
552	 6.16530373882058E-02 
553	 6.19247487535361E-02 
554	 6.19187657479652E-02 
555	 6.17639235131383E-02 
556	 0.061694549840627 
557	 6.18852857466067E-02 
558	 6.22713800979049E-02 
559	 6.22174835003946E-02 
560	 0.062156394907066 
561	 0.062488716001075 
562	 6.27740470305931E-02 
563	 6.29380502133891E-02 
564	 6.30364118474993E-02 
565	 6.29816849041008E-02 
566	 0.06281436492781 
567	 6.29957550726123E-02 
568	 6.31700376147078E-02 
569	 6.28399133459615E-02 
570	 6.28004322945487E-02 
571	 6.31579946902921E-02 
572	 6.36055448047981E-02 
573	 6.37695120282409E-02 
574	 0.063488950766026 
575	 6.35233971379772E-02 
576	 6.38285407963075E-02 
577	 6.41484922997808E-02 
578	 6.40734350802822E-02 
579	 6.36177013331058E-02 
580	 6.34927937062007E-02 
581	 6.35758145580285E-02 
582	 6.37243974191163E-02 
583	 6.38860952231829E-02 
584	 6.40156898926537E-02 
585	 6.40443585986142E-02 
586	 6.41140188745348E-02 
587	 6.42620526574041E-02 
588	 6.43623004415032E-02 
589	 6.42764172707416E-02 
590	 6.38563630171545E-02 
591	 6.36504364393473E-02 
592	 6.37693096269481E-02 
593	 6.40877740218379E-02 
594	 6.42790871908775E-02 
595	 6.41889757355439E-02 
596	 6.43323892488279E-02 
597	 6.46095918917956E-02 
598	 6.47366119789597E-02 
599	 6.47239394254099E-02 
600	 6.45772499951225E-02 
601	 6.42964226056922E-02 
602	 6.42482521289792E-02 
603	 0.064697975479098 
604	 6.48071211524105E-02 
605	 6.46199232918299E-02 
606	 0.064649412777632 
607	 6.47468140267063E-02 
608	 6.48164629350448E-02 
609	 6.45752478375386E-02 
610	 6.42748663500663E-02 
611	 6.42585155547827E-02 
612	 6.43475231216456E-02 
613	 6.44236631721247E-02 
614	 6.42415225542082E-02 
615	 6.41009850650091E-02 
616	 6.41617654629672E-02 
617	 6.41013037813117E-02 
618	 6.39669562740186E-02 
619	 0.063915615618226 
620	 6.38497858964729E-02 
621	 0.063783093257807 
622	 6.39384682306309E-02 
623	 6.38933001377149E-02 
624	 6.33337409351441E-02 
625	 6.34275974960679E-02 
626	 6.39593670191211E-02 
627	 6.37797627708774E-02 
628	 6.36560033458526E-02 
629	 6.38210782810743E-02 
630	 6.38105555489053E-02 
631	 6.37771246763676E-02 
632	 6.39521197962379E-02 
633	 6.43326589035158E-02 
634	 6.47164957495631E-02 
635	 0.064491037379164 
636	 0.064173937819395 
637	 6.40775779165765E-02 
638	 6.39669007426468E-02 
639	 6.39413309329325E-02 
640	 6.42226065722582E-02 
641	 6.45529696395277E-02 
642	 6.47509563038474E-02 
643	 6.44465183293721E-02 
644	 6.42970727172136E-02 
645	 6.48318160672324E-02 
646	 6.49692882211328E-02 
647	 6.46930268929675E-02 
648	 6.45440378881226E-02 
649	 6.42510790553612E-02 
650	 6.38079132217153E-02 
651	 0.063562827192973 
652	 6.37377626425507E-02 
653	 6.45395950402494E-02 
654	 6.45735052249859E-02 
655	 6.37541275963045E-02 
656	 6.31979944480306E-02 
657	 6.27945453500187E-02 
658	 0.062496430911413 
659	 6.21933449274111E-02 
660	 6.19610198099612E-02 
661	 6.19916920040323E-02 
662	 6.16288289805203E-02 
663	 6.08877001363069E-02 
664	 6.07228364784584E-02 
665	 6.06082793666165E-02 
666	 6.00889772457397E-02 
667	 5.94279156556138E-02 
668	 5.88366108587222E-02 
669	 5.87241218532553E-02 
670	 5.84822733398511E-02 
671	 0.05809012017895 
672	 5.88323505970252E-02 
673	 5.95443817255753E-02 
674	 5.88403144060166E-02 
675	 5.83666773844157E-02 
676	 5.84147015157589E-02 
677	 5.86098980746185E-02 
678	 5.89501859627221E-02 
679	 5.93692972037788E-02 
680	 5.95578961209473E-02 
681	 5.96098114714191E-02 
682	 5.97064135808982E-02 
683	 6.04285530681563E-02 
684	 6.16105245705494E-02 
685	 6.19412695855762E-02 
686	 6.20818124727128E-02 
687	 0.06263648444324 
688	 6.34683254245468E-02 
689	 6.44827166995628E-02 
690	 6.57115668106273E-02 
691	 6.66694505322078E-02 
692	 0.067389393898553 
693	 0.068796648690412 
694	 7.03129748726503E-02 
695	 7.12539361052955E-02 
696	 7.24814808324625E-02 
697	 7.39304159008963E-02 
698	 7.50206292087107E-02 
699	 7.59943951496367E-02 
700	 7.69100370676195E-02 
701	 0.077483671112755 
702	 7.82458936106426E-02 
703	 7.99459889588049E-02 
704	 8.08388135603594E-02 
705	 8.09017371813909E-02 
706	 8.15732389911311E-02 
707	 8.24726734415082E-02 
708	 8.33211800392953E-02 
709	 8.38859511175562E-02 
710	 8.43891551620905E-02 
711	 8.53265518509644E-02 
712	 8.61742710889121E-02 
713	 8.67703299187759E-02 
714	 8.72414377335091E-02 
715	 8.75345873102982E-02 
716	 0.087647583690161 
717	 0.088275485400725 
718	 8.93460090929355E-02 
719	 8.99794232999186E-02 
720	 9.01089632489329E-02 
721	 8.99396195160861E-02 
722	 9.04421241178952E-02 
723	 9.09356541996523E-02 
724	 9.05742510022203E-02 
725	 9.07383482844659E-02 
726	 0.091547745831466 
727	 9.23640545756151E-02 
728	 9.30273703550608E-02 
729	 9.33706236353381E-02 
730	 9.31085064133814E-02 
731	 9.27861620325217E-02 
732	 9.31545528835923E-02 
733	 9.34910938307977E-02 
734	 9.37382133268695E-02 
735	 9.43481666153948E-02 
736	 9.47864555513067E-02 
737	 9.47101404149808E-02 
738	 9.45518718555648E-02 
739	 9.46220482642388E-02 
740	 9.53782187293074E-02 
741	 9.59454058643871E-02 
742	 9.60433172546531E-02 
743	 9.58422588446084E-02 
744	 9.56383797475287E-02 
745	 9.56985900031059E-02 
746	 9.61762727716431E-02 
747	 9.68078087489977E-02 
748	 9.69226059405335E-02 
749	 9.70625736868717E-02 
750	 9.73188156528321E-02 
751	 9.70844707298019E-02 
752	 9.69322203754069E-02 
753	 9.74678440176217E-02 
754	 9.77195558486725E-02 
755	 9.76771223167237E-02 
756	 9.79657297488848E-02 
757	 9.79871745549726E-02 
758	 9.75560203205239E-02 
759	 9.74965631216306E-02 
760	 9.84023938280063E-02 
761	 0.100616786971498 
762	 0.101123415059269 
763	 0.100239820832954 
764	 0.100476810283895 
765	 0.10099723026738 
766	 0.101339429640951 
767	 0.100838222262802 
768	 0.100254319965919 
769	 0.100513657000049 
770	 0.100878227952182 
771	 0.101081966095773 
772	 0.100800223960124 
773	 0.100709169303887 
774	 0.10120483667682 
775	 0.101481229888908 
776	 0.101586208821 
777	 0.101818730409392 
778	 0.102161753834366 
779	 0.102525666152133 
780	 0.102532120239366 
781	 0.102546426076959 
782	 0.102847901304621 
783	 0.103086455623986 
784	 0.103222685717829 
785	 0.103290469427207 
786	 0.103421829016033 
787	 0.103601885790542 
788	 0.103484815078308 
789	 0.10341799996312 
790	 0.103722708421454 
791	 0.104038359876324 
792	 0.104311099330707 
793	 0.104645084329506 
794	 0.104568459587355 
795	 0.104150910595186 
796	 0.104699474733252 
797	 0.105199712373771 
798	 0.104635628855791 
799	 0.10452453614787 
800	 0.104894082403558 
801	 0.104962047572875 
802	 0.105196620847572 
803	 0.105645499515216 
804	 0.105714495746855 
805	 0.105430266411282 
806	 0.104913863881156 
807	 0.104915790984682 
808	 0.105448070460457 
809	 0.106156389559769 
810	 0.10626079475059 
811	 0.105567878355357 
812	 0.105421239645792 
813	 0.105881745373305 
814	 0.106844639401544 
815	 0.107627781410969 
816	 0.108113209510852 
817	 0.108840178047653 
818	 0.108762094461124 
819	 0.107787200292462 
820	 0.107867123770581 
821	 0.108351445518295 
822	 0.108312088130559 
823	 0.108476496366074 
824	 0.108832277388603 
825	 0.108934881360051 
826	 0.108982269427628 
827	 0.109226973511521 
828	 0.110799868334045 
829	 0.111844698339729 
830	 0.110113826768792 
831	 0.109478034389131 
832	 0.110210179306318 
833	 0.110476174171198 
834	 0.110319721858264 
835	 0.109909666454859 
836	 0.110469367247837 
837	 0.111038466626524 
838	 0.110476391595667 
839	 0.110395282153665 
840	 0.110868701005071 
841	 0.111098581755847 
842	 0.111267116014754 
843	 0.111406555661687 
844	 0.111379430613028 
845	 0.111398011854257 
846	 0.1116877886964 
847	 0.111646653793346 
848	 0.11145116055984 
849	 0.112013228860894 
850	 0.112336584484652 
851	 0.112158335919021 
852	 0.112579281654668 
853	 0.112927817817364 
854	 0.112457237905658 
855	 0.112477347967465 
856	 0.112784378680791 
857	 0.112095592996902 
858	 0.112098406199636 
859	 0.112958705270667 
860	 0.112344146721937 
861	 0.111893380135938 
862	 0.113116995186534 
863	 0.113100019709332 
864	 0.112375860347371 
865	 0.113505493445225 
866	 0.11449291048195 
867	 0.114673060025115 
868	 0.114290478358021 
869	 0.114345959154825 
870	 0.115445224408065 
871	 0.115246459838821 
872	 0.114246728350384 
873	 0.11404405581611 
874	 0.114868112471926 
875	 0.116226458533748 
876	 0.115644715953302 
877	 0.115209761639646 
878	 0.116248007387215 
879	 0.116581307266274 
880	 0.116337868089445 
881	 0.116220703135895 
882	 0.115871415056129 
883	 0.115580267451679 
884	 0.116587103142286 
885	 0.117496580603246 
886	 0.117585053332418 
887	 0.11790892224054 
888	 0.118218561433432 
889	 0.118058752068358 
890	 0.118146801651309 
891	 0.118108122143696 
892	 0.116035510880021 
893	 0.11484412426326 
894	 0.115771933848173 
895	 0.116357718403013 
896	 0.117680245350986 
897	 0.120877685507885 
898	 0.120509469311083 
899	 0.117984594514503 
900	 0.119873774530179 
901	 0.121176445042234 
902	 0.120482398221074 
903	 0.119015899603954 
904	 0.118249917782701 
905	 0.119152118260586 
906	 0.119663989264745 
907	 0.120039185134332 
908	 0.121338625435452 
909	 0.121752444188717 
910	 0.121055668270194 
911	 0.120414329967855 
912	 0.120900803800538 
913	 0.12276092991728 
914	 0.123233584512516 
915	 0.123002185579569 
916	 0.123276278821035 
917	 0.12353440860433 
918	 0.123137343517122 
919	 0.120107749061614 
920	 0.120076967665406 
921	 0.123703652337681 
922	 0.123199880873526 
923	 0.121841568112853 
924	 0.122625742379018 
925	 0.120935367967165 
926	 0.118370372274784 
927	 0.120158614558575 
928	 0.121424118588438 
929	 0.120796091483172 
930	 0.120813174866372 
931	 0.120578110308538 
932	 0.119336493685861 
933	 0.116056226819881 
934	 0.117276303244481 
935	 0.13101650512622 
936	 0.130390163828819 
937	 0.118271208563855 
938	 0.118919750691527 
939	 0.12083915053627 
940	 0.121175003278469 
941	 0.123004650346221 
942	 0.122467537806783 
943	 0.117786881581647 
944	 0.119188452878502 
945	 0.12460588820214 
946	 0.128714727719863 
947	 0.128450795402791 
948	 0.125118553098995 
949	 0.126509015614714 
950	 0.125994107834083 
951	 0.122431369693002 
952	 0.125999544623326 
953	 0.128589448127389 
954	 0.123273309051299 
955	 0.123761226205477 
956	 0.126578354012018 
957	 0.121281639172897 
958	 0.123425498326736 
959	 0.130499854458776 
960	 0.119940423636251 
961	 0.115069393796096 
962	 0.124874650692589 
963	 0.132634418348076 
964	 0.133703243402402 
965	 0.12588316635358 
966	 0.121129768587436 
967	 0.120127790371434 
968	 0.119457447964301 
969	 0.118506797979551 
970	 0.118118476217612 
971	 0.122814735114255 
972	 0.126212266691218 
973	 0.125683953461036 
974	 0.128829683741651 
975	 0.13168077881829 
976	 0.129345586352838 
977	 0.126958167684814 
978	 0.12511694852641 
979	 0.122887783204991 
980	 0.121495284170287 
981	 0.121787047932928 
982	 0.12612180686482 
983	 0.126380838409559 
984	 0.120166130453835 
985	 0.121733757253794 
986	 0.128752668146383 
987	 0.136333964857346 
988	 0.131573636192669 
989	 0.122413200383837 
990	 0.129804192811519 
991	 0.13110212449769 
992	 0.124129106974549 
993	 0.125387427035997 
994	 0.127648888723789 
995	 0.127527660627147 
996	 0.127891960097094 
997	 0.127150531304976 
998	 0.124346345661101 
999	 0.128607944009866 
1000	 0.134101410208075 
1001	 0.128375067415737 
1002	 0.125813731719555 
1003	 0.127836262948326 
1004	 0.12578319600399 
1005	 0.125930063495699 
1006	 0.128997037676564 
1007	 0.125322748238633 
1008	 0.123055416704623 
1009	 0.128054909427426 
1010	 0.131163315173313 
1011	 0.130852318496672 
1012	 0.126929971341058 
1013	 0.125883595898708 
1014	 0.127462740091518 
1015	 0.127606816940625 
1016	 0.121011599848388 
1017	 0.113021348065157 
1018	 0.133092842727929 
1019	 0.145473259396846 
1020	 0.133515600879703 
1021	 0.126895447442337 
1022	 0.126619221612538 
1023	 0.130479884259275 
1024	 0.135827469538823 
1025	 0.135100777518753 
1026	 0.117499154916714 
1027	 0.119214505652201 
1028	 0.136431275571789 
1029	 0.128020571556505 
1030	 0.120329272677956 
1031	 0.12125744390102 
1032	 0.12320128495762 
1033	 0.125194531760877 
1034	 0.127023654203563 
1035	 0.133355580167451 
1036	 0.13598533027031 
1037	 0.127734284861482 
1038	 0.129419649919168 
1039	 0.137641886093047 
1040	 0.139680473466333 
1041	 0.137498040532826 
1042	 0.133770831737878 
1043	 0.134758998887201 
1044	 0.135144807856698 
1045	 0.134739620753514 
1046	 0.144314135128423 
1047	 0.133862902414942 
1048	 9.63807503209279E-02 
1049	 0.115884364914621 
1050	 0.141235724884668 
1051	 0.12347780533048 
1052	 0.121323591454348 
1053	 0.125350866873849 
1054	 0.108652314815702 
1055	 0.117210521551294 
1056	 0.144628211679336 
1057	 0.154785671214382 
1058	 0.137505304777872 
1059	 0.104785746357877 
1060	 0.130994444052459 
1061	 0.139723204992875 
1062	 0.111028004964689 
1063	 0.13624574054956 
1064	 0.144245812483703 
1065	 9.68917106062522E-02 
1066	 0.122061810362743 
1067	 0.159977224739627 
1068	 0.138232713145099 
1069	 0.110566018137649 
1070	 9.79493612709946E-02 
1071	 0.117007263371994 
1072	 0.119371472628758 
1073	 0.106721329628607 
1074	 0.111932567246145 
1075	 0.132950943877331 
