Wavelength	A00345.asd
325	 3.70049335268299E-02 
326	 4.72914731498153E-02 
327	 6.18846259909043E-02 
328	 5.36849104865735E-02 
329	 4.79347930709617E-02 
330	 5.16828552313297E-02 
331	 4.82130195411531E-02 
332	 4.60227079710488E-02 
333	 5.37610461654795E-02 
334	 5.93656686448818E-02 
335	 6.09216598383719E-02 
336	 5.92329742517765E-02 
337	 5.69603219388385E-02 
338	 0.05561170541503 
339	 5.66217314434267E-02 
340	 5.73840066809961E-02 
341	 5.60109852115009E-02 
342	 5.58973265371524E-02 
343	 5.79344662492578E-02 
344	 6.37054304407166E-02 
345	 6.18933809395859E-02 
346	 5.34542081242596E-02 
347	 0.054523280451136 
348	 5.67364295214737E-02 
349	 5.47295248052118E-02 
350	 5.53857179278976E-02 
351	 5.65937346732072E-02 
352	 5.36945145434491E-02 
353	 5.26107462908735E-02 
354	 5.42326953707825E-02 
355	 5.63606121838523E-02 
356	 5.63276643477099E-02 
357	 5.33884286115955E-02 
358	 5.50720542025117E-02 
359	 5.78807345402634E-02 
360	 0.055315485418015 
361	 5.37896303445127E-02 
362	 5.45673662830061E-02 
363	 5.64784562627527E-02 
364	 0.057256210015084 
365	 5.60061969345164E-02 
366	 5.56426226689294E-02 
367	 5.51546269786811E-02 
368	 0.052752777065078 
369	 5.33755648306142E-02 
370	 5.63455804102479E-02 
371	 5.55800298826029E-02 
372	 5.40652633794041E-02 
373	 5.35875529298342E-02 
374	 5.44968157136785E-02 
375	 5.59899051486765E-02 
376	 5.69106574111219E-02 
377	 5.66203819661227E-02 
378	 5.54886225264799E-02 
379	 5.53320687886288E-02 
380	 0.054819096051104 
381	 5.37132385863883E-02 
382	 5.46522518179395E-02 
383	 5.68039933937731E-02 
384	 5.87242128829868E-02 
385	 0.058901161391485 
386	 5.72984011989252E-02 
387	 0.054997263298673 
388	 5.39756555910777E-02 
389	 5.47182428753801E-02 
390	 5.38702708532926E-02 
391	 5.34119394527287E-02 
392	 5.58681611741886E-02 
393	 5.69088772418894E-02 
394	 5.63509653977092E-02 
395	 5.66937811816923E-02 
396	 5.60320797491712E-02 
397	 5.42055042515395E-02 
398	 5.44281584820525E-02 
399	 5.50147414742597E-02 
400	 5.41030153535339E-02 
401	 0.053924612874902 
402	 5.45088172297233E-02 
403	 5.50153780040433E-02 
404	 5.52535483468234E-02 
405	 5.52751130638978E-02 
406	 5.61435149330375E-02 
407	 5.68878645220728E-02 
408	 5.62463034473027E-02 
409	 5.55416806089896E-02 
410	 5.51400148447773E-02 
411	 5.50335371577948E-02 
412	 5.53675310045141E-02 
413	 5.60437847367387E-02 
414	 0.056146616699838 
415	 5.59074305203781E-02 
416	 5.57476574371495E-02 
417	 5.55779576891595E-02 
418	 5.54686507532051E-02 
419	 5.56602921250643E-02 
420	 5.57374798646678E-02 
421	 5.55948536608749E-02 
422	 5.62361074602012E-02 
423	 5.70182790931748E-02 
424	 5.68771163922715E-02 
425	 5.67979451947043E-02 
426	 5.70084055230488E-02 
427	 5.74229209339852E-02 
428	 5.74983807977797E-02 
429	 5.70234177669374E-02 
430	 5.73728157450794E-02 
431	 5.80042305840002E-02 
432	 5.77470272866417E-02 
433	 5.70530749181696E-02 
434	 5.63391126098832E-02 
435	 5.65375532872435E-02 
436	 0.056789577378697 
437	 5.66262685213748E-02 
438	 5.74851149173801E-02 
439	 5.84540711383787E-02 
440	 5.74586415276771E-02 
441	 0.057088329851921 
442	 5.78081842516339E-02 
443	 5.80442769722919E-02 
444	 5.79247652459781E-02 
445	 5.76574797697635E-02 
446	 5.79471067738813E-02 
447	 0.058526475549856 
448	 5.85160640066402E-02 
449	 5.85879181159204E-02 
450	 5.88746936144694E-02 
451	 5.88827772021165E-02 
452	 5.89254831259124E-02 
453	 5.93139527879879E-02 
454	 5.95344726057637E-02 
455	 5.95676745138576E-02 
456	 5.96992818267697E-02 
457	 5.95376515079866E-02 
458	 5.91511305990685E-02 
459	 5.99310008042782E-02 
460	 6.05662660665341E-02 
461	 5.94451940402569E-02 
462	 5.91358379213495E-02 
463	 0.059689032294426 
464	 0.059266735185215 
465	 5.91803413942042E-02 
466	 5.99357042568735E-02 
467	 6.01339704341334E-02 
468	 5.99705337224274E-02 
469	 0.059968057685293 
470	 5.99554613790496E-02 
471	 5.99310735322129E-02 
472	 5.99726495296678E-02 
473	 6.00476733288278E-02 
474	 0.060131454454943 
475	 0.060188569991965 
476	 0.060301238433296 
477	 0.060657419151324 
478	 6.04923716778675E-02 
479	 5.99375318429815E-02 
480	 6.05148507235505E-02 
481	 6.11449640149705E-02 
482	 6.09655607624108E-02 
483	 6.08699651123483E-02 
484	 0.060938915147455 
485	 6.10133283600712E-02 
486	 6.09694678771067E-02 
487	 0.060860920684593 
488	 0.061304104468023 
489	 6.15750207278777E-02 
490	 6.09696745107315E-02 
491	 6.05398926704407E-02 
492	 6.06309635156391E-02 
493	 6.16879491057706E-02 
494	 6.21277436009481E-02 
495	 6.14519552516468E-02 
496	 6.14094983487291E-02 
497	 6.17521912811561E-02 
498	 6.19355713540923E-02 
499	 6.24986665551814E-02 
500	 6.32164027698647E-02 
501	 6.29031328298218E-02 
502	 6.28349753785343E-02 
503	 6.36324249640902E-02 
504	 6.36567396379113E-02 
505	 0.063343383552563 
506	 6.37505759520386E-02 
507	 6.42140812463727E-02 
508	 6.45505050018278E-02 
509	 6.47852867942471E-02 
510	 6.50140223839046E-02 
511	 6.53081462300664E-02 
512	 0.065529566376199 
513	 6.57771399022702E-02 
514	 6.63567900033849E-02 
515	 6.68156928313345E-02 
516	 6.70204853052141E-02 
517	 6.72410507475677E-02 
518	 6.75830461472842E-02 
519	 6.81177439285485E-02 
520	 6.84786333058251E-02 
521	 6.87855609321793E-02 
522	 6.96179831190863E-02 
523	 7.03060657950888E-02 
524	 7.06102087544407E-02 
525	 7.11568524576991E-02 
526	 7.17537402063476E-02 
527	 7.20319068153715E-02 
528	 7.24575893797137E-02 
529	 7.30142889980186E-02 
530	 7.32122145006111E-02 
531	 7.34815166379312E-02 
532	 7.40707201496782E-02 
533	 7.44658046809549E-02 
534	 7.46502005897598E-02 
535	 7.47266226039315E-02 
536	 7.49393383487084E-02 
537	 7.53478463653302E-02 
538	 7.57790672586251E-02 
539	 7.61030742518867E-02 
540	 7.62166941403993E-02 
541	 7.64262124615109E-02 
542	 7.67510566628715E-02 
543	 7.70560427631767E-02 
544	 7.74112774382757E-02 
545	 7.78079863943229E-02 
546	 7.80737705272484E-02 
547	 7.81774060890656E-02 
548	 7.81028614196675E-02 
549	 7.80933976290495E-02 
550	 0.078303405179795 
551	 7.90212618638793E-02 
552	 7.95837430180005E-02 
553	 7.95909027933525E-02 
554	 7.95314324854141E-02 
555	 0.079601798211271 
556	 8.00413985129848E-02 
557	 8.03236323783931E-02 
558	 8.03105965625701E-02 
559	 8.02367167259642E-02 
560	 8.03527597947028E-02 
561	 0.080827993065527 
562	 8.08712663511203E-02 
563	 8.05842561162779E-02 
564	 8.06355991838904E-02 
565	 0.080675859302406 
566	 8.05904345648033E-02 
567	 8.05106029728926E-02 
568	 0.080455084510059 
569	 8.04328095920034E-02 
570	 0.080275847959103 
571	 8.01140584494868E-02 
572	 8.05584221234218E-02 
573	 8.08259704650286E-02 
574	 0.080486676506462 
575	 8.02600073197663E-02 
576	 8.01884687886683E-02 
577	 8.01683797413917E-02 
578	 8.00443888198276E-02 
579	 7.98021498549021E-02 
580	 7.96403450111296E-02 
581	 0.07952914254383 
582	 7.94404524788785E-02 
583	 7.94447765059071E-02 
584	 7.95423875338404E-02 
585	 7.97454000495402E-02 
586	 7.98103777709276E-02 
587	 7.96250562235859E-02 
588	 7.92165355341754E-02 
589	 7.89618169103327E-02 
590	 7.93310658154181E-02 
591	 7.90888536315227E-02 
592	 7.83954079791443E-02 
593	 7.87553697642784E-02 
594	 0.079184285553921 
595	 7.91323738293757E-02 
596	 7.90877139699371E-02 
597	 7.92006799645163E-02 
598	 7.96673866058284E-02 
599	 7.96355073066437E-02 
600	 7.90674770919638E-02 
601	 7.91085310209197E-02 
602	 7.91316019915189E-02 
603	 7.86234184888248E-02 
604	 7.88444743751713E-02 
605	 7.94400585597812E-02 
606	 7.89057245110427E-02 
607	 7.86000892993778E-02 
608	 0.078926843515712 
609	 0.078850583604844 
610	 7.85520822345461E-02 
611	 0.078372651708813 
612	 7.82807764485384E-02 
613	 0.07833069491986 
614	 7.87659715619104E-02 
615	 7.88274195663623E-02 
616	 7.81408923877941E-02 
617	 7.77814546973621E-02 
618	 7.77248587486767E-02 
619	 7.76380684880366E-02 
620	 7.76945853436502E-02 
621	 7.78178213504933E-02 
622	 7.75365427564038E-02 
623	 7.71784856675784E-02 
624	 7.70694010146305E-02 
625	 0.077284909624847 
626	 7.76228819748758E-02 
627	 7.75372217998958E-02 
628	 7.74579124779151E-02 
629	 7.74813795018054E-02 
630	 7.70612229018782E-02 
631	 7.68219178706487E-02 
632	 7.75601354321756E-02 
633	 7.80499570040509E-02 
634	 7.79733226950677E-02 
635	 7.73099012033236E-02 
636	 7.69820521502138E-02 
637	 7.74318698532681E-02 
638	 7.73488300961435E-02 
639	 7.67929002268978E-02 
640	 7.61471299662159E-02 
641	 7.60483130516775E-02 
642	 7.64472915007159E-02 
643	 7.60434444845725E-02 
644	 7.56875834043504E-02 
645	 7.60861348887297E-02 
646	 7.58026669867104E-02 
647	 7.50553511795303E-02 
648	 7.51625780792414E-02 
649	 0.075096119558192 
650	 7.45708972867773E-02 
651	 7.43671450056689E-02 
652	 7.42220276369235E-02 
653	 7.37535473610377E-02 
654	 7.38904996799829E-02 
655	 7.44182726293127E-02 
656	 7.37606108019346E-02 
657	 7.29813944689426E-02 
658	 7.27255377141058E-02 
659	 7.24481821408299E-02 
660	 7.21508999799143E-02 
661	 7.19684402133588E-02 
662	 7.13961463530464E-02 
663	 7.05312606382334E-02 
664	 7.04116967013392E-02 
665	 7.04543585941534E-02 
666	 7.01397643222312E-02 
667	 6.96095349295741E-02 
668	 6.90980716078407E-02 
669	 6.91515292240996E-02 
670	 6.90457764736178E-02 
671	 6.86303059235761E-02 
672	 6.86912340799701E-02 
673	 6.88921293764163E-02 
674	 6.87872011361969E-02 
675	 6.86465655683968E-02 
676	 6.86337952287953E-02 
677	 6.90339549300826E-02 
678	 6.95830352139148E-02 
679	 7.00694503640444E-02 
680	 7.01464980933951E-02 
681	 7.00877256792111E-02 
682	 7.03796001786335E-02 
683	 7.08312589903949E-02 
684	 7.14468982616319E-02 
685	 7.24647433377476E-02 
686	 7.35875423301245E-02 
687	 0.074524658301796 
688	 7.54832519098014E-02 
689	 7.65770153632286E-02 
690	 7.81327324241966E-02 
691	 7.98911302114479E-02 
692	 8.17500187993252E-02 
693	 0.083483419147014 
694	 8.53544735618537E-02 
695	 8.75461929932528E-02 
696	 8.95469773532485E-02 
697	 0.09136159156424 
698	 9.33611217286604E-02 
699	 9.53556733650043E-02 
700	 9.72181761239257E-02 
701	 9.89225528095159E-02 
702	 0.100672580632964 
703	 0.10275022403442 
704	 0.104656862653251 
705	 0.106292557462602 
706	 0.107738586152847 
707	 0.109040607221147 
708	 0.110241016789523 
709	 0.111354052159833 
710	 0.112550504786909 
711	 0.114151143028546 
712	 0.115590929723968 
713	 0.116725294784391 
714	 0.117843842957066 
715	 0.118947728281599 
716	 0.120081913430539 
717	 0.121073771242528 
718	 0.121979612179923 
719	 0.123006677678473 
720	 0.123828099905641 
721	 0.124388487446916 
722	 0.125158005601076 
723	 0.125801289389337 
724	 0.125847362708887 
725	 0.1264324564598 
726	 0.127571853861853 
727	 0.128641460922401 
728	 0.129179578877281 
729	 0.129094137620908 
730	 0.129667905149496 
731	 0.130477838469273 
732	 0.130743318123965 
733	 0.131059102534172 
734	 0.131541374167886 
735	 0.132107205994597 
736	 0.132562761267904 
737	 0.132785008291766 
738	 0.133057616297788 
739	 0.133435029050484 
740	 0.133914405522192 
741	 0.134609811269372 
742	 0.13531651307938 
743	 0.135121200875122 
744	 0.134743120177072 
745	 0.134829405672057 
746	 0.135287397005312 
747	 0.135864474223857 
748	 0.135995985440732 
749	 0.136159020919905 
750	 0.136447997156293 
751	 0.136402046683393 
752	 0.136404086249977 
753	 0.136864392284468 
754	 0.137143865780177 
755	 0.137247828966576 
756	 0.13761073459597 
757	 0.137877358762315 
758	 0.137918135661018 
759	 0.137863940870187 
760	 0.138158023294531 
761	 0.139619085673943 
762	 0.140489165635463 
763	 0.140551135980982 
764	 0.140622984703556 
765	 0.140800703475278 
766	 0.141046121884881 
767	 0.140898552869099 
768	 0.140758175175294 
769	 0.141135855295147 
770	 0.141419331657904 
771	 0.141425936217376 
772	 0.141006710369424 
773	 0.140967371391512 
774	 0.141740822917761 
775	 0.142014043735124 
776	 0.142018846549629 
777	 0.142527516275274 
778	 0.143110190813765 
779	 0.143514923527733 
780	 0.143212251864927 
781	 0.143118987340062 
782	 0.143873593826629 
783	 0.143987047431791 
784	 0.14375305711904 
785	 0.144329915681929 
786	 0.144850464806581 
787	 0.145030220692669 
788	 0.1449287266704 
789	 0.144902738727458 
790	 0.145261176507159 
791	 0.145520686537374 
792	 0.145717369979452 
793	 0.146192326236785 
794	 0.146525580770842 
795	 0.146601477867593 
796	 0.146691803023347 
797	 0.146728077054778 
798	 0.146641700570102 
799	 0.146657089806962 
800	 0.146837700475588 
801	 0.147241040895986 
802	 0.147561716275476 
803	 0.147644450238189 
804	 0.147445607750597 
805	 0.147333962274305 
806	 0.147683180990838 
807	 0.147902851111959 
808	 0.148020391899398 
809	 0.14859152639701 
810	 0.148563325144066 
811	 0.147739548321746 
812	 0.14801061643773 
813	 0.148854567995316 
814	 0.149363655769808 
815	 0.149850002760427 
816	 0.150410981319084 
817	 0.151336001630572 
818	 0.15159016286321 
819	 0.150999996357886 
820	 0.151209412411334 
821	 0.151787043078579 
822	 0.152071816581783 
823	 0.152195151491514 
824	 0.152204204717289 
825	 0.152151828407648 
826	 0.152408757000319 
827	 0.153059500861366 
828	 0.153532817575224 
829	 0.153551522884224 
830	 0.152918187081 
831	 0.153548802452706 
832	 0.154992440801037 
833	 0.154660177518414 
834	 0.154520227583461 
835	 0.15523904011452 
836	 0.155520302181158 
837	 0.155521586037127 
838	 0.155540478830326 
839	 0.155574471322325 
840	 0.155542084622565 
841	 0.15505387662195 
842	 0.155228635530457 
843	 0.156290007387662 
844	 0.156512941974391 
845	 0.156256464931775 
846	 0.156110127653804 
847	 0.156403081761226 
848	 0.156807826796147 
849	 0.156031833592518 
850	 0.155820837533174 
851	 0.156695722607332 
852	 0.157080766886141 
853	 0.157152952315948 
854	 0.15725215472454 
855	 0.157755757324426 
856	 0.158067686300759 
857	 0.156248795091776 
858	 0.155975597235878 
859	 0.15786254657489 
860	 0.158024448374294 
861	 0.157571708657723 
862	 0.157763798219077 
863	 0.158240806553998 
864	 0.158861748989731 
865	 0.159445155409288 
866	 0.159525227536497 
867	 0.159202196588483 
868	 0.159777682293895 
869	 0.160406270837031 
870	 0.160417635800377 
871	 0.160664638465506 
872	 0.161059329825316 
873	 0.161182181587058 
874	 0.161320761793739 
875	 0.161442483495625 
876	 0.160955188917682 
877	 0.161046533885206 
878	 0.162329110800909 
879	 0.16246152271219 
880	 0.162159238774349 
881	 0.163119008105726 
882	 0.163574838763934 
883	 0.163199844504634 
884	 0.162464921562313 
885	 0.16232799568148 
886	 0.163282539170338 
887	 0.164517088739039 
888	 0.165438310778647 
889	 0.165448791344204 
890	 0.165656366739817 
891	 0.166111244809195 
892	 0.166172513114532 
893	 0.165518766515093 
894	 0.164316078745984 
895	 0.164510412098708 
896	 0.16586492489328 
897	 0.167678810751042 
898	 0.16721899333998 
899	 0.165882171344257 
900	 0.169009849479885 
901	 0.169267629838533 
902	 0.165717723511173 
903	 0.16533151537937 
904	 0.166508166778447 
905	 0.16774598198114 
906	 0.168888344674275 
907	 0.169441655913528 
908	 0.168708910107796 
909	 0.167593099683144 
910	 0.167054375257698 
911	 0.169356511466189 
912	 0.17125063736118 
913	 0.171126610327833 
914	 0.172199082064826 
915	 0.173311457256979 
916	 0.172703471580089 
917	 0.170942571690364 
918	 0.168886088702482 
919	 0.167940901970018 
920	 0.168972469808059 
921	 0.171417385609989 
922	 0.170917693191135 
923	 0.169811418557288 
924	 0.1703281420769 
925	 0.170721233921487 
926	 0.170940816536405 
927	 0.171525997201011 
928	 0.170720262603949 
929	 0.168418464623312 
930	 0.167717778024432 
931	 0.167630093993186 
932	 0.167136013080334 
933	 0.164127770272314 
934	 0.163594220108587 
935	 0.172418966227004 
936	 0.179067323756546 
937	 0.179894319198922 
938	 0.174503773465938 
939	 0.16700946228517 
940	 0.160801346171911 
941	 0.162337288525297 
942	 0.165806186958883 
943	 0.167112826925965 
944	 0.171387063662585 
945	 0.173965204190632 
946	 0.167039785204098 
947	 0.166180032864491 
948	 0.172007017022033 
949	 0.172264210997189 
950	 0.173058653833451 
951	 0.176457227160977 
952	 0.180524563314339 
953	 0.178664845743117 
954	 0.167158450253717 
955	 0.169219785709492 
956	 0.178597627560125 
957	 0.177224048033743 
958	 0.175716866222701 
959	 0.1746937633731 
960	 0.166135828742107 
961	 0.164559811751218 
962	 0.174400302324483 
963	 0.179560413930299 
964	 0.179514912480349 
965	 0.175534484300921 
966	 0.173356123604725 
967	 0.17354468561408 
968	 0.175029310493064 
969	 0.173148115244551 
970	 0.169055184059404 
971	 0.172738166482783 
972	 0.175199013700073 
973	 0.172840347136674 
974	 0.176768192344596 
975	 0.181310322162331 
976	 0.179326564008666 
977	 0.176480113092857 
978	 0.174332533002917 
979	 0.174037320355735 
980	 0.172222857745067 
981	 0.169441593708708 
982	 0.171421026250375 
983	 0.173697801851735 
984	 0.173896235709202 
985	 0.173543162382957 
986	 0.175922784870618 
987	 0.183335816445439 
988	 0.181224341891006 
989	 0.173644000315508 
990	 0.174036965363976 
991	 0.174746263357958 
992	 0.174321873886437 
993	 0.17536300414263 
994	 0.174951424990124 
995	 0.172236231531319 
996	 0.170935506325021 
997	 0.171837262755768 
998	 0.174890381871703 
999	 0.174020690131006 
1000	 0.172526180977634 
1001	 0.177987918430723 
1002	 0.174592461681867 
1003	 0.1646247391509 
1004	 0.169397485922783 
1005	 0.175982426580065 
1006	 0.177818163716107 
1007	 0.169742257590349 
1008	 0.166640430506994 
1009	 0.177750629974926 
1010	 0.177357980726527 
1011	 0.17111178906603 
1012	 0.17139248529329 
1013	 0.174630735246995 
1014	 0.178622208196463 
1015	 0.180491459785267 
1016	 0.17512986501244 
1017	 0.166839068195362 
1018	 0.180699265973534 
1019	 0.187388200875266 
1020	 0.174027974353423 
1021	 0.169508197819609 
1022	 0.172120810894539 
1023	 0.176821493091191 
1024	 0.177935352577325 
1025	 0.177675597792566 
1026	 0.181552105672815 
1027	 0.184724173687646 
1028	 0.18538724114687 
1029	 0.18186970515364 
1030	 0.18010005007871 
1031	 0.18131713459317 
1032	 0.179664080721428 
1033	 0.178729985663843 
1034	 0.180955383594317 
1035	 0.186675199197283 
1036	 0.187292132458756 
1037	 0.176163968321311 
1038	 0.182220663930549 
1039	 0.196065586553146 
1040	 0.19250590910648 
1041	 0.18069520963837 
1042	 0.171114126782068 
1043	 0.18653152065224 
1044	 0.191962889668165 
1045	 0.180710275033137 
1046	 0.189392806941829 
1047	 0.184688232050306 
1048	 0.154471078959611 
1049	 0.160126323819109 
1050	 0.179857348249163 
1051	 0.188018859318112 
1052	 0.187960600181897 
1053	 0.180100245550971 
1054	 0.166607319788958 
1055	 0.169159237338927 
1056	 0.182738857398774 
1057	 0.183627104989834 
1058	 0.183714226889026 
1059	 0.186808113922384 
1060	 0.195133887299838 
1061	 0.194670781835997 
1062	 0.1843049607964 
1063	 0.196441208096045 
1064	 0.192203583446118 
1065	 0.155781468034859 
1066	 0.184047862011135 
1067	 0.213667265044457 
1068	 0.174796121114763 
1069	 0.17160450097539 
1070	 0.19297928625088 
1071	 0.185188182871886 
1072	 0.181720646289883 
1073	 0.18168476815123 
1074	 0.163764045494624 
1075	 0.166306876170758 
