Wavelength	A00384.asd
325	 3.26263861801552E-02 
326	 3.33129884965311E-02 
327	 3.81607296289157E-02 
328	 0.038047350566469 
329	 3.74728377381164E-02 
330	 3.79025969616065E-02 
331	 3.71487739488299E-02 
332	 3.92151271418749E-02 
333	 4.73695312402522E-02 
334	 4.95645167470229E-02 
335	 4.65884582564621E-02 
336	 4.49818252267849E-02 
337	 4.28281239902005E-02 
338	 4.03689329436129E-02 
339	 0.040402407803523 
340	 3.92353647851266E-02 
341	 3.46265431619351E-02 
342	 3.70116616464931E-02 
343	 4.31824936021855E-02 
344	 4.50491482930662E-02 
345	 4.31630899037125E-02 
346	 3.91737288632389E-02 
347	 0.038731569787713 
348	 4.00830548241461E-02 
349	 4.17027020791847E-02 
350	 4.30596054015721E-02 
351	 0.042582896711643 
352	 3.77845383324239E-02 
353	 3.63638839857578E-02 
354	 0.039364771441075 
355	 4.32014730445209E-02 
356	 0.043869142203468 
357	 0.039944594228623 
358	 3.99282430048202E-02 
359	 4.24150670771601E-02 
360	 4.37413427884366E-02 
361	 4.31164270741937E-02 
362	 4.15024663893994E-02 
363	 4.31272932331391E-02 
364	 4.38650425070163E-02 
365	 4.20007934054075E-02 
366	 4.18217738431179E-02 
367	 4.16299820649583E-02 
368	 3.85805362928198E-02 
369	 3.82435060825789E-02 
370	 4.07181589040837E-02 
371	 0.041886798010803 
372	 4.24713360400461E-02 
373	 4.26825459297179E-02 
374	 4.17621611491354E-02 
375	 4.09829150452376E-02 
376	 4.20654317097692E-02 
377	 4.28539816356842E-02 
378	 4.26937074277856E-02 
379	 4.11368074490079E-02 
380	 4.05819972269143E-02 
381	 4.19683133934031E-02 
382	 4.26167422033234E-02 
383	 4.26414197802542E-02 
384	 4.25626578126609E-02 
385	 4.30973786905458E-02 
386	 4.36783942042583E-02 
387	 4.19249327013089E-02 
388	 4.11560041134445E-02 
389	 0.042400883137721 
390	 4.20636305380901E-02 
391	 4.18522681718525E-02 
392	 4.40047376281959E-02 
393	 4.35204774637671E-02 
394	 4.10460681824284E-02 
395	 4.15114882114432E-02 
396	 4.19826289519509E-02 
397	 4.14351885604857E-02 
398	 4.14655810667427E-02 
399	 4.12989376087818E-02 
400	 4.01130624609228E-02 
401	 0.040247609172815 
402	 4.14690415981566E-02 
403	 4.23238521913198E-02 
404	 4.26174906121379E-02 
405	 0.042377251111845 
406	 4.25728560817078E-02 
407	 0.042773999370287 
408	 4.23535183921859E-02 
409	 4.20260570302108E-02 
410	 4.19540200078341E-02 
411	 4.21086599353338E-02 
412	 0.042227887194975 
413	 4.21988288050615E-02 
414	 4.22555015473479E-02 
415	 4.22286905697479E-02 
416	 4.18780423604149E-02 
417	 4.17144337769346E-02 
418	 4.19652197881228E-02 
419	 4.30620680050734E-02 
420	 4.34793590463157E-02 
421	 4.26378517227327E-02 
422	 4.28333603656027E-02 
423	 4.34983803840746E-02 
424	 0.043422238203392 
425	 4.36995073004299E-02 
426	 4.43848801402879E-02 
427	 4.46738889387313E-02 
428	 4.49894407933332E-02 
429	 4.54891463350201E-02 
430	 4.51929522715183E-02 
431	 4.45333546616094E-02 
432	 4.44371999255876E-02 
433	 4.41394071735324E-02 
434	 4.37163586565855E-02 
435	 4.41135968172669E-02 
436	 4.45388825776076E-02 
437	 4.45065230287173E-02 
438	 4.48108922414032E-02 
439	 4.50772507911269E-02 
440	 4.43569736524051E-02 
441	 4.42739871475365E-02 
442	 4.50322464041735E-02 
443	 4.52543343545164E-02 
444	 4.52538517446318E-02 
445	 4.53332097540497E-02 
446	 4.55263272650878E-02 
447	 4.57554291222795E-02 
448	 0.0458121108989 
449	 4.59180231728979E-02 
450	 4.61122542763554E-02 
451	 0.046161823647767 
452	 4.63364085661769E-02 
453	 4.68746862862433E-02 
454	 4.69869305360116E-02 
455	 4.67310259843554E-02 
456	 0.046691782813562 
457	 4.67869888763498E-02 
458	 4.69991916922151E-02 
459	 4.73362784161045E-02 
460	 4.75263417770728E-02 
461	 4.72687748771339E-02 
462	 4.70409201907709E-02 
463	 4.69460971521113E-02 
464	 4.68901665934439E-02 
465	 4.69211878969426E-02 
466	 4.70591356499731E-02 
467	 4.73081844351409E-02 
468	 4.74484376685017E-02 
469	 4.71692506033052E-02 
470	 4.72897166292915E-02 
471	 4.78035669329743E-02 
472	 4.79079591424756E-02 
473	 0.047843394313322 
474	 4.77548705007815E-02 
475	 4.74503229073584E-02 
476	 4.72887004335002E-02 
477	 4.79582851982356E-02 
478	 4.80185743216908E-02 
479	 4.73925547636281E-02 
480	 4.76414337295183E-02 
481	 0.048145671573796 
482	 4.83677382552592E-02 
483	 4.84329205490808E-02 
484	 4.85129995285311E-02 
485	 4.90636377167518E-02 
486	 4.90913441603754E-02 
487	 4.84922348812762E-02 
488	 4.88495046191293E-02 
489	 0.049217234295601 
490	 4.85922214171633E-02 
491	 4.79708499256359E-02 
492	 4.78057180132965E-02 
493	 4.88299524455656E-02 
494	 4.94740588629102E-02 
495	 0.049148054207056 
496	 4.89943844574247E-02 
497	 4.91214587585188E-02 
498	 4.95196177195449E-02 
499	 4.97218449524011E-02 
500	 0.049694295179979 
501	 4.97969260994431E-02 
502	 0.049900921477853 
503	 4.99327914962019E-02 
504	 4.99056242498681E-02 
505	 4.99601361954439E-02 
506	 5.03343348133236E-02 
507	 5.05000417438436E-02 
508	 5.04499987034466E-02 
509	 5.08415900570108E-02 
510	 5.11635046525742E-02 
511	 5.10415898410643E-02 
512	 5.12080369919003E-02 
513	 0.051553727721668 
514	 5.15101187830282E-02 
515	 5.16128081308315E-02 
516	 5.19455775328078E-02 
517	 5.18459563332633E-02 
518	 0.051799986336224 
519	 5.23368752587337E-02 
520	 5.24502627531917E-02 
521	 5.22714715563285E-02 
522	 5.27225375898517E-02 
523	 5.31736875506596E-02 
524	 5.33810972641001E-02 
525	 5.37791957146304E-02 
526	 5.40865821083268E-02 
527	 5.38481821850916E-02 
528	 5.38161450540748E-02 
529	 5.40937711009206E-02 
530	 0.054293210267406 
531	 5.44640598517327E-02 
532	 0.054643555668176 
533	 5.49171251667916E-02 
534	 5.50903311040748E-02 
535	 5.47047335384881E-02 
536	 5.47952548731333E-02 
537	 5.55093061155694E-02 
538	 5.58341697228708E-02 
539	 5.60135970953635E-02 
540	 5.63027623927353E-02 
541	 0.056128573152877 
542	 5.57424685439864E-02 
543	 5.60292766800902E-02 
544	 0.056570280411578 
545	 5.71003152325435E-02 
546	 0.057167475397745 
547	 5.70167454226996E-02 
548	 5.70252713694983E-02 
549	 5.71279769592451E-02 
550	 5.73611523383192E-02 
551	 5.78752100714831E-02 
552	 5.83288132438779E-02 
553	 5.84738982493286E-02 
554	 5.82164131886269E-02 
555	 0.057923387372876 
556	 5.82905664551165E-02 
557	 5.85454259102025E-02 
558	 5.85567471574056E-02 
559	 5.89640697401901E-02 
560	 5.93402957731038E-02 
561	 5.92875366330581E-02 
562	 5.91336074463741E-02 
563	 5.90607069336244E-02 
564	 5.93752156552005E-02 
565	 5.96441719242053E-02 
566	 5.96731744532609E-02 
567	 5.95408758859329E-02 
568	 0.059372425732949 
569	 5.93165893701006E-02 
570	 5.95183898639402E-02 
571	 5.98745501931713E-02 
572	 5.99228477364714E-02 
573	 5.99028502424162E-02 
574	 5.99985398422528E-02 
575	 6.05034221317793E-02 
576	 6.09445445805588E-02 
577	 6.03751560848555E-02 
578	 6.00001577934562E-02 
579	 6.01289687070921E-02 
580	 6.02311361858842E-02 
581	 0.060346314140911 
582	 0.060523009434055 
583	 6.07927545025276E-02 
584	 6.10486234748149E-02 
585	 6.10401068859399E-02 
586	 6.08466022932466E-02 
587	 6.05789514228218E-02 
588	 6.06831866575296E-02 
589	 6.09242291631488E-02 
590	 0.060934405429798 
591	 6.09004063819914E-02 
592	 6.08169647468436E-02 
593	 6.04663797419934E-02 
594	 6.04064667515437E-02 
595	 6.09063460473626E-02 
596	 6.12619352914116E-02 
597	 6.14332144301535E-02 
598	 0.061563391377825 
599	 6.12946442903507E-02 
600	 6.07875064220541E-02 
601	 6.11586567013281E-02 
602	 6.17127257684883E-02 
603	 6.18041231493324E-02 
604	 0.061861913303244 
605	 6.18799984786299E-02 
606	 6.16192696447597E-02 
607	 6.15372068508572E-02 
608	 6.17709947968921E-02 
609	 6.18885715381333E-02 
610	 6.18625467662551E-02 
611	 0.06171502742637 
612	 6.16574967544932E-02 
613	 6.17013399677111E-02 
614	 6.16795765215022E-02 
615	 6.16195442273118E-02 
616	 6.15490366183805E-02 
617	 6.15594860996822E-02 
618	 6.16134291243218E-02 
619	 6.16126059931722E-02 
620	 6.17577735834804E-02 
621	 6.20182501217567E-02 
622	 6.20141396256659E-02 
623	 0.061920842885264 
624	 6.19026262448749E-02 
625	 6.18066794299135E-02 
626	 6.16738465126799E-02 
627	 6.16312808626531E-02 
628	 6.17916351309766E-02 
629	 6.21178653585661E-02 
630	 6.21097780677288E-02 
631	 6.19269721727709E-02 
632	 6.18282294707885E-02 
633	 6.22132305567622E-02 
634	 6.28297192805413E-02 
635	 0.062552795788508 
636	 6.21372806509602E-02 
637	 6.20557888625865E-02 
638	 0.062225836764294 
639	 6.24064488136733E-02 
640	 6.21560216137598E-02 
641	 6.22520991504619E-02 
642	 6.27712149182179E-02 
643	 6.29406542049495E-02 
644	 0.062996742993604 
645	 6.31411516724929E-02 
646	 0.062904965197437 
647	 6.23891906170317E-02 
648	 6.19708749543833E-02 
649	 6.20708174951903E-02 
650	 0.062704059257151 
651	 6.27903161859482E-02 
652	 6.26858405259795E-02 
653	 6.29239090459341E-02 
654	 6.28933175809243E-02 
655	 6.25329867817489E-02 
656	 6.22077308931963E-02 
657	 0.061791799686964 
658	 6.12972006607875E-02 
659	 6.10976814541897E-02 
660	 0.061133245212657 
661	 6.13036965599351E-02 
662	 6.08611842211272E-02 
663	 5.99129832359882E-02 
664	 5.98859107521115E-02 
665	 6.01998980340099E-02 
666	 6.02964784097061E-02 
667	 0.05998157462219 
668	 5.94402261969057E-02 
669	 5.92742309046041E-02 
670	 5.87863346339891E-02 
671	 5.80270158217062E-02 
672	 0.058688364615079 
673	 5.96081098907785E-02 
674	 0.059343436764199 
675	 5.90225042484692E-02 
676	 5.89030738322364E-02 
677	 5.89284475378608E-02 
678	 5.91340722769061E-02 
679	 5.95107190431102E-02 
680	 5.99113060825018E-02 
681	 6.01624656000221E-02 
682	 6.00063711514605E-02 
683	 6.04211335683496E-02 
684	 6.14515706329874E-02 
685	 0.062119163126296 
686	 6.26242203728893E-02 
687	 6.31288682865766E-02 
688	 6.36577400979203E-02 
689	 6.41809182967062E-02 
690	 6.46604076555288E-02 
691	 6.54870735732373E-02 
692	 6.66880357272195E-02 
693	 6.76574976940243E-02 
694	 6.85484385562319E-02 
695	 6.95038734102894E-02 
696	 7.01497065608034E-02 
697	 7.05612308642343E-02 
698	 7.11147397125422E-02 
699	 7.17512106868425E-02 
700	 7.24139804861234E-02 
701	 7.28841799244902E-02 
702	 7.33540893166522E-02 
703	 7.41249032830099E-02 
704	 0.074477078479699 
705	 0.074523096856972 
706	 7.52975229321413E-02 
707	 7.59089298302577E-02 
708	 7.58445194086119E-02 
709	 7.59572580922731E-02 
710	 0.076397661716971 
711	 7.72342842055096E-02 
712	 7.78208708357105E-02 
713	 7.80233930817658E-02 
714	 7.83478415485479E-02 
715	 7.86579934735899E-02 
716	 7.88340243567558E-02 
717	 7.90991565137939E-02 
718	 7.94439452520866E-02 
719	 7.95995443070172E-02 
720	 7.98880784762234E-02 
721	 8.03177823451041E-02 
722	 8.05090369370369E-02 
723	 8.04948701470247E-02 
724	 8.03107153613523E-02 
725	 8.05894273434312E-02 
726	 8.13949918949698E-02 
727	 8.25989064123609E-02 
728	 8.30226621641374E-02 
729	 8.22707241106314E-02 
730	 8.22498575520456E-02 
731	 8.27154029195786E-02 
732	 8.30075039735677E-02 
733	 8.30936839211686E-02 
734	 8.30341022984244E-02 
735	 8.30302786160113E-02 
736	 8.33757328272815E-02 
737	 8.41607186234938E-02 
738	 8.43825215015696E-02 
739	 8.42399824452513E-02 
740	 8.43602863740537E-02 
741	 0.084729354135524 
742	 8.52544759377326E-02 
743	 8.55560924719209E-02 
744	 8.55238736067214E-02 
745	 8.51518511274945E-02 
746	 0.085388699216535 
747	 8.60062368925067E-02 
748	 8.60295108684378E-02 
749	 8.61148621655234E-02 
750	 8.64128710640203E-02 
751	 8.64990206528346E-02 
752	 8.64716215769284E-02 
753	 8.64730778190404E-02 
754	 8.66067519179762E-02 
755	 8.68850384641262E-02 
756	 8.72597617483521E-02 
757	 8.77286748811137E-02 
758	 8.82521544855632E-02 
759	 8.81601639771217E-02 
760	 8.80006265944187E-02 
761	 8.96020135008496E-02 
762	 9.00189852799444E-02 
763	 8.93264221768253E-02 
764	 8.96113026089119E-02 
765	 9.00180929792799E-02 
766	 9.01949087202015E-02 
767	 9.00400734573701E-02 
768	 0.089961217482472 
769	 9.04672511086925E-02 
770	 9.05374968715563E-02 
771	 9.01635384999361E-02 
772	 9.02570693339458E-02 
773	 9.05426670625442E-02 
774	 9.08208171410566E-02 
775	 9.10493397603281E-02 
776	 9.12581819371642E-02 
777	 9.15325849930977E-02 
778	 9.17904180714386E-02 
779	 9.19332691756214E-02 
780	 9.16291470257812E-02 
781	 9.15436552379125E-02 
782	 9.21357119855971E-02 
783	 0.092304977400004 
784	 9.22299745785481E-02 
785	 9.26992674895338E-02 
786	 9.30858786159545E-02 
787	 9.31913305741896E-02 
788	 9.30714931636514E-02 
789	 9.31054776451677E-02 
790	 9.36224328365997E-02 
791	 9.42319066901144E-02 
792	 9.46812607751053E-02 
793	 9.45943530564128E-02 
794	 9.43059349888798E-02 
795	 9.40455873617349E-02 
796	 9.42015568403891E-02 
797	 9.45059107003894E-02 
798	 9.46633090741545E-02 
799	 0.094763501011533 
800	 9.48804020193575E-02 
801	 9.51773731305502E-02 
802	 0.095520053007399 
803	 9.57692472188453E-02 
804	 9.55092576936433E-02 
805	 9.52547728381948E-02 
806	 9.55721352038989E-02 
807	 9.59691819107357E-02 
808	 9.63137398436747E-02 
809	 9.65672529979804E-02 
810	 9.66465021907784E-02 
811	 9.65792048436852E-02 
812	 9.68247457350998E-02 
813	 0.097019922499131 
814	 9.66635440874376E-02 
815	 9.69014176252606E-02 
816	 9.77874195079672E-02 
817	 9.86030443098409E-02 
818	 9.86745100919214E-02 
819	 9.80060765251322E-02 
820	 9.84372111882115E-02 
821	 9.91442028491222E-02 
822	 9.90118641788339E-02 
823	 9.93326504988631E-02 
824	 9.98552652530839E-02 
825	 9.89903043269657E-02 
826	 9.87028272074591E-02 
827	 9.96768681758074E-02 
828	 0.100685201218016 
829	 0.100809040046589 
830	 9.91984433287308E-02 
831	 9.90026169957292E-02 
832	 0.100149900223122 
833	 0.100219598417589 
834	 0.100367841959807 
835	 0.100943487363412 
836	 0.101265112837952 
837	 0.101217362378206 
838	 0.100771612946811 
839	 0.10096806436125 
840	 0.101645662367423 
841	 0.101560558307282 
842	 0.102029414201545 
843	 0.103240320006945 
844	 0.102953512559382 
845	 0.102175480363837 
846	 0.102219651144283 
847	 0.102234098462438 
848	 0.10209537111554 
849	 0.101787010330626 
850	 0.102270420303331 
851	 0.103534114722329 
852	 0.103024668174529 
853	 0.102088179768663 
854	 0.10237148487682 
855	 0.102849042481095 
856	 0.1032147763286 
857	 0.103283140851444 
858	 0.102934433074648 
859	 0.102330043350879 
860	 0.102303535183161 
861	 0.10303385134438 
862	 0.104476733202661 
863	 0.104346933690644 
864	 0.103360341637828 
865	 0.104289624198133 
866	 0.105101914208051 
867	 0.105073572785617 
868	 0.104108150260508 
869	 0.103898927475511 
870	 0.105547843296028 
871	 0.105819848669372 
872	 0.105139179593513 
873	 0.105276820960282 
874	 0.106332499032803 
875	 0.107781989808439 
876	 0.107302093653652 
877	 0.106417535056323 
878	 0.106240947203492 
879	 0.106031298054586 
880	 0.106231781895135 
881	 0.107720921083426 
882	 0.106894827644714 
883	 0.104373012747333 
884	 0.105993144084877 
885	 0.107631044262855 
886	 0.107132831569274 
887	 0.106910160062194 
888	 0.107349964470622 
889	 0.108589439885121 
890	 0.109093720017643 
891	 0.108820858506184 
892	 0.108912541277307 
893	 0.109100912601916 
894	 0.109394691772512 
895	 0.110475729781858 
896	 0.111123521578037 
897	 0.109964882244441 
898	 0.10925021150436 
899	 0.109710454429507 
900	 0.112053524420725 
901	 0.111802647816144 
902	 0.108839487069437 
903	 0.109739935890467 
904	 0.111773797037267 
905	 0.112521719092419 
906	 0.111577090887062 
907	 0.110388137791506 
908	 0.111687751268581 
909	 0.112498694337393 
910	 0.11228332195939 
911	 0.112377225674436 
912	 0.11334847800223 
913	 0.115212883192006 
914	 0.116017555284923 
915	 0.11541028797529 
916	 0.113408488178273 
917	 0.11365248873915 
918	 0.114873952564719 
919	 0.110947423318565 
920	 0.11029818683511 
921	 0.114306764279836 
922	 0.113701298923583 
923	 0.112153319163244 
924	 0.11320898014841 
925	 0.113960009324643 
926	 0.113858443027561 
927	 0.112671052402792 
928	 0.112219904582297 
929	 0.112542467018233 
930	 0.109631373884418 
931	 0.108871853078702 
932	 0.113731054363966 
933	 0.112361194487013 
934	 0.108112172369105 
935	 0.108912558273099 
936	 0.116915324014228 
937	 0.125715042813088 
938	 0.118252390084254 
939	 0.113345662558202 
940	 0.115934103238755 
941	 0.120129270766703 
942	 0.118143485313054 
943	 0.106514046769455 
944	 0.105801590644867 
945	 0.112199297254772 
946	 0.115119529593214 
947	 0.117119969713491 
948	 0.118548534062025 
949	 0.119966328344063 
950	 0.120112510824123 
951	 0.119162141026903 
952	 0.121647038114358 
953	 0.120856924725676 
954	 0.111989323104047 
955	 0.112770356293386 
956	 0.119517914194629 
957	 0.120519474216178 
958	 0.118623300189753 
959	 0.115744330983872 
960	 0.115897281761313 
961	 0.117088110981465 
962	 0.118100859548218 
963	 0.118460942829081 
964	 0.118188631346987 
965	 0.117530451441691 
966	 0.119223320415963 
967	 0.12123840291621 
968	 0.119028006407445 
969	 0.114538771105604 
970	 0.109855912217164 
971	 0.109785534208193 
972	 0.112946110698583 
973	 0.117595369228762 
974	 0.118714655090918 
975	 0.118941175505797 
976	 0.121466249878325 
977	 0.119852010957296 
978	 0.116394805415063 
979	 0.118501915789828 
980	 0.121349003825447 
981	 0.122662373029655 
982	 0.119770128185732 
983	 0.117191264992487 
984	 0.117217102789946 
985	 0.116196757565692 
986	 0.117254078266111 
987	 0.123216576066466 
988	 0.123054524771686 
989	 0.119149678852241 
990	 0.120537700204028 
991	 0.119469997609439 
992	 0.115976090501144 
993	 0.117630111623835 
994	 0.12121370373476 
995	 0.123993025492066 
996	 0.120750437784229 
997	 0.117634611950564 
998	 0.120380481158325 
999	 0.117820226996352 
1000	 0.113512825915248 
1001	 0.116679224910052 
1002	 0.116114569314266 
1003	 0.112546409176305 
1004	 0.118829022730535 
1005	 0.120979592470586 
1006	 0.114995285692951 
1007	 0.111293147143798 
1008	 0.111428367929366 
1009	 0.115523671216659 
1010	 0.118085788859572 
1011	 0.118321401205474 
1012	 0.11640060257407 
1013	 0.115804865363751 
1014	 0.116909471691076 
1015	 0.118539296469724 
1016	 0.118358082928971 
1017	 0.116785226029474 
1018	 0.119255468749513 
1019	 0.120765613115137 
1020	 0.119298962053236 
1021	 0.121099273258979 
1022	 0.121946859841878 
1023	 0.118071978158694 
1024	 0.11939097507932 
1025	 0.12152583143751 
1026	 0.114764444984011 
1027	 0.115783681465855 
1028	 0.123598744336975 
1029	 0.122510448255215 
1030	 0.118586426233813 
1031	 0.11554388398652 
1032	 0.119845013322846 
1033	 0.127004790505463 
1034	 0.133094276341892 
1035	 0.13739937713442 
1036	 0.135131101628995 
1037	 0.123027277903529 
1038	 0.120400856371796 
1039	 0.12473920968029 
1040	 0.124743411708595 
1041	 0.121778922068165 
1042	 0.120710144097065 
1043	 0.138165676132606 
1044	 0.130731604858161 
1045	 0.100240734022398 
1046	 0.129451358734307 
1047	 0.141144139007356 
1048	 0.100848224089459 
1049	 0.110813240371037 
1050	 0.131032853606372 
1051	 0.119700481849772 
1052	 0.121468649655361 
1053	 0.127249829126902 
1054	 0.114301703172343 
1055	 0.133114121341524 
1056	 0.166216773434926 
1057	 0.149224550133372 
1058	 0.130191224111634 
1059	 0.12409318856809 
1060	 0.136182678686763 
1061	 0.13065016166077 
1062	 0.102543294442613 
1063	 0.124171213314095 
1064	 0.142373484650947 
1065	 0.122761465588203 
1066	 0.130755560761153 
1067	 0.145982038122201 
1068	 0.141606380346863 
1069	 0.138511839773399 
1070	 0.126417351455868 
1071	 8.48237785845445E-02 
1072	 7.85765688914276E-02 
1073	 9.85696157258265E-02 
1074	 8.25398921133457E-02 
1075	 8.56544855837006E-02 
