Wavelength	A00340.asd
325	 5.90598460504026E-02 
326	 5.38998179509822E-02 
327	 4.62054285249038E-02 
328	 4.83508248221711E-02 
329	 5.30169434179094E-02 
330	 5.66749770965425E-02 
331	 5.71773307734479E-02 
332	 0.057097115022923 
333	 5.89785252914431E-02 
334	 0.06169832939176 
335	 6.31010317316165E-02 
336	 5.84425452871997E-02 
337	 5.55157145888674E-02 
338	 5.63686821991222E-02 
339	 5.80100880833969E-02 
340	 0.057340453568446 
341	 5.28623854553117E-02 
342	 5.53147810665904E-02 
343	 6.11650871395143E-02 
344	 6.15816274971557E-02 
345	 5.76797005174762E-02 
346	 5.23893746976089E-02 
347	 5.58092853602304E-02 
348	 5.88581042599945E-02 
349	 5.61022559809407E-02 
350	 5.66089559145844E-02 
351	 5.86234216729755E-02 
352	 5.76897954843834E-02 
353	 5.63289842634747E-02 
354	 5.57686296355393E-02 
355	 5.84981881356721E-02 
356	 0.058680023284205 
357	 5.38403254657828E-02 
358	 5.35958118758646E-02 
359	 5.63605200520598E-02 
360	 5.80483685561175E-02 
361	 0.057469044217364 
362	 5.55959764000387E-02 
363	 5.72748310328201E-02 
364	 5.72136493447397E-02 
365	 5.37135320433659E-02 
366	 5.52152022941852E-02 
367	 0.058125132927569 
368	 5.66070108883982E-02 
369	 5.58552601056396E-02 
370	 0.056245361465852 
371	 5.46122665561998E-02 
372	 5.45196394619788E-02 
373	 5.73267906866012E-02 
374	 5.80035158215335E-02 
375	 5.77914580220565E-02 
376	 5.91187363604422E-02 
377	 5.83696462411464E-02 
378	 5.58484446288984E-02 
379	 5.49895802927912E-02 
380	 5.55872655394587E-02 
381	 5.71138976836278E-02 
382	 5.65316601649782E-02 
383	 5.58422841526514E-02 
384	 5.80198965551568E-02 
385	 5.95937476708733E-02 
386	 5.96558357011732E-02 
387	 5.85119373580255E-02 
388	 5.67982504958802E-02 
389	 0.055227081483095 
390	 5.54226174236897E-02 
391	 5.66775402485437E-02 
392	 5.79640064600502E-02 
393	 5.68803424881594E-02 
394	 0.054516656513032 
395	 0.055575050196615 
396	 5.61872689125638E-02 
397	 0.055061585153739 
398	 0.054566886606774 
399	 5.44461150286509E-02 
400	 5.42377148287221E-02 
401	 5.48922421448443E-02 
402	 5.59721382925635E-02 
403	 5.60652313078701E-02 
404	 5.61977456583392E-02 
405	 5.67084355960246E-02 
406	 5.69011374871592E-02 
407	 5.69627229675896E-02 
408	 5.71896546208865E-02 
409	 5.66787815576556E-02 
410	 5.57696105956764E-02 
411	 5.58942958854759E-02 
412	 5.63267206099696E-02 
413	 5.66396734007649E-02 
414	 5.65065253680843E-02 
415	 5.62708594047027E-02 
416	 5.64155778772577E-02 
417	 5.62249153717878E-02 
418	 5.58756289121233E-02 
419	 5.64551177013504E-02 
420	 5.69302357804309E-02 
421	 5.68010757957568E-02 
422	 5.68242923563847E-02 
423	 0.056981433330138 
424	 5.71182956319418E-02 
425	 5.73108560031665E-02 
426	 5.75406425525292E-02 
427	 5.76948341542591E-02 
428	 0.057816133420998 
429	 5.79213478937337E-02 
430	 5.79365143889899E-02 
431	 5.78802385631014E-02 
432	 5.78126712513561E-02 
433	 0.057467633155339 
434	 5.70416078892853E-02 
435	 5.74418121034077E-02 
436	 5.78112632661943E-02 
437	 0.057635252143761 
438	 5.77844538892544E-02 
439	 5.81198871113788E-02 
440	 5.81422931270647E-02 
441	 5.84238012660122E-02 
442	 5.89295210391458E-02 
443	 5.88350902751877E-02 
444	 0.05854116705409 
445	 5.84205777971272E-02 
446	 5.86457426352996E-02 
447	 5.89824684723889E-02 
448	 5.88122549861814E-02 
449	 5.88369623310112E-02 
450	 5.91899017264759E-02 
451	 0.05928062972367 
452	 5.93236774469845E-02 
453	 0.059553548421128 
454	 5.97308560238326E-02 
455	 5.98443336498605E-02 
456	 6.00283543976653E-02 
457	 5.99723934735837E-02 
458	 5.97269712873982E-02 
459	 6.03556458405013E-02 
460	 6.10687051029075E-02 
461	 6.08538009380269E-02 
462	 6.05549019201921E-02 
463	 6.03081846062688E-02 
464	 5.98067161791407E-02 
465	 5.97699230170142E-02 
466	 6.04433654302899E-02 
467	 6.06822626046012E-02 
468	 0.060598610604027 
469	 6.05606259763039E-02 
470	 6.06702721072813E-02 
471	 6.09074818489159E-02 
472	 6.10673538021185E-02 
473	 6.11061083763475E-02 
474	 6.10145808641855E-02 
475	 6.09367887494284E-02 
476	 0.060988378378482 
477	 6.13628987632781E-02 
478	 6.12093459013599E-02 
479	 6.05766122526406E-02 
480	 6.07045818048395E-02 
481	 6.12667736346096E-02 
482	 6.18940549311766E-02 
483	 6.17554279782913E-02 
484	 6.12046224158677E-02 
485	 6.14850965579979E-02 
486	 6.15439293987239E-02 
487	 6.12745625407249E-02 
488	 6.21860587018539E-02 
489	 6.29480961931915E-02 
490	 6.22105081989668E-02 
491	 6.13301759918395E-02 
492	 6.09373681553244E-02 
493	 6.20202954158595E-02 
494	 0.06260297551237 
495	 6.20401605720306E-02 
496	 6.23526961834223E-02 
497	 6.29230426939333E-02 
498	 6.27192483788125E-02 
499	 6.28015666388817E-02 
500	 6.32001716942025E-02 
501	 6.30774117486735E-02 
502	 6.31164425206387E-02 
503	 6.36511007521658E-02 
504	 6.38717138073343E-02 
505	 6.39217902259545E-02 
506	 6.42118940583306E-02 
507	 6.45365538853386E-02 
508	 6.48427028251326E-02 
509	 6.51417036918233E-02 
510	 6.54050658880516E-02 
511	 6.56183441940917E-02 
512	 6.58763794049081E-02 
513	 0.066174969255466 
514	 6.64327659489401E-02 
515	 6.68895610214279E-02 
516	 6.75253861824394E-02 
517	 6.76863695681887E-02 
518	 6.79839180521536E-02 
519	 6.90559488147745E-02 
520	 6.93640161907265E-02 
521	 6.91118345661722E-02 
522	 6.96961369338613E-02 
523	 7.03478857422064E-02 
524	 7.07877774625924E-02 
525	 7.15853259551822E-02 
526	 7.22880341376615E-02 
527	 0.072189766017637 
528	 7.21764089154876E-02 
529	 7.24862045193318E-02 
530	 7.30155628575309E-02 
531	 7.36822055124395E-02 
532	 7.43768647521893E-02 
533	 7.46899316457827E-02 
534	 0.074742730105395 
535	 7.48674230849427E-02 
536	 7.52224454002727E-02 
537	 7.57864281027631E-02 
538	 7.61171797318634E-02 
539	 7.64010156866416E-02 
540	 7.68271351997627E-02 
541	 7.71866490373797E-02 
542	 7.74135069168619E-02 
543	 7.74066147971029E-02 
544	 0.077608203644814 
545	 7.81185077587394E-02 
546	 7.82361372803492E-02 
547	 7.82764052636515E-02 
548	 7.87300515139611E-02 
549	 0.078841914696114 
550	 7.86941328739469E-02 
551	 0.079215268360805 
552	 7.97753966760492E-02 
553	 7.99717326457258E-02 
554	 0.080018405535515 
555	 8.00289758812983E-02 
556	 8.01466926874649E-02 
557	 8.03929265964085E-02 
558	 8.07108876866315E-02 
559	 8.07892954145427E-02 
560	 8.08727465851459E-02 
561	 8.11738819458357E-02 
562	 0.081266404453451 
563	 8.11817269586997E-02 
564	 8.12024578050338E-02 
565	 8.12739912382168E-02 
566	 8.13047284860434E-02 
567	 0.080828387271806 
568	 8.03317130966031E-02 
569	 8.04727682785539E-02 
570	 8.06517171120889E-02 
571	 8.07600675046222E-02 
572	 8.10129579801969E-02 
573	 8.11030692478399E-02 
574	 8.08808805334507E-02 
575	 8.07866808458366E-02 
576	 8.07596841788475E-02 
577	 8.05772064260161E-02 
578	 8.03109550637142E-02 
579	 8.00140472819234E-02 
580	 7.97574607678519E-02 
581	 7.97406860893439E-02 
582	 0.080092286256778 
583	 8.02216497716806E-02 
584	 8.01130726471306E-02 
585	 8.00627386127741E-02 
586	 7.98656672424265E-02 
587	 7.95176420537402E-02 
588	 7.94480335667352E-02 
589	 7.94958334170378E-02 
590	 7.93995341420522E-02 
591	 7.93681172606396E-02 
592	 7.93792303117762E-02 
593	 7.91812439156998E-02 
594	 7.91304072939382E-02 
595	 0.079396578473621 
596	 7.95483783277602E-02 
597	 7.95498071118663E-02 
598	 7.94424525376917E-02 
599	 7.93983508421445E-02 
600	 7.94505648155976E-02 
601	 0.079464698970473 
602	 7.93907963897948E-02 
603	 7.92114727371411E-02 
604	 7.92325782356945E-02 
605	 7.93606674622164E-02 
606	 7.91708723887951E-02 
607	 7.92177880592316E-02 
608	 7.96058198986805E-02 
609	 7.96030112600933E-02 
610	 7.92001048663837E-02 
611	 0.078487737454327 
612	 7.84824106192596E-02 
613	 7.90385137958673E-02 
614	 7.87793087430971E-02 
615	 0.078296176844947 
616	 7.79581987734352E-02 
617	 7.76223850247298E-02 
618	 7.74885194288668E-02 
619	 7.79329753028017E-02 
620	 7.80817911188942E-02 
621	 7.77836711231283E-02 
622	 7.76938211357963E-02 
623	 0.077638042997961 
624	 7.74543977703694E-02 
625	 7.73554289902132E-02 
626	 7.73542856436063E-02 
627	 7.73427535182626E-02 
628	 7.75441430351968E-02 
629	 7.79752636773019E-02 
630	 7.82351356851291E-02 
631	 7.82640069204683E-02 
632	 7.80474547303615E-02 
633	 7.79794251984295E-02 
634	 7.80388938686328E-02 
635	 7.77762185000213E-02 
636	 0.077567518031823 
637	 7.76035147034805E-02 
638	 0.077509756958223 
639	 0.077281911463666 
640	 7.69964031460961E-02 
641	 7.67987304549711E-02 
642	 7.66540528835111E-02 
643	 7.60884125572409E-02 
644	 7.58142085396951E-02 
645	 7.63673020218465E-02 
646	 7.60498361710135E-02 
647	 7.50901062025983E-02 
648	 7.49356937110275E-02 
649	 7.49148227310645E-02 
650	 7.48037742252483E-02 
651	 7.47482926564736E-02 
652	 7.46933567851214E-02 
653	 7.45678973754074E-02 
654	 7.46820177315198E-02 
655	 7.48607681335057E-02 
656	 7.42422258532803E-02 
657	 7.35166354337634E-02 
658	 7.31311609228024E-02 
659	 7.27802626817772E-02 
660	 7.25199690410499E-02 
661	 7.25440664088479E-02 
662	 7.20812886226881E-02 
663	 7.11340183308599E-02 
664	 7.06631522426693E-02 
665	 7.06800700808921E-02 
666	 7.10664732311988E-02 
667	 7.06297452600357E-02 
668	 6.96381329770547E-02 
669	 6.92610084440693E-02 
670	 6.89923084955511E-02 
671	 6.87813612008149E-02 
672	 0.06921658791849 
673	 6.96782288415521E-02 
674	 6.94406262738474E-02 
675	 6.93921888164105E-02 
676	 6.96326826096094E-02 
677	 6.98503694743613E-02 
678	 6.98989743219808E-02 
679	 6.97680997433479E-02 
680	 7.00347652683265E-02 
681	 7.05399834471424E-02 
682	 7.09034772850034E-02 
683	 7.16656461277538E-02 
684	 7.27007171574037E-02 
685	 7.28984328721909E-02 
686	 7.33450661841429E-02 
687	 0.074959247198551 
688	 7.63433646866711E-02 
689	 0.077395596396798 
690	 7.87248892685403E-02 
691	 8.05314192859145E-02 
692	 8.27416708444775E-02 
693	 8.43934386220403E-02 
694	 8.59897092670933E-02 
695	 8.80254985841432E-02 
696	 9.01186740116739E-02 
697	 9.21582978301507E-02 
698	 9.41545163896323E-02 
699	 9.59989608788193E-02 
700	 9.76330003421231E-02 
701	 9.92365810248535E-02 
702	 0.101066393597377 
703	 0.10343440308847 
704	 0.105275554646192 
705	 0.106571617459557 
706	 0.108200545291918 
707	 0.109761007073117 
708	 0.111012590445731 
709	 0.112215630892866 
710	 0.113478641002483 
711	 0.114950731183556 
712	 0.11625028362888 
713	 0.117339657168522 
714	 0.118686543573036 
715	 0.12002251531518 
716	 0.121123597778411 
717	 0.121617832202652 
718	 0.121980704068423 
719	 0.123991204170006 
720	 0.125213605066844 
721	 0.125099214451686 
722	 0.125669585481047 
723	 0.12643769301919 
724	 0.126701105250528 
725	 0.127381701456966 
726	 0.12840042034663 
727	 0.128977766504339 
728	 0.129678715349816 
729	 0.130626612847239 
730	 0.13066620338348 
731	 0.130489865212633 
732	 0.131193379590219 
733	 0.131815529211571 
734	 0.132201694538877 
735	 0.132573328941339 
736	 0.133008668090563 
737	 0.133525954067914 
738	 0.133885499121006 
739	 0.134163102672453 
740	 0.134548299634663 
741	 0.13508794875451 
742	 0.135662890700056 
743	 0.135740984479858 
744	 0.135678132184958 
745	 0.135797966283001 
746	 0.136051438247392 
747	 0.136327692546224 
748	 0.136365784192327 
749	 0.136423317774082 
750	 0.136639747398887 
751	 0.1372082749071 
752	 0.137716709651331 
753	 0.137749794579175 
754	 0.138120611069827 
755	 0.138720548540474 
756	 0.138806618517167 
757	 0.138547804484297 
758	 0.138084325938064 
759	 0.138118776541441 
760	 0.139159987496488 
761	 0.141186643852407 
762	 0.141796748782411 
763	 0.141137824167229 
764	 0.140859113823156 
765	 0.141368245613632 
766	 0.142413449610191 
767	 0.142177646608996 
768	 0.141583311776822 
769	 0.141818955078138 
770	 0.141992841305478 
771	 0.141954404841471 
772	 0.1418609612606 
773	 0.14207136766 
774	 0.142749596287155 
775	 0.143042469506355 
776	 0.143224198618246 
777	 0.144058432009496 
778	 0.144463398486791 
779	 0.144240713221385 
780	 0.143992721355516 
781	 0.144040939788627 
782	 0.144577928308637 
783	 0.144916000756125 
784	 0.145049602832873 
785	 0.145227394326291 
786	 0.145486327103821 
787	 0.145772206992034 
788	 0.145689671275969 
789	 0.145652749996195 
790	 0.14604098876012 
791	 0.14639763791455 
792	 0.14664284910586 
793	 0.146820569357889 
794	 0.146861234225014 
795	 0.146831656864256 
796	 0.147169198844979 
797	 0.147521322695787 
798	 0.147515286981799 
799	 0.147293381767531 
800	 0.147085924883706 
801	 0.14738728653021 
802	 0.147896801556096 
803	 0.148424040412681 
804	 0.148689981499459 
805	 0.148802480108258 
806	 0.148904064534329 
807	 0.148774372987495 
808	 0.148636406800921 
809	 0.14924365776508 
810	 0.149783150361781 
811	 0.149888335098301 
812	 0.149695121100941 
813	 0.14975279109201 
814	 0.150737246097195 
815	 0.151453968080484 
816	 0.15172787925429 
817	 0.152258882822569 
818	 0.152058501570574 
819	 0.151132307516856 
820	 0.151773161661665 
821	 0.152916262738243 
822	 0.153115794151527 
823	 0.153135762043739 
824	 0.15320938622704 
825	 0.153428837766187 
826	 0.154345182525856 
827	 0.155826099327211 
828	 0.155462776868773 
829	 0.15426131560418 
830	 0.153759979584639 
831	 0.153661278889462 
832	 0.153972767373036 
833	 0.154842236674278 
834	 0.155454692701076 
835	 0.15551476013302 
836	 0.155803016818356 
837	 0.155932904051717 
838	 0.155434321308342 
839	 0.155256223819308 
840	 0.15558309761162 
841	 0.156295524884956 
842	 0.15711132870486 
843	 0.15768966458046 
844	 0.157180637664329 
845	 0.156172690983597 
846	 0.155472126260537 
847	 0.156573491473213 
848	 0.158540601275028 
849	 0.157799079122975 
850	 0.156819688001571 
851	 0.156693607502806 
852	 0.157512072515524 
853	 0.158110420505192 
854	 0.157319475082041 
855	 0.157278813399404 
856	 0.158073789708246 
857	 0.158967794884177 
858	 0.158998519269819 
859	 0.158068844626726 
860	 0.157647494122947 
861	 0.15786717680606 
862	 0.158681620810086 
863	 0.158716644059188 
864	 0.158502263769312 
865	 0.160101919845914 
866	 0.160291827011178 
867	 0.158792316800088 
868	 0.159762880488523 
869	 0.161252224354225 
870	 0.161546225512878 
871	 0.161237021480188 
872	 0.16112791220829 
873	 0.162692312946534 
874	 0.16286843662657 
875	 0.161429612306052 
876	 0.161541796108874 
877	 0.162059539662578 
878	 0.162182761413839 
879	 0.162554143881187 
880	 0.163230862000905 
881	 0.164202266122217 
882	 0.164344297116805 
883	 0.163813625813215 
884	 0.164358744222571 
885	 0.164797016458523 
886	 0.164579783501599 
887	 0.164749995864738 
888	 0.165321958347319 
889	 0.166149841432979 
890	 0.166746216508888 
891	 0.166938619845122 
892	 0.166564368634866 
893	 0.166579420001421 
894	 0.167421841263334 
895	 0.1683836852916 
896	 0.169419485424249 
897	 0.17038411919704 
898	 0.168837493601817 
899	 0.166568150674806 
900	 0.169351096757389 
901	 0.170658685127214 
902	 0.169056612576328 
903	 0.168476965012575 
904	 0.168642668473057 
905	 0.169047450785177 
906	 0.167672546577003 
907	 0.166044655919773 
908	 0.167356962753626 
909	 0.169817341209033 
910	 0.172337584854446 
911	 0.173116031726376 
912	 0.173178929564853 
913	 0.173279798213047 
914	 0.174030480554618 
915	 0.17431505437077 
916	 0.172811578790585 
917	 0.172879603501844 
918	 0.174027358582539 
919	 0.172855569466287 
920	 0.172581280559479 
921	 0.173574131319416 
922	 0.171552777649409 
923	 0.170153839449716 
924	 0.172403110533523 
925	 0.171599950173955 
926	 0.169016402714932 
927	 0.170083925075559 
928	 0.170583745020448 
929	 0.169460263826799 
930	 0.168439318620597 
931	 0.17152797687044 
932	 0.180304982859755 
933	 0.178505094696559 
934	 0.171438407389857 
935	 0.171186722439025 
936	 0.172825942287672 
937	 0.174981184760135 
938	 0.177882413182631 
939	 0.172982246807684 
940	 0.162611363312956 
941	 0.169424794758395 
942	 0.176949077393884 
943	 0.173666534083289 
944	 0.172450429163233 
945	 0.173747413154671 
946	 0.175477271979198 
947	 0.17724494453043 
948	 0.179044701380736 
949	 0.182142944253728 
950	 0.182845221953062 
951	 0.180204407611992 
952	 0.178324213841442 
953	 0.177559488244611 
954	 0.177911173766012 
955	 0.179253934997055 
956	 0.181012074892438 
957	 0.182435936355541 
958	 0.181666077001062 
959	 0.17837658911596 
960	 0.171962611806318 
961	 0.171747576334642 
962	 0.179868003982062 
963	 0.182196996630019 
964	 0.181026152446284 
965	 0.179774390971166 
966	 0.179442321194075 
967	 0.179286556056662 
968	 0.177432412318438 
969	 0.173679037240285 
970	 0.16947047477217 
971	 0.169713021891126 
972	 0.172947563191051 
973	 0.177436046301425 
974	 0.178430681867357 
975	 0.178391481899813 
976	 0.180405952974435 
977	 0.180500032598275 
978	 0.178678584267666 
979	 0.176378268955891 
980	 0.175879776291955 
981	 0.177547409033229 
982	 0.17984973122578 
983	 0.181528896247042 
984	 0.181549825822969 
985	 0.178001455281746 
986	 0.177306199330836 
987	 0.185056995618916 
988	 0.181936783006362 
989	 0.172441938096159 
990	 0.172525334619694 
991	 0.174681861867078 
992	 0.176567607445812 
993	 0.176918952067756 
994	 0.17857788609558 
995	 0.181934009504164 
996	 0.180803078823566 
997	 0.178125991697403 
998	 0.177217078949342 
999	 0.175319429231817 
1000	 0.174753869063173 
1001	 0.180124251315827 
1002	 0.178157775920086 
1003	 0.170356352331699 
1004	 0.173471017796007 
1005	 0.178943561427382 
1006	 0.182419783099773 
1007	 0.180387627350601 
1008	 0.179796875350801 
1009	 0.185089916024186 
1010	 0.185108526370733 
1011	 0.181353380545192 
1012	 0.17810131497429 
1013	 0.180316016310244 
1014	 0.184188601838968 
1015	 0.177007624514379 
1016	 0.178696508787138 
1017	 0.190848338518704 
1018	 0.193036156769262 
1019	 0.189393674623958 
1020	 0.183638629011463 
1021	 0.183290483695643 
1022	 0.185081373784698 
1023	 0.185130880344961 
1024	 0.187440227613599 
1025	 0.187187937194336 
1026	 0.175832827025884 
1027	 0.180374593533539 
1028	 0.195004389333919 
1029	 0.180093934636344 
1030	 0.170420780889337 
1031	 0.176819832762928 
1032	 0.189398271245433 
1033	 0.193098368954409 
1034	 0.182984598846389 
1035	 0.196047708015337 
1036	 0.207199221997703 
1037	 0.189975381337709 
1038	 0.181967760855652 
1039	 0.18453310132592 
1040	 0.187201020292544 
1041	 0.189220521962134 
1042	 0.190812265735831 
1043	 0.195125522823665 
1044	 0.198294328136487 
1045	 0.200164322755501 
1046	 0.211354249796871 
1047	 0.203493981847807 
1048	 0.167058957549945 
1049	 0.163041796090671 
1050	 0.170300008386562 
1051	 0.16512581172197 
1052	 0.175859012045935 
1053	 0.194584625739519 
1054	 0.202474553988091 
1055	 0.195641435046449 
1056	 0.186685501547762 
1057	 0.208714411667904 
1058	 0.192216157618081 
1059	 0.142430930857826 
1060	 0.180033234371975 
1061	 0.211746979884986 
1062	 0.200642216706996 
1063	 0.177137996493389 
1064	 0.160748061967377 
1065	 0.165962043662436 
1066	 0.197721019493176 
1067	 0.217704074504625 
1068	 0.189446778486187 
1069	 0.168811085895617 
1070	 0.167109382152695 
1071	 0.18198219126962 
1072	 0.189648639219953 
1073	 0.1875174215917 
1074	 0.186634238358523 
1075	 0.176480392358674 
