Wavelength	A00387.asd
325	 2.96658323070491E-02 
326	 3.51651140774453E-02 
327	 4.08541711794024E-02 
328	 4.32896364101547E-02 
329	 4.53648420432438E-02 
330	 4.63563524331395E-02 
331	 3.55584215850062E-02 
332	 2.82668093612047E-02 
333	 3.88570065830285E-02 
334	 4.46584671664204E-02 
335	 4.43933569649829E-02 
336	 4.43114884979344E-02 
337	 4.64702501052019E-02 
338	 4.96944702562253E-02 
339	 4.48418167103717E-02 
340	 0.039792998644634 
341	 0.040935988279066 
342	 4.22103685883457E-02 
343	 4.34951631509706E-02 
344	 0.046935285715259 
345	 4.63341156922137E-02 
346	 4.19203581717172E-02 
347	 4.10838027700325E-02 
348	 4.17060296791109E-02 
349	 4.22699468317065E-02 
350	 4.47555773610454E-02 
351	 4.56693392089962E-02 
352	 3.91259661491802E-02 
353	 3.59667207726815E-02 
354	 3.79487409174082E-02 
355	 4.04948642555703E-02 
356	 4.17172400987022E-02 
357	 4.08061263741477E-02 
358	 4.07414259062122E-02 
359	 4.20221390379194E-02 
360	 4.48808701336134E-02 
361	 4.36777076938297E-02 
362	 3.97555276138892E-02 
363	 4.24266034166127E-02 
364	 4.43578617171193E-02 
365	 4.22475736727071E-02 
366	 4.20143489855555E-02 
367	 4.18886483056758E-02 
368	 3.87125262979585E-02 
369	 0.03869522600256 
370	 4.16479844232628E-02 
371	 4.18966391120236E-02 
372	 4.21792442602701E-02 
373	 4.35914082217989E-02 
374	 4.33920017146934E-02 
375	 0.042344591514607 
376	 0.041862547093864 
377	 4.11638991580267E-02 
378	 4.05607650089099E-02 
379	 4.15008131867558E-02 
380	 4.23936846275317E-02 
381	 4.24793101591733E-02 
382	 4.27404047461567E-02 
383	 4.28992486170935E-02 
384	 4.24869687121466E-02 
385	 4.24836982464485E-02 
386	 4.25502232534752E-02 
387	 4.07253349902263E-02 
388	 4.00769703196516E-02 
389	 4.15992416699052E-02 
390	 4.23592279824634E-02 
391	 4.29271814389009E-02 
392	 4.42474975288566E-02 
393	 4.36420835170462E-02 
394	 4.16277128953321E-02 
395	 4.10455078896286E-02 
396	 4.16833657387738E-02 
397	 4.29335905196566E-02 
398	 4.24225036945078E-02 
399	 4.09447816932768E-02 
400	 3.95262786108343E-02 
401	 4.03284116018491E-02 
402	 4.24224297064423E-02 
403	 4.27113573735216E-02 
404	 4.25930544092917E-02 
405	 4.26612625300544E-02 
406	 4.29215255141639E-02 
407	 0.043194428843883 
408	 4.32496240207468E-02 
409	 4.28912620085435E-02 
410	 4.22708697069766E-02 
411	 4.17519792166194E-02 
412	 4.20393299490755E-02 
413	 4.31540936848827E-02 
414	 4.30229467147123E-02 
415	 4.24018954462809E-02 
416	 4.25180083208763E-02 
417	 4.25367201799518E-02 
418	 4.25239027956297E-02 
419	 4.33413411046871E-02 
420	 4.37215227080361E-02 
421	 4.31392508881093E-02 
422	 4.31022949707739E-02 
423	 4.35035228144172E-02 
424	 4.39442401498922E-02 
425	 4.38146728162738E-02 
426	 4.33463784686035E-02 
427	 4.40400697260366E-02 
428	 4.47137099464873E-02 
429	 4.45903586239854E-02 
430	 4.40614801010618E-02 
431	 4.36598811545679E-02 
432	 4.41823626217322E-02 
433	 4.41018334133939E-02 
434	 4.34228777954537E-02 
435	 4.37182398496834E-02 
436	 4.39915282698272E-02 
437	 4.36972580173583E-02 
438	 4.43886222669639E-02 
439	 4.53694786533807E-02 
440	 4.49779469825155E-02 
441	 4.46241850823109E-02 
442	 0.04474638134149 
443	 4.52698334938949E-02 
444	 4.57108477518201E-02 
445	 4.57081232647476E-02 
446	 4.57784622777291E-02 
447	 4.59064299592359E-02 
448	 4.58426000532088E-02 
449	 4.58389568168584E-02 
450	 4.60042292917491E-02 
451	 4.64332019081364E-02 
452	 4.67512957882881E-02 
453	 4.66088055241421E-02 
454	 4.65138611079661E-02 
455	 4.65990188020045E-02 
456	 4.69546488277808E-02 
457	 4.70857653608066E-02 
458	 4.68951996811461E-02 
459	 4.71822862601115E-02 
460	 4.75669514409752E-02 
461	 4.75257262886459E-02 
462	 4.71018485656543E-02 
463	 4.65522845479633E-02 
464	 4.65752418235175E-02 
465	 4.67727223406663E-02 
466	 4.69816983880049E-02 
467	 4.76170003700916E-02 
468	 4.81584185559429E-02 
469	 4.78184118544158E-02 
470	 4.76505716789527E-02 
471	 4.78305218910112E-02 
472	 4.78966295745547E-02 
473	 4.79621304138712E-02 
474	 4.80491707980393E-02 
475	 4.77384886731853E-02 
476	 4.73571396806618E-02 
477	 4.75728572054687E-02 
478	 4.75595829429802E-02 
479	 0.047300920057807 
480	 4.77493809270572E-02 
481	 0.048382156899194 
482	 4.87269172757224E-02 
483	 4.85682204234985E-02 
484	 0.048280957042313 
485	 4.89401913486944E-02 
486	 4.90214324446037E-02 
487	 4.82575127341834E-02 
488	 4.83963124394128E-02 
489	 4.87821353050121E-02 
490	 4.86443505196968E-02 
491	 4.82228675123519E-02 
492	 4.78511855345956E-02 
493	 4.82914700786167E-02 
494	 4.87877951553015E-02 
495	 4.90040169074933E-02 
496	 4.91014906717504E-02 
497	 4.93072457351222E-02 
498	 4.98962213573592E-02 
499	 4.99852658201435E-02 
500	 4.95983295242556E-02 
501	 4.95948736477067E-02 
502	 4.97128212183112E-02 
503	 4.98178776080099E-02 
504	 5.01370909477097E-02 
505	 5.04557394496746E-02 
506	 5.03817377309183E-02 
507	 5.03878225971178E-02 
508	 0.050613918053692 
509	 5.10625039811996E-02 
510	 5.13140991425198E-02 
511	 5.10945084368242E-02 
512	 0.051245583502658 
513	 0.051699990567653 
514	 0.051996395719112 
515	 5.20688067705376E-02 
516	 5.19361825076172E-02 
517	 5.19428185824841E-02 
518	 5.21291064647743E-02 
519	 5.24852131521507E-02 
520	 5.26417778985256E-02 
521	 5.26937072465386E-02 
522	 5.31344191830859E-02 
523	 5.35615777353451E-02 
524	 0.053774323778785 
525	 5.37677021257543E-02 
526	 5.36971850200849E-02 
527	 0.053778782593369 
528	 5.38538761905638E-02 
529	 5.39412907330056E-02 
530	 5.42382091147335E-02 
531	 5.45465120754746E-02 
532	 0.05474920237255 
533	 5.51046830269881E-02 
534	 5.54239562598126E-02 
535	 5.52387373096447E-02 
536	 5.53384552279245E-02 
537	 5.58310980982325E-02 
538	 5.59170595160731E-02 
539	 5.59640386304167E-02 
540	 5.63362996785685E-02 
541	 5.64679234268941E-02 
542	 0.056372940959128 
543	 5.63459567527152E-02 
544	 5.65411231205324E-02 
545	 5.69415406874521E-02 
546	 5.69225468966296E-02 
547	 5.68363965828995E-02 
548	 5.72119286657529E-02 
549	 5.74171054353092E-02 
550	 5.74492405015097E-02 
551	 5.78721649334559E-02 
552	 5.82434724341545E-02 
553	 5.82929825293013E-02 
554	 5.82707191214718E-02 
555	 5.82713766085361E-02 
556	 5.83964289602042E-02 
557	 5.85542823186245E-02 
558	 5.86912963593702E-02 
559	 5.86981421579447E-02 
560	 0.058776036355264 
561	 5.90952136404129E-02 
562	 5.93452524063616E-02 
563	 5.94976129123957E-02 
564	 5.96868586737394E-02 
565	 5.96375416100712E-02 
566	 5.93359277157715E-02 
567	 5.94115877005551E-02 
568	 5.96294912600517E-02 
569	 5.96172376342501E-02 
570	 5.98405752717433E-02 
571	 6.02188691355455E-02 
572	 6.01278839063422E-02 
573	 5.99395643637717E-02 
574	 5.99155653779967E-02 
575	 6.02168950049257E-02 
576	 6.05603170548058E-02 
577	 6.03836740812524E-02 
578	 6.02608535225033E-02 
579	 6.03292596040468E-02 
580	 6.03374283296218E-02 
581	 6.02877471289623E-02 
582	 6.02185128413485E-02 
583	 6.05723643896953E-02 
584	 6.10725505157763E-02 
585	 6.07616333541933E-02 
586	 6.06982227507976E-02 
587	 6.11545781958467E-02 
588	 6.09817631763938E-02 
589	 6.05570334298514E-02 
590	 6.05127307355275E-02 
591	 6.06131447166581E-02 
592	 6.07405619829139E-02 
593	 6.06696598379239E-02 
594	 6.06986063525789E-02 
595	 6.09795058835488E-02 
596	 6.12184292162307E-02 
597	 6.14102451868399E-02 
598	 6.16465468712782E-02 
599	 6.15782193757761E-02 
600	 6.12331211074765E-02 
601	 6.12048543316346E-02 
602	 6.13138007766767E-02 
603	 6.13817286809587E-02 
604	 6.15345718815868E-02 
605	 6.16577223145225E-02 
606	 6.13958078419138E-02 
607	 6.12327049550529E-02 
608	 6.13886109356393E-02 
609	 6.18789012702998E-02 
610	 6.22125923261821E-02 
611	 0.061797142813591 
612	 6.19516731463254E-02 
613	 6.26226534009559E-02 
614	 6.24957027832168E-02 
615	 6.22845625655868E-02 
616	 6.23549176454001E-02 
617	 6.19358738668889E-02 
618	 6.14033513269346E-02 
619	 6.15414206035995E-02 
620	 6.19535801507825E-02 
621	 6.23231281356573E-02 
622	 6.18508884674074E-02 
623	 6.13102755063819E-02 
624	 6.14084358267853E-02 
625	 6.15742370347689E-02 
626	 6.17012347685957E-02 
627	 6.18058601747177E-02 
628	 6.18884551452582E-02 
629	 6.19327519981446E-02 
630	 6.18435251798561E-02 
631	 0.061765965505116 
632	 6.18853249081048E-02 
633	 0.062592245418817 
634	 6.34648960583897E-02 
635	 6.29093552895598E-02 
636	 6.21214216987177E-02 
637	 6.18659833808716E-02 
638	 6.20270658922297E-02 
639	 6.23694091210296E-02 
640	 6.24969441331117E-02 
641	 6.25723847615085E-02 
642	 6.26477292441443E-02 
643	 6.27710673277657E-02 
644	 0.062931631161803 
645	 6.31113934470588E-02 
646	 6.32430406950989E-02 
647	 6.32617129342911E-02 
648	 6.30693214727971E-02 
649	 6.26743756928352E-02 
650	 6.22157023362429E-02 
651	 0.062315890552051 
652	 6.26419668020781E-02 
653	 6.27405961639858E-02 
654	 6.30552041544344E-02 
655	 6.33942026189755E-02 
656	 6.27318049733848E-02 
657	 6.20358923445846E-02 
658	 6.18809156200857E-02 
659	 6.16191965866706E-02 
660	 6.13474215601051E-02 
661	 6.13852801420488E-02 
662	 6.08073171526861E-02 
663	 5.97990138846018E-02 
664	 0.060318752763029 
665	 6.09674947408787E-02 
666	 6.05508462158787E-02 
667	 0.059855719743922 
668	 0.059281395567597 
669	 5.94860581577428E-02 
670	 5.94903736531657E-02 
671	 0.059105997645971 
672	 5.95221377631524E-02 
673	 6.00336510736414E-02 
674	 5.97579174358584E-02 
675	 5.94775353489738E-02 
676	 5.93480229575024E-02 
677	 5.92426185782902E-02 
678	 5.92454069980282E-02 
679	 0.059417939207882 
680	 5.98759237661672E-02 
681	 6.03305882076552E-02 
682	 6.02925815597096E-02 
683	 6.08558641365723E-02 
684	 0.062016630329777 
685	 6.25415202307564E-02 
686	 6.27308923540031E-02 
687	 6.28922408341154E-02 
688	 6.36193198166545E-02 
689	 6.46129292335117E-02 
690	 0.065083282108281 
691	 6.56593169286397E-02 
692	 6.65113451373544E-02 
693	 6.74251540485316E-02 
694	 6.82248015385907E-02 
695	 6.87405762987202E-02 
696	 6.98322442204267E-02 
697	 7.11740201379513E-02 
698	 7.14517113541788E-02 
699	 7.16352974239605E-02 
700	 7.21613110258805E-02 
701	 7.26448044947614E-02 
702	 7.32437960519241E-02 
703	 7.42182061743848E-02 
704	 7.47756195382756E-02 
705	 7.49090015688936E-02 
706	 7.52774926425251E-02 
707	 7.57981191344849E-02 
708	 7.63509525216816E-02 
709	 7.62904796410467E-02 
710	 7.61843424115314E-02 
711	 7.72736563732879E-02 
712	 7.80183970106908E-02 
713	 7.80821299433571E-02 
714	 7.82676702848652E-02 
715	 7.87158816341673E-02 
716	 7.95135864447725E-02 
717	 7.95477219548469E-02 
718	 7.90478626984527E-02 
719	 7.96214624610884E-02 
720	 8.04927625067885E-02 
721	 8.11391959110735E-02 
722	 8.09378233261171E-02 
723	 0.080436217689679 
724	 8.02729416981104E-02 
725	 8.07752048084164E-02 
726	 8.17301072006985E-02 
727	 8.24118738137067E-02 
728	 8.24767310861628E-02 
729	 8.18908405613032E-02 
730	 8.18222318577109E-02 
731	 8.22011180993944E-02 
732	 8.27112484466723E-02 
733	 8.29825993889248E-02 
734	 8.30985750671034E-02 
735	 8.37011347334422E-02 
736	 8.43392139819351E-02 
737	 8.46585615537217E-02 
738	 8.45237116650569E-02 
739	 0.084315677347153 
740	 8.47500122565066E-02 
741	 8.53574028662857E-02 
742	 8.58486124367501E-02 
743	 8.57071173304482E-02 
744	 8.54952466171229E-02 
745	 8.56891870779572E-02 
746	 0.085875942186004 
747	 8.60380016435463E-02 
748	 8.63219105866471E-02 
749	 8.65480632055718E-02 
750	 8.66074740937784E-02 
751	 8.62786944415323E-02 
752	 8.61546770457714E-02 
753	 8.68239468447859E-02 
754	 8.71272965016908E-02 
755	 0.086998427856385 
756	 8.69589689039919E-02 
757	 8.70616858073226E-02 
758	 8.73355759277586E-02 
759	 8.73788601893753E-02 
760	 8.77073054679392E-02 
761	 8.94426732186457E-02 
762	 9.04267431911738E-02 
763	 9.02790003320096E-02 
764	 8.95935404518042E-02 
765	 8.95341949256842E-02 
766	 9.02504033966521E-02 
767	 9.03425177410035E-02 
768	 9.00590790125902E-02 
769	 8.97503476944924E-02 
770	 8.98842554751217E-02 
771	 9.03810084293086E-02 
772	 9.04019562479441E-02 
773	 9.05584419443766E-02 
774	 9.11486286892133E-02 
775	 9.09419632525247E-02 
776	 9.05721470013983E-02 
777	 9.14934368980401E-02 
778	 9.22701735454307E-02 
779	 9.24294262379834E-02 
780	 9.19322277757984E-02 
781	 9.17508602300161E-02 
782	 9.25537662812837E-02 
783	 9.27720861421672E-02 
784	 0.092578951175656 
785	 9.29294778295978E-02 
786	 9.31084403415425E-02 
787	 9.29907980558521E-02 
788	 9.30742158458808E-02 
789	 9.33099064343609E-02 
790	 9.36314808420973E-02 
791	 0.094114893814696 
792	 9.46056132115723E-02 
793	 0.094733677721365 
794	 9.47956692164535E-02 
795	 9.48536556085385E-02 
796	 9.46115617402828E-02 
797	 0.094462341549707 
798	 9.47889154105513E-02 
799	 9.51582302101988E-02 
800	 9.53716815727716E-02 
801	 9.50847058265133E-02 
802	 0.0951318601016 
803	 9.57388943647618E-02 
804	 9.61449611802075E-02 
805	 9.61944793664448E-02 
806	 9.58289487706434E-02 
807	 9.58531820969741E-02 
808	 9.63085519452527E-02 
809	 9.68033331284563E-02 
810	 9.71591008953593E-02 
811	 9.72511050232515E-02 
812	 9.70404298429677E-02 
813	 9.68952846731997E-02 
814	 9.72924067663214E-02 
815	 9.77595345829915E-02 
816	 9.82171921788659E-02 
817	 9.89931969322763E-02 
818	 9.89036196065007E-02 
819	 9.78142680256455E-02 
820	 9.78588065591113E-02 
821	 9.85323962653243E-02 
822	 9.90340546956771E-02 
823	 9.88909793956128E-02 
824	 0.098444355722616 
825	 9.90262256670101E-02 
826	 9.96035107669792E-02 
827	 9.98262846266856E-02 
828	 0.100397636345151 
829	 0.100675755128616 
830	 9.98786461441379E-02 
831	 9.99187663517267E-02 
832	 0.100715082087676 
833	 0.100723840240824 
834	 0.100810369313292 
835	 0.101227228327905 
836	 0.101295265549569 
837	 0.101236861379962 
838	 0.101360753590421 
839	 0.101589203778741 
840	 0.101781205294665 
841	 0.101473878039118 
842	 0.101750798705691 
843	 0.102806970025442 
844	 0.102898261231659 
845	 0.102436056307296 
846	 0.102078823257187 
847	 0.102321876776466 
848	 0.102928831071935 
849	 0.102866844889824 
850	 0.102690590747672 
851	 0.102703818690286 
852	 0.103359768430223 
853	 0.103802920150974 
854	 0.103163786960401 
855	 0.103186947858897 
856	 0.103858511435414 
857	 0.104325479483385 
858	 0.104371737001924 
859	 0.103920142507106 
860	 0.10313279631252 
861	 0.102708196809338 
862	 0.103233047796442 
863	 0.103413115276675 
864	 0.103616001874842 
865	 0.105405706042278 
866	 0.106428326003299 
867	 0.105947677014881 
868	 0.10472833817619 
869	 0.104241336313091 
870	 0.105485268445914 
871	 0.106382620123152 
872	 0.106777077913186 
873	 0.107097937198782 
874	 0.107017896177305 
875	 0.106622715252892 
876	 0.106487427120477 
877	 0.106839692833959 
878	 0.1076291050151 
879	 0.10699041463354 
880	 0.106344579866234 
881	 0.108431514140156 
882	 0.108025864597027 
883	 0.105309373113382 
884	 0.106061640179734 
885	 0.107480405003063 
886	 0.107935552316571 
887	 0.107780862376654 
888	 0.10779920120798 
889	 0.108961100571955 
890	 0.109630276326499 
891	 0.109534396725559 
892	 0.109156863478301 
893	 0.108552929865218 
894	 0.108015964366519 
895	 0.108592544236826 
896	 0.110208694356446 
897	 0.112386815449164 
898	 0.111428179243951 
899	 0.108986865527562 
900	 0.111363167184842 
901	 0.112314177934643 
902	 0.110704175990921 
903	 0.111175642553374 
904	 0.111652631020025 
905	 0.11069032949622 
906	 0.111374721046148 
907	 0.112931682033278 
908	 0.113197213653539 
909	 0.113505914213468 
910	 0.113900991109075 
911	 0.113151867605997 
912	 0.112607771039137 
913	 0.113126425125376 
914	 0.114761519013523 
915	 0.116024031572938 
916	 0.115208185173079 
917	 0.114324237485354 
918	 0.113676511796261 
919	 0.112480236873477 
920	 0.113121374662656 
921	 0.115240424443376 
922	 0.112542982235436 
923	 0.109854947962128 
924	 0.111496742336815 
925	 0.111606888997333 
926	 0.110916032496915 
927	 0.113295118087628 
928	 0.114196162042205 
929	 0.112202033879589 
930	 0.10894547157458 
931	 0.10873272372066 
932	 0.113863862497362 
933	 0.109150511275812 
934	 0.10459765127684 
935	 0.117250506707041 
936	 0.126195411917928 
937	 0.126195388030729 
938	 0.118209719054176 
939	 0.111478214315961 
940	 0.110099939824981 
941	 0.116437651449838 
942	 0.11855585686857 
943	 0.10966441122091 
944	 0.110155192268072 
945	 0.116378624178958 
946	 0.118260708055317 
947	 0.117923918035463 
948	 0.118016479166069 
949	 0.127243630603287 
950	 0.128136233217356 
951	 0.116690059504216 
952	 0.115799489805924 
953	 0.116379183619275 
954	 0.109993861019587 
955	 0.113716941178225 
956	 0.1230042560552 
957	 0.1253900269451 
958	 0.120991710065092 
959	 0.113356647568109 
960	 0.113609978772566 
961	 0.115729064897096 
962	 0.11701112051438 
963	 0.120553019192408 
964	 0.123842772933536 
965	 0.124268159048215 
966	 0.120270062340353 
967	 0.114935847063955 
968	 0.114341692214012 
969	 0.113982718273002 
970	 0.113481166235179 
971	 0.116357762723487 
972	 0.118036024428726 
973	 0.116641017593151 
974	 0.116985367546677 
975	 0.11997772930435 
976	 0.125264452944121 
977	 0.120114489416605 
978	 0.110028457361995 
979	 0.112180107557489 
980	 0.115524361892529 
981	 0.117338764175491 
982	 0.120215916695695 
983	 0.122183032058953 
984	 0.122218436364572 
985	 0.12085514265886 
986	 0.121760784824734 
987	 0.127836439530513 
988	 0.126584897092349 
989	 0.120502079950438 
990	 0.119336053711834 
991	 0.11615032430479 
992	 0.112323314673039 
993	 0.119524275186048 
994	 0.124652062616264 
995	 0.121748454875173 
996	 0.117860323535148 
997	 0.118512462751767 
998	 0.127133269699894 
999	 0.125927131756203 
1000	 0.119705693610057 
1001	 0.122151012365454 
1002	 0.120172962571111 
1003	 0.114979104507723 
1004	 0.121480248351231 
1005	 0.127258309667225 
1006	 0.127426221156601 
1007	 0.125732044198895 
1008	 0.122937224955801 
1009	 0.120018951354889 
1010	 0.119117228779724 
1011	 0.118871936377509 
1012	 0.11707305328738 
1013	 0.114897414418466 
1014	 0.114010155925007 
1015	 0.117752401946835 
1016	 0.119540959736405 
1017	 0.118113906776487 
1018	 0.117441742373595 
1019	 0.121349272062594 
1020	 0.129499357325529 
1021	 0.124540029377823 
1022	 0.121283987082044 
1023	 0.133473517554446 
1024	 0.13598777070816 
1025	 0.128088004640095 
1026	 0.115696310573352 
1027	 0.114350559625869 
1028	 0.121985272217084 
1029	 0.117673788942627 
1030	 0.118420460517706 
1031	 0.126107471142665 
1032	 0.123166405543385 
1033	 0.115997101437599 
1034	 0.111109068276965 
1035	 0.116246116817394 
1036	 0.130535635583128 
1037	 0.150319694300942 
1038	 0.14728705223723 
1039	 0.131295710444899 
1040	 0.129281500083004 
1041	 0.128822624373935 
1042	 0.128302994243508 
1043	 0.131031799416288 
1044	 0.13007889436416 
1045	 0.126417372685432 
1046	 0.137587369593573 
1047	 0.137950986704671 
1048	 0.116848687661061 
1049	 0.114562085081868 
1050	 0.119109901723522 
1051	 0.117010292178442 
1052	 0.129202693343013 
1053	 0.14181871518321 
1054	 0.130121830388029 
1055	 0.126078501148736 
1056	 0.136886049627018 
1057	 0.162643472439438 
1058	 0.162388389574483 
1059	 0.136276875249074 
1060	 0.148441132465296 
1061	 0.145826233835077 
1062	 0.114059736895138 
1063	 0.113052477654798 
1064	 0.124432455475951 
1065	 0.132805712733599 
1066	 0.157868142107966 
1067	 0.173979265023368 
1068	 0.155616917371224 
1069	 0.145135040349005 
1070	 0.13843584910122 
1071	 0.11509132967405 
1072	 0.108184096288349 
1073	 0.111234715138679 
1074	 8.80669098571904E-02 
1075	 8.43576461401264E-02 
