Wavelength	A00338.asd
325	 5.51956844922734E-02 
326	 0.060295260125738 
327	 6.75734877833067E-02 
328	 0.065784971352826 
329	 6.36492371232649E-02 
330	 6.42097304851496E-02 
331	 6.45383198787172E-02 
332	 0.066519591445965 
333	 0.07158710947772 
334	 0.069669054175437 
335	 6.35735513569635E-02 
336	 6.30316169548643E-02 
337	 6.32924200126661E-02 
338	 6.35781443438191E-02 
339	 6.71090720668649E-02 
340	 6.93608559341758E-02 
341	 6.70622736669118E-02 
342	 6.66081534891715E-02 
343	 6.78517487756754E-02 
344	 6.88357838406181E-02 
345	 6.78382986723626E-02 
346	 6.54558604789432E-02 
347	 6.61821311747357E-02 
348	 0.066233227576432 
349	 6.37028067389644E-02 
350	 6.55706551430842E-02 
351	 6.84059582791906E-02 
352	 0.065574525381593 
353	 6.33207736021984E-02 
354	 6.36154663695667E-02 
355	 0.067596327027334 
356	 6.99547171235366E-02 
357	 6.80129130636528E-02 
358	 6.76539719733486E-02 
359	 6.84264321084245E-02 
360	 6.86132213169659E-02 
361	 6.63992359106168E-02 
362	 6.32434471418899E-02 
363	 6.53481365055345E-02 
364	 6.73464241351338E-02 
365	 6.67495846491787E-02 
366	 0.067751943244265 
367	 6.85920332004387E-02 
368	 6.64188191355941E-02 
369	 6.54409355504628E-02 
370	 6.62576314706012E-02 
371	 6.73548084214993E-02 
372	 6.80131616329694E-02 
373	 6.79274695718803E-02 
374	 0.068469257833689 
375	 6.91042624850321E-02 
376	 6.89307588236536E-02 
377	 6.85028964387932E-02 
378	 6.78274935863457E-02 
379	 6.62929380687031E-02 
380	 6.57264975487904E-02 
381	 6.68009981776898E-02 
382	 6.73267823593088E-02 
383	 6.72787000567461E-02 
384	 6.69452900037635E-02 
385	 0.067851053092426 
386	 6.90891553167194E-02 
387	 6.66135548466658E-02 
388	 6.58461303559194E-02 
389	 6.83068686014107E-02 
390	 6.74349831549428E-02 
391	 6.60191802313209E-02 
392	 6.78438022078934E-02 
393	 6.86497579731376E-02 
394	 6.80702542791089E-02 
395	 6.78660181430868E-02 
396	 6.70997759129733E-02 
397	 6.57329626707859E-02 
398	 6.53864377875807E-02 
399	 6.53221028919445E-02 
400	 6.46903783443902E-02 
401	 6.47758800419321E-02 
402	 6.55315943842861E-02 
403	 6.64636001624846E-02 
404	 6.68637404078493E-02 
405	 6.65654959754997E-02 
406	 6.65968137600585E-02 
407	 6.70090755498495E-02 
408	 6.77182647760584E-02 
409	 6.75303924265485E-02 
410	 6.66031060253093E-02 
411	 6.61282270421856E-02 
412	 6.59034055767964E-02 
413	 6.58592400224103E-02 
414	 6.60599553629411E-02 
415	 6.63309902815911E-02 
416	 6.64554968741932E-02 
417	 0.06677919243053 
418	 6.72129982402887E-02 
419	 6.73011376034774E-02 
420	 6.70863521689263E-02 
421	 6.66937692500546E-02 
422	 6.67584588510094E-02 
423	 6.71189309336656E-02 
424	 6.74359079503581E-02 
425	 6.75935348893404E-02 
426	 6.76068132640883E-02 
427	 6.76805766771588E-02 
428	 6.78645363404955E-02 
429	 6.81344368766743E-02 
430	 6.80501472534938E-02 
431	 0.067780568720453 
432	 6.77346643240309E-02 
433	 6.71426809851166E-02 
434	 6.62826321843212E-02 
435	 6.68030793932442E-02 
436	 6.73190514571495E-02 
437	 6.70083321111768E-02 
438	 6.73880753494423E-02 
439	 6.81041192780713E-02 
440	 6.81495286439449E-02 
441	 6.79908612767848E-02 
442	 6.78447728381692E-02 
443	 0.067974240119749 
444	 6.83320504406813E-02 
445	 6.88441482212843E-02 
446	 6.93019836156888E-02 
447	 6.95141750297516E-02 
448	 6.91209652586646E-02 
449	 6.89476244320844E-02 
450	 6.92374055732984E-02 
451	 6.95443585378686E-02 
452	 6.98683955887526E-02 
453	 7.02266324609522E-02 
454	 7.05335314989238E-02 
455	 7.06768690180563E-02 
456	 7.04042605476755E-02 
457	 7.01164488932297E-02 
458	 7.00512425862381E-02 
459	 0.070489064093662 
460	 7.06982313531785E-02 
461	 6.98378331903016E-02 
462	 6.96882388650141E-02 
463	 7.01983806152645E-02 
464	 6.98278837482733E-02 
465	 6.96126923726453E-02 
466	 7.00370040116552E-02 
467	 7.05730258592036E-02 
468	 7.08971420163165E-02 
469	 7.06434597568088E-02 
470	 7.06483937611678E-02 
471	 0.0709784343387 
472	 7.10410445150175E-02 
473	 7.09142343315253E-02 
474	 7.06618960271683E-02 
475	 7.03201789795991E-02 
476	 0.070191424470482 
477	 0.070803940469874 
478	 0.070919335264256 
479	 7.04763105227702E-02 
480	 7.08951925255993E-02 
481	 7.14117949717541E-02 
482	 7.13806326811654E-02 
483	 7.10275848401356E-02 
484	 7.07250033891481E-02 
485	 0.07132420372283 
486	 7.15255042734223E-02 
487	 7.10865415043117E-02 
488	 7.15393926096734E-02 
489	 7.19462026851503E-02 
490	 7.13280175584547E-02 
491	 7.08169659675759E-02 
492	 7.07968521966381E-02 
493	 7.17351270848654E-02 
494	 7.22819389174336E-02 
495	 7.19830632741287E-02 
496	 7.21843680878322E-02 
497	 0.072622558387492 
498	 7.27948761110153E-02 
499	 7.30247874596868E-02 
500	 7.32995454125112E-02 
501	 7.33201672386369E-02 
502	 7.34005259621656E-02 
503	 0.073705183887771 
504	 7.39141752274465E-02 
505	 7.40903410538937E-02 
506	 7.44109458945412E-02 
507	 7.46416181025391E-02 
508	 0.074841066069839 
509	 7.55229234631432E-02 
510	 7.61568579568396E-02 
511	 7.63534915120646E-02 
512	 7.68398069531279E-02 
513	 7.75052688151854E-02 
514	 7.77863686687554E-02 
515	 7.81741247488595E-02 
516	 7.87854731135699E-02 
517	 7.92549997080903E-02 
518	 7.96627734323303E-02 
519	 8.01216417945271E-02 
520	 8.06603039678043E-02 
521	 8.12620025248777E-02 
522	 8.18581375225812E-02 
523	 8.25539301796141E-02 
524	 8.33530135399822E-02 
525	 8.39413212809895E-02 
526	 8.44075766748999E-02 
527	 8.49225463222318E-02 
528	 8.53975540349082E-02 
529	 8.58202395728953E-02 
530	 8.62169626877609E-02 
531	 8.66305934043402E-02 
532	 8.71127650343793E-02 
533	 8.78787931688867E-02 
534	 8.85988183050686E-02 
535	 8.85279569786169E-02 
536	 8.89224449627659E-02 
537	 8.99468994283476E-02 
538	 9.03480777178261E-02 
539	 9.05070687956635E-02 
540	 9.08405902651531E-02 
541	 9.10880936799469E-02 
542	 9.12563814045747E-02 
543	 9.14452999559383E-02 
544	 9.17530336013245E-02 
545	 9.22130781291361E-02 
546	 9.27487239415361E-02 
547	 9.31375404351879E-02 
548	 9.31113919817895E-02 
549	 9.32201027205481E-02 
550	 9.35786367049045E-02 
551	 9.40603754244148E-02 
552	 9.44419427687378E-02 
553	 9.46025510602794E-02 
554	 9.48663683455001E-02 
555	 9.51857982341532E-02 
556	 9.53792863603714E-02 
557	 9.56634783890825E-02 
558	 9.59977444442085E-02 
559	 9.58770868599977E-02 
560	 9.57718864518154E-02 
561	 9.60937585783142E-02 
562	 9.61320662750046E-02 
563	 9.58922721257322E-02 
564	 9.57245203125548E-02 
565	 9.55989503973076E-02 
566	 9.55226221416409E-02 
567	 9.55000979897573E-02 
568	 9.54481307850229E-02 
569	 9.52648768341378E-02 
570	 9.52543829916625E-02 
571	 9.53855566758034E-02 
572	 0.095287729473787 
573	 9.51543840182579E-02 
574	 9.51084884190546E-02 
575	 9.51763654218752E-02 
576	 9.51691187982645E-02 
577	 9.47176623428591E-02 
578	 9.45658114876229E-02 
579	 9.47054728432738E-02 
580	 0.093931402123184 
581	 9.32929296197584E-02 
582	 9.36934223421636E-02 
583	 9.40173356157749E-02 
584	 9.40908344019066E-02 
585	 9.40542514234698E-02 
586	 9.38859044464488E-02 
587	 9.36494116759802E-02 
588	 9.37408259913737E-02 
589	 9.38077934213162E-02 
590	 9.33561123766135E-02 
591	 9.30200156919563E-02 
592	 9.28998318571947E-02 
593	 0.092730093996394 
594	 9.26778440491087E-02 
595	 9.28315197183814E-02 
596	 9.30901723439554E-02 
597	 9.33491586113339E-02 
598	 9.34872049126169E-02 
599	 9.33220922255449E-02 
600	 9.29090902686099E-02 
601	 9.27251601218573E-02 
602	 9.27108949247714E-02 
603	 9.27886043971769E-02 
604	 9.29374814509681E-02 
605	 9.29995798944031E-02 
606	 9.25585250766046E-02 
607	 9.23723849780306E-02 
608	 9.26627751737171E-02 
609	 9.27417840066812E-02 
610	 9.24759561973845E-02 
611	 9.17949466715746E-02 
612	 9.14410751316796E-02 
613	 9.14949271672288E-02 
614	 9.15084121970822E-02 
615	 9.15023918282325E-02 
616	 9.14604815957308E-02 
617	 9.12767232711759E-02 
618	 9.10026183284371E-02 
619	 9.07325486994419E-02 
620	 9.06283878900713E-02 
621	 9.06606807667636E-02 
622	 9.04696958758869E-02 
623	 9.01868315292388E-02 
624	 8.99634840969275E-02 
625	 9.00557098583519E-02 
626	 9.02609570693506E-02 
627	 8.98953550368867E-02 
628	 8.97094389637362E-02 
629	 8.99528273355392E-02 
630	 9.01898963358431E-02 
631	 9.02629014013157E-02 
632	 9.00370919534456E-02 
633	 9.01987086120563E-02 
634	 9.05885220122774E-02 
635	 9.00845597274787E-02 
636	 8.97107820367726E-02 
637	 8.99884978684556E-02 
638	 8.98798081428453E-02 
639	 8.94382302245216E-02 
640	 8.89821652025602E-02 
641	 8.87971468163266E-02 
642	 8.88294410249769E-02 
643	 8.83113255075622E-02 
644	 8.78737994294764E-02 
645	 8.80233724019425E-02 
646	 8.75412348590642E-02 
647	 8.66502579196899E-02 
648	 8.65417964816198E-02 
649	 8.64642791196741E-02 
650	 8.61346817651374E-02 
651	 8.56478934037922E-02 
652	 8.52557693708917E-02 
653	 8.52369495230899E-02 
654	 8.52192120250647E-02 
655	 8.51410101004909E-02 
656	 8.52036888074079E-02 
657	 8.50630177442763E-02 
658	 8.45480735955628E-02 
659	 8.38948291517711E-02 
660	 8.32327207484249E-02 
661	 8.27244290746474E-02 
662	 8.21196119972235E-02 
663	 8.14338597707849E-02 
664	 0.081041181129737 
665	 8.07176550016444E-02 
666	 8.02610146875359E-02 
667	 7.96592581668697E-02 
668	 7.91371632709995E-02 
669	 0.079355141350044 
670	 7.89747256790076E-02 
671	 7.78331180379449E-02 
672	 7.80479145944825E-02 
673	 7.86535834220271E-02 
674	 7.83830773016735E-02 
675	 7.85111126844468E-02 
676	 7.89908730611391E-02 
677	 7.87714904513819E-02 
678	 7.88177749348063E-02 
679	 7.95352150031735E-02 
680	 7.98233014468062E-02 
681	 0.079947293746047 
682	 0.080529721028131 
683	 8.12533721166735E-02 
684	 8.20082897668641E-02 
685	 8.26595926266729E-02 
686	 8.37682380275655E-02 
687	 0.085754817972713 
688	 8.73639133934856E-02 
689	 8.85210083669802E-02 
690	 8.98906755715631E-02 
691	 0.091828835159396 
692	 9.43917658758077E-02 
693	 9.68672532213981E-02 
694	 0.099434172174696 
695	 0.102197130928698 
696	 0.104795381120485 
697	 0.107268712822629 
698	 0.110061100232466 
699	 0.112583423583771 
700	 0.114633172689833 
701	 0.117201611172722 
702	 0.119983274644841 
703	 0.122413077363603 
704	 0.124869044777286 
705	 0.127342422087762 
706	 0.129410743674616 
707	 0.131432248865582 
708	 0.13358134919725 
709	 0.135206272971803 
710	 0.136656837997369 
711	 0.138737070482964 
712	 0.140930983195125 
713	 0.1429080740045 
714	 0.14402227641608 
715	 0.145070594910866 
716	 0.146861055819025 
717	 0.148336497133499 
718	 0.149538117515592 
719	 0.151227678307922 
720	 0.152450293940906 
721	 0.15307761966147 
722	 0.154331038220749 
723	 0.155710180242007 
724	 0.156484682193008 
725	 0.157481561504365 
726	 0.158719495728841 
727	 0.159961278379161 
728	 0.160746939586117 
729	 0.160949651317915 
730	 0.161493053958024 
731	 0.162249140319463 
732	 0.162878310946024 
733	 0.163647354231485 
734	 0.164469468175269 
735	 0.164812360453983 
736	 0.165174749146501 
737	 0.165850583225317 
738	 0.166400493083566 
739	 0.166848854820723 
740	 0.167360612490218 
741	 0.167794378362269 
742	 0.168108825137801 
743	 0.168325656007948 
744	 0.168514061728756 
745	 0.168750697244393 
746	 0.169201527465663 
747	 0.169785782871153 
748	 0.170274552447368 
749	 0.170665473648385 
750	 0.170920540429546 
751	 0.170926808902329 
752	 0.170940773989518 
753	 0.17123452526647 
754	 0.171600342732959 
755	 0.17206659728742 
756	 0.173005014078686 
757	 0.173102940263358 
758	 0.17198767551527 
759	 0.172358100484209 
760	 0.174561637034026 
761	 0.176279572505782 
762	 0.176485423470919 
763	 0.17590694160057 
764	 0.176437895155523 
765	 0.17688748996432 
766	 0.176848770675335 
767	 0.176503413724309 
768	 0.176317039948626 
769	 0.176848142765224 
770	 0.176947338642997 
771	 0.176573011755882 
772	 0.176572394060761 
773	 0.177118933183361 
774	 0.178203773238105 
775	 0.178680266879399 
776	 0.178804588000052 
777	 0.179406445988877 
778	 0.17949651554433 
779	 0.179052016266523 
780	 0.179197254049072 
781	 0.179556179403385 
782	 0.179793973336064 
783	 0.179899505818435 
784	 0.18000311740026 
785	 0.180408453119719 
786	 0.180781168918799 
787	 0.180950170767832 
788	 0.180621729355433 
789	 0.180612606584689 
790	 0.181613916239523 
791	 0.182316719537212 
792	 0.182517313795986 
793	 0.182374979713873 
794	 0.182191105399349 
795	 0.18210234867173 
796	 0.181989386963192 
797	 0.181954220345373 
798	 0.182112877291155 
799	 0.182671478821257 
800	 0.18338125512735 
801	 0.18347688289791 
802	 0.183603306940725 
803	 0.183964503045177 
804	 0.184246661778279 
805	 0.18432904154943 
806	 0.18414202430819 
807	 0.184438107071295 
808	 0.185062285524166 
809	 0.185071021226013 
810	 0.185184356206629 
811	 0.185636481882223 
812	 0.185793755023052 
813	 0.186003022714224 
814	 0.186775402115978 
815	 0.187856569210868 
816	 0.188859445892182 
817	 0.189043943591813 
818	 0.188412607037282 
819	 0.187429526524091 
820	 0.188242418482864 
821	 0.189665682195203 
822	 0.1901125898292 
823	 0.190041158025862 
824	 0.189798684747323 
825	 0.190070234799725 
826	 0.190636293063532 
827	 0.191330303698455 
828	 0.19170292816032 
829	 0.191477591725824 
830	 0.19047025412133 
831	 0.190932618520396 
832	 0.192656738394022 
833	 0.193691554805473 
834	 0.193803907796672 
835	 0.19314051647579 
836	 0.193535545798072 
837	 0.194110548364472 
838	 0.193736644840236 
839	 0.193774193843323 
840	 0.194271879988345 
841	 0.194501028629508 
842	 0.194924379790359 
843	 0.195567996020266 
844	 0.19555132612848 
845	 0.195225201541489 
846	 0.195064480899733 
847	 0.1948453354841 
848	 0.19463448653899 
849	 0.194710553473789 
850	 0.194733969020669 
851	 0.194690385963602 
852	 0.19534097774119 
853	 0.196128104699427 
854	 0.196367630409625 
855	 0.196005061886348 
856	 0.195428701249294 
857	 0.195623967153536 
858	 0.195647590351069 
859	 0.195339865001039 
860	 0.195460369973926 
861	 0.196184489918239 
862	 0.197512864261843 
863	 0.197712876371731 
864	 0.197244628453401 
865	 0.198046708132424 
866	 0.198469626168224 
867	 0.19819990377641 
868	 0.198475785057999 
869	 0.198784480483063 
870	 0.198772867947078 
871	 0.199545246956922 
872	 0.200840828622288 
873	 0.201886554737642 
874	 0.202433697527168 
875	 0.20229785837124 
876	 0.201045041322584 
877	 0.200872163026051 
878	 0.202970472753826 
879	 0.203507282948762 
880	 0.203206394956443 
881	 0.20414935795378 
882	 0.20431317163252 
883	 0.203724879548659 
884	 0.204316990246511 
885	 0.205110084020489 
886	 0.205526218153263 
887	 0.205599351039605 
888	 0.205858726553356 
889	 0.206974293378433 
890	 0.207906402947209 
891	 0.208145358745896 
892	 0.206783970934826 
893	 0.206331875963599 
894	 0.207799067763343 
895	 0.208792205567167 
896	 0.209340071033277 
897	 0.209667393422994 
898	 0.208927626223344 
899	 0.208399963696794 
900	 0.211780408831696 
901	 0.212849323005653 
902	 0.210630945025887 
903	 0.210813225622043 
904	 0.211132239765721 
905	 0.210067739635075 
906	 0.21172335414715 
907	 0.214409205494587 
908	 0.214144895092723 
909	 0.212911801702234 
910	 0.211610052390184 
911	 0.211308839784157 
912	 0.211770268085512 
913	 0.21274592282483 
914	 0.213863071371443 
915	 0.21435550753545 
916	 0.213493440450973 
917	 0.214210142400936 
918	 0.215474763851833 
919	 0.212407327386622 
920	 0.212020039145737 
921	 0.215464642750497 
922	 0.215085630711353 
923	 0.213392483046542 
924	 0.212969503339159 
925	 0.212970287241013 
926	 0.213209944467297 
927	 0.213461227230352 
928	 0.214017353419147 
929	 0.214345983661123 
930	 0.211229123699953 
931	 0.20990289727323 
932	 0.213924162460426 
933	 0.212436678993772 
934	 0.209850364525945 
935	 0.214704497612312 
936	 0.21669052051218 
937	 0.215730450501693 
938	 0.218899642862549 
939	 0.216818013649733 
940	 0.209586010749658 
941	 0.210644787046921 
942	 0.213342485536332 
943	 0.21271791721066 
944	 0.212116066304156 
945	 0.213147057398551 
946	 0.217618271758195 
947	 0.220308574844056 
948	 0.220478911873858 
949	 0.22132349168728 
950	 0.219856094716627 
951	 0.216404358026147 
952	 0.219773297037134 
953	 0.221969276657088 
954	 0.216131080730527 
955	 0.213807487119455 
956	 0.215756099019822 
957	 0.220043407454565 
958	 0.218808338813035 
959	 0.21281574481103 
960	 0.211563718531201 
961	 0.212673898290596 
962	 0.214698202744436 
963	 0.216728660625755 
964	 0.218219689816003 
965	 0.218696980200972 
966	 0.216624867649644 
967	 0.213456808441301 
968	 0.212420388397569 
969	 0.209509349949901 
970	 0.205864946401018 
971	 0.209405916469373 
972	 0.21498231158858 
973	 0.218938640115291 
974	 0.218122224228406 
975	 0.216732773608979 
976	 0.219391036120744 
977	 0.218074621192014 
978	 0.214208563730914 
979	 0.21411790985622 
980	 0.21415100202937 
981	 0.213741115248477 
982	 0.214691764344421 
983	 0.21517118203331 
984	 0.214802994247352 
985	 0.21783065687409 
986	 0.221910615429914 
987	 0.223948177389643 
988	 0.22130378742357 
989	 0.216446368922155 
990	 0.215057276230411 
991	 0.216079083128246 
992	 0.218427163146715 
993	 0.218746642461516 
994	 0.220509507734805 
995	 0.224408583273151 
996	 0.224526100800105 
997	 0.221695458492118 
998	 0.217714187707899 
999	 0.216790463910857 
1000	 0.218478547764746 
1001	 0.220640955638633 
1002	 0.215373991355298 
1003	 0.207311269936167 
1004	 0.219401058987056 
1005	 0.227271315512091 
1006	 0.222788591253109 
1007	 0.219867454001723 
1008	 0.21972362227259 
1009	 0.222183402427357 
1010	 0.221352134837521 
1011	 0.219068928367938 
1012	 0.219062997881584 
1013	 0.223086001084223 
1014	 0.227792951099508 
1015	 0.224604125272202 
1016	 0.221792553730453 
1017	 0.22198654530091 
1018	 0.224213745566152 
1019	 0.224733953827081 
1020	 0.222307262902689 
1021	 0.223034960279642 
1022	 0.226365870115982 
1023	 0.230287993967587 
1024	 0.225815132324924 
1025	 0.218315182577582 
1026	 0.218997138133109 
1027	 0.22245483881007 
1028	 0.225521625307645 
1029	 0.223581185530168 
1030	 0.217161804600553 
1031	 0.209013581936063 
1032	 0.209213048476064 
1033	 0.211295396898502 
1034	 0.211363423826346 
1035	 0.214389673440736 
1036	 0.218133302041884 
1037	 0.22087037541404 
1038	 0.23489522640448 
1039	 0.247483408682734 
1040	 0.234465966972245 
1041	 0.226100022914788 
1042	 0.228100400421361 
1043	 0.233572671643038 
1044	 0.232503691847895 
1045	 0.226181795978953 
1046	 0.24126424615622 
1047	 0.244816982349293 
1048	 0.22212652278168 
1049	 0.219168631115877 
1050	 0.217525710159736 
1051	 0.199528447935068 
1052	 0.211305276061196 
1053	 0.233743974768856 
1054	 0.22692112359163 
1055	 0.228245414419139 
1056	 0.237599657499788 
1057	 0.23625495391825 
1058	 0.227037770018446 
1059	 0.211885518606878 
1060	 0.199794750163277 
1061	 0.195871347394727 
1062	 0.204911179074201 
1063	 0.246518661932639 
1064	 0.256931596657437 
1065	 0.206908277367813 
1066	 0.216566375423869 
1067	 0.248801794606165 
1068	 0.253958595196546 
1069	 0.264077802474568 
1070	 0.266935913674421 
1071	 0.236298695360981 
1072	 0.222082134708237 
1073	 0.226616882811078 
1074	 0.225579581931044 
1075	 0.212007684089115 
