Wavelength	A00388.asd
325	 2.77147481071697E-02 
326	 0.030551981421655 
327	 4.06716732056172E-02 
328	 4.06232191303945E-02 
329	 3.94658550315447E-02 
330	 3.98045589812782E-02 
331	 3.60109366231224E-02 
332	 3.48468839832407E-02 
333	 0.04246233468566 
334	 4.59701280461179E-02 
335	 4.39799288627337E-02 
336	 0.037493121943836 
337	 3.66832790013455E-02 
338	 4.27389148102103E-02 
339	 4.51032361932156E-02 
340	 4.36705947181797E-02 
341	 3.94837746147956E-02 
342	 4.00857587186476E-02 
343	 0.042696441344086 
344	 3.98195132973469E-02 
345	 3.82871801364342E-02 
346	 3.94895052549933E-02 
347	 4.18059000519518E-02 
348	 4.17526332806892E-02 
349	 3.80119818567208E-02 
350	 0.039319832973757 
351	 4.21072799758292E-02 
352	 3.90105490081142E-02 
353	 3.75861607274733E-02 
354	 0.039171339180157 
355	 4.16597894755151E-02 
356	 4.20988443070701E-02 
357	 3.94922661339985E-02 
358	 4.06698681750389E-02 
359	 4.35301197300133E-02 
360	 4.37744382391149E-02 
361	 4.26291680096028E-02 
362	 4.13123512912274E-02 
363	 4.30606662102384E-02 
364	 4.34339978985035E-02 
365	 4.08797289835013E-02 
366	 4.18499539030306E-02 
367	 4.36050017028805E-02 
368	 4.16802013470984E-02 
369	 0.040934867034395 
370	 4.16741641999536E-02 
371	 0.040991356871222 
372	 4.02581867722288E-02 
373	 4.02946711178577E-02 
374	 4.13023874439638E-02 
375	 4.25173024801403E-02 
376	 4.29105699771914E-02 
377	 4.27059251046872E-02 
378	 0.042008408632991 
379	 4.07401133773037E-02 
380	 4.07684858622151E-02 
381	 4.26890722369915E-02 
382	 4.39369942968202E-02 
383	 4.36318232136155E-02 
384	 4.10612129485013E-02 
385	 4.07937123392654E-02 
386	 4.24623685515281E-02 
387	 4.11331632052806E-02 
388	 4.05210247137579E-02 
389	 4.16959415243701E-02 
390	 4.03569819748371E-02 
391	 0.039811476464562 
392	 4.40793678517672E-02 
393	 4.39179787319784E-02 
394	 4.01584835006523E-02 
395	 4.09428064496393E-02 
396	 4.20568705183783E-02 
397	 4.18282140578195E-02 
398	 4.14722770170319E-02 
399	 4.06854145669217E-02 
400	 3.91375451444168E-02 
401	 3.99162164677258E-02 
402	 4.21352318291026E-02 
403	 4.24759690913359E-02 
404	 4.20420635196978E-02 
405	 4.15045191139014E-02 
406	 4.22145608972974E-02 
407	 4.29917072265099E-02 
408	 4.22705125636851E-02 
409	 4.22483532439812E-02 
410	 4.28556327760108E-02 
411	 4.24328044507868E-02 
412	 4.20636024273482E-02 
413	 4.22207648507516E-02 
414	 4.24503232961055E-02 
415	 4.25951099255758E-02 
416	 4.25189100782843E-02 
417	 4.24498942908591E-02 
418	 4.25237620776111E-02 
419	 4.30231471481476E-02 
420	 4.32396845852297E-02 
421	 4.29169764849948E-02 
422	 4.32083976413595E-02 
423	 4.37044670245399E-02 
424	 4.36306972620211E-02 
425	 0.043643276481245 
426	 4.38617797201299E-02 
427	 4.41085811168549E-02 
428	 4.42923754234198E-02 
429	 4.43331622107773E-02 
430	 4.41180964222098E-02 
431	 4.39326597066293E-02 
432	 4.42802410118499E-02 
433	 4.41561655544164E-02 
434	 4.35708408749568E-02 
435	 4.34965382128288E-02 
436	 4.36933364650109E-02 
437	 4.40203635661997E-02 
438	 4.49284095263472E-02 
439	 4.56376757437426E-02 
440	 4.45766014019821E-02 
441	 4.41732085841079E-02 
442	 4.48489916960014E-02 
443	 4.49337599706989E-02 
444	 4.49148307501702E-02 
445	 4.52062241443147E-02 
446	 4.54445936302455E-02 
447	 4.55032178025666E-02 
448	 4.51520430172519E-02 
449	 4.53043261082675E-02 
450	 4.60706642146775E-02 
451	 4.63089227156671E-02 
452	 0.046268958028822 
453	 4.62713906003428E-02 
454	 4.63737434186919E-02 
455	 4.65375776014298E-02 
456	 4.66218533727021E-02 
457	 4.64772058802456E-02 
458	 4.62162675437102E-02 
459	 0.046922955207545 
460	 4.75331893801353E-02 
461	 4.67408402619547E-02 
462	 4.65970588392072E-02 
463	 4.70824154010132E-02 
464	 4.65335120923069E-02 
465	 4.63219035755966E-02 
466	 4.70480240072964E-02 
467	 4.76502253063975E-02 
468	 4.78929735685395E-02 
469	 4.76359897793456E-02 
470	 4.74475866358758E-02 
471	 4.75022792747467E-02 
472	 4.77786396370952E-02 
473	 4.79644433497626E-02 
474	 4.78361131690475E-02 
475	 4.72754358764879E-02 
476	 4.68635368853438E-02 
477	 4.76478309133844E-02 
478	 4.79453939846396E-02 
479	 4.74871505084135E-02 
480	 4.73890079448635E-02 
481	 4.75705056467986E-02 
482	 4.79051627978595E-02 
483	 4.78710161189654E-02 
484	 4.77535421212654E-02 
485	 4.85796523158325E-02 
486	 4.86457506263917E-02 
487	 4.77413401821861E-02 
488	 4.83304979480363E-02 
489	 4.90782124877552E-02 
490	 4.85408975543163E-02 
491	 4.80353987544671E-02 
492	 4.79379683647868E-02 
493	 4.85678525617056E-02 
494	 4.90403329459232E-02 
495	 4.90198279608439E-02 
496	 4.91944240119271E-02 
497	 4.94355967478303E-02 
498	 4.94968538484416E-02 
499	 4.97164032642976E-02 
500	 4.99692659717645E-02 
501	 4.95212892153026E-02 
502	 4.92400755656059E-02 
503	 4.95938594008807E-02 
504	 0.049785380637934 
505	 4.98590293313521E-02 
506	 0.050067607367828 
507	 0.050263691112232 
508	 5.04289583948623E-02 
509	 5.06400702624862E-02 
510	 5.08961839164408E-02 
511	 5.11709090464823E-02 
512	 5.11788403559783E-02 
513	 5.10685318127138E-02 
514	 5.12936603379958E-02 
515	 5.15400281080688E-02 
516	 0.051668246622794 
517	 5.15444158579022E-02 
518	 5.15262022399325E-02 
519	 5.19729537009117E-02 
520	 5.20891222326936E-02 
521	 5.19724457548775E-02 
522	 0.052334729181582 
523	 5.27361934141011E-02 
524	 5.30163305813519E-02 
525	 5.35466254423283E-02 
526	 5.39621119622111E-02 
527	 5.37043478162622E-02 
528	 5.36114917569931E-02 
529	 5.38127423679726E-02 
530	 5.38956131239747E-02 
531	 5.40166619879357E-02 
532	 5.42946080145503E-02 
533	 5.48778975281887E-02 
534	 5.53714205228222E-02 
535	 5.49362965732446E-02 
536	 5.48658139987341E-02 
537	 5.54055424397439E-02 
538	 5.55670643181181E-02 
539	 5.56211635930834E-02 
540	 5.58639113375432E-02 
541	 5.60768344475366E-02 
542	 5.61873145838597E-02 
543	 5.60840353706436E-02 
544	 5.61254627111614E-02 
545	 5.64284190992069E-02 
546	 5.66459536894864E-02 
547	 5.68006765666849E-02 
548	 5.69664905053368E-02 
549	 5.71224787854582E-02 
550	 5.72515293595339E-02 
551	 5.72859812433271E-02 
552	 5.74224746910858E-02 
553	 5.77401114987094E-02 
554	 5.77640543711043E-02 
555	 5.76776854554346E-02 
556	 5.79450651634759E-02 
557	 5.82089376046812E-02 
558	 5.83813626183288E-02 
559	 5.86156295449819E-02 
560	 5.88243255844347E-02 
561	 5.89199235235129E-02 
562	 5.88559936187413E-02 
563	 5.87614360331589E-02 
564	 5.90096276642967E-02 
565	 5.91040809138431E-02 
566	 5.89022361324629E-02 
567	 5.89026007721482E-02 
568	 0.058970993864914 
569	 5.88810643743257E-02 
570	 5.90897018771373E-02 
571	 5.95667004647281E-02 
572	 5.98932651064172E-02 
573	 5.98870146572834E-02 
574	 0.059519529525508 
575	 5.95771084277587E-02 
576	 5.98924155561331E-02 
577	 5.99480305649482E-02 
578	 5.99720516130679E-02 
579	 6.00062800467647E-02 
580	 5.99656127669971E-02 
581	 5.99289207165693E-02 
582	 5.99737273611659E-02 
583	 6.01576681355995E-02 
584	 0.060403348959622 
585	 6.05179658428126E-02 
586	 6.05151734121105E-02 
587	 6.03937473844037E-02 
588	 6.01444009603465E-02 
589	 5.99839246670507E-02 
590	 6.01847387516516E-02 
591	 6.03013439316896E-02 
592	 6.03029579606251E-02 
593	 6.05023751603676E-02 
594	 6.06255413265535E-02 
595	 6.05583486474124E-02 
596	 6.07348486282724E-02 
597	 6.10929030844015E-02 
598	 6.14680233010192E-02 
599	 6.12878303007399E-02 
600	 6.06126341586079E-02 
601	 6.05362402181007E-02 
602	 6.07551506226654E-02 
603	 0.060951468898868 
604	 6.11578744931283E-02 
605	 6.12706400645891E-02 
606	 6.10059955166966E-02 
607	 6.09502896478776E-02 
608	 6.12883459363382E-02 
609	 0.061524431611197 
610	 6.15778813848422E-02 
611	 6.14145822136208E-02 
612	 6.13282621899396E-02 
613	 6.13521902352251E-02 
614	 6.12890184409525E-02 
615	 6.12837029553338E-02 
616	 6.14064471873561E-02 
617	 6.15030163658977E-02 
618	 6.14787417434406E-02 
619	 6.11865373459227E-02 
620	 6.12251106860521E-02 
621	 6.16365197955197E-02 
622	 6.17959676863164E-02 
623	 6.16198236232804E-02 
624	 6.11020187799078E-02 
625	 6.09472971284808E-02 
626	 0.061097839096058 
627	 6.09681131167473E-02 
628	 6.10970528932238E-02 
629	 0.061582747118656 
630	 6.17530734148122E-02 
631	 6.16869163283428E-02 
632	 6.15656653875291E-02 
633	 6.18133107264171E-02 
634	 6.22587217294098E-02 
635	 6.19579614927108E-02 
636	 6.17153069650426E-02 
637	 6.19601617873311E-02 
638	 6.20073205405011E-02 
639	 6.19259863560281E-02 
640	 6.19831338592842E-02 
641	 6.22419011078275E-02 
642	 6.25929655009798E-02 
643	 6.24166491212614E-02 
644	 6.24438921780052E-02 
645	 6.32447624282017E-02 
646	 6.33035351137712E-02 
647	 6.26828959305864E-02 
648	 6.22859868027807E-02 
649	 0.062064610127934 
650	 6.20388611111573E-02 
651	 6.21067550126812E-02 
652	 6.22144003050628E-02 
653	 0.062314928788033 
654	 6.25398224966715E-02 
655	 6.27101676092073E-02 
656	 6.20733718845494E-02 
657	 6.15530775110889E-02 
658	 6.16185340313998E-02 
659	 0.061182058363709 
660	 6.06394466726018E-02 
661	 6.08588702994547E-02 
662	 6.05371074464711E-02 
663	 5.96472422761191E-02 
664	 5.97253045709578E-02 
665	 6.00331389467695E-02 
666	 5.99032683704327E-02 
667	 5.94411006002893E-02 
668	 5.89319340560171E-02 
669	 5.90877813749275E-02 
670	 5.89311715487406E-02 
671	 5.83215183804509E-02 
672	 5.86482157235986E-02 
673	 5.91231624090449E-02 
674	 5.87549196677178E-02 
675	 5.87490720217306E-02 
676	 5.91012806823342E-02 
677	 5.89339474514292E-02 
678	 0.0588036259173 
679	 5.90199786728942E-02 
680	 5.95478874553405E-02 
681	 6.00552323756667E-02 
682	 6.00257212774782E-02 
683	 6.02372403458664E-02 
684	 6.08352205219004E-02 
685	 6.14621382874022E-02 
686	 6.21149042071793E-02 
687	 6.27602547080257E-02 
688	 6.32591005735136E-02 
689	 6.37614241030086E-02 
690	 6.47707123815151E-02 
691	 6.56088177409224E-02 
692	 6.61479958667188E-02 
693	 6.67864519917904E-02 
694	 6.76517638719059E-02 
695	 6.87910013669716E-02 
696	 0.06974179103051 
697	 7.04829080815146E-02 
698	 7.13249640303539E-02 
699	 7.18414345472615E-02 
700	 7.19537863762994E-02 
701	 0.072671643411642 
702	 7.35932129331638E-02 
703	 0.074015098914658 
704	 7.44600747551807E-02 
705	 7.49203380424921E-02 
706	 7.48665406898475E-02 
707	 7.50007175786028E-02 
708	 7.56987257416429E-02 
709	 7.59113563670445E-02 
710	 7.60318631071453E-02 
711	 7.71016605726627E-02 
712	 7.77778724552708E-02 
713	 7.78043778763385E-02 
714	 7.80837596694925E-02 
715	 7.83898003642264E-02 
716	 7.85160310300032E-02 
717	 7.88786536349356E-02 
718	 7.94428533635859E-02 
719	 7.97207040850875E-02 
720	 7.99285965990835E-02 
721	 8.01184763691384E-02 
722	 8.01790491758953E-02 
723	 8.01484256708733E-02 
724	 8.00679568595529E-02 
725	 8.05043600505426E-02 
726	 8.12981043858385E-02 
727	 8.16509887398521E-02 
728	 8.18054098586142E-02 
729	 8.18999743538834E-02 
730	 8.20749461896555E-02 
731	 8.23220031688839E-02 
732	 8.26008376365874E-02 
733	 8.26608395004512E-02 
734	 8.26311239639728E-02 
735	 8.31139890241002E-02 
736	 8.37832782030353E-02 
737	 8.43211440384986E-02 
738	 8.41368826880839E-02 
739	 8.37029342690227E-02 
740	 8.40282281311341E-02 
741	 8.45578041452977E-02 
742	 8.50246519240136E-02 
743	 8.50966224092872E-02 
744	 8.49806121062297E-02 
745	 8.48974382628111E-02 
746	 8.51735376557827E-02 
747	 8.56668587864898E-02 
748	 8.59048596038552E-02 
749	 8.61082596998303E-02 
750	 8.62917196349488E-02 
751	 8.61695843147045E-02 
752	 8.60705191515458E-02 
753	 8.63374101001761E-02 
754	 8.63715824979489E-02 
755	 0.086236058567442 
756	 8.64348433169116E-02 
757	 8.68521745197659E-02 
758	 8.74229444290134E-02 
759	 8.76598831387522E-02 
760	 8.77876289908393E-02 
761	 8.83939340030061E-02 
762	 8.85902166740319E-02 
763	 8.84539369134447E-02 
764	 0.088610456217201 
765	 8.90152381302925E-02 
766	 8.95336758821463E-02 
767	 8.97637003851174E-02 
768	 8.98098132826694E-02 
769	 8.97910952243296E-02 
770	 9.00375048282917E-02 
771	 9.03825143177252E-02 
772	 8.97907799616952E-02 
773	 0.089662055557432 
774	 9.07436850120786E-02 
775	 9.07963214226514E-02 
776	 9.03094951338324E-02 
777	 9.07497555728075E-02 
778	 9.12353050234277E-02 
779	 9.14486732169549E-02 
780	 9.11437740715637E-02 
781	 9.09986402489027E-02 
782	 9.15088257755455E-02 
783	 9.18503795835366E-02 
784	 9.20165446115478E-02 
785	 9.23183008565566E-02 
786	 9.24059964302025E-02 
787	 0.092313004181333 
788	 9.27490987380891E-02 
789	 9.31949323905059E-02 
790	 0.093172604489661 
791	 9.34603921982839E-02 
792	 9.38658453610505E-02 
793	 9.35106028064451E-02 
794	 9.35832550861557E-02 
795	 9.42179908918948E-02 
796	 9.36939519612632E-02 
797	 9.32980791785318E-02 
798	 9.43033663434641E-02 
799	 9.44883610454302E-02 
800	 9.39859199659204E-02 
801	 9.43479886513226E-02 
802	 9.48108512954716E-02 
803	 9.50765700511447E-02 
804	 9.50913046634065E-02 
805	 9.51844205884751E-02 
806	 9.56821357671084E-02 
807	 9.56679731930965E-02 
808	 0.095403615935311 
809	 9.62469005096911E-02 
810	 9.68283942121803E-02 
811	 0.096611135411391 
812	 0.096281676664927 
813	 0.096303299323577 
814	 9.71714541275938E-02 
815	 0.097457262190316 
816	 9.71740119651764E-02 
817	 9.77131616809491E-02 
818	 0.097979288199183 
819	 0.097635576826005 
820	 9.75077591141971E-02 
821	 9.76835724061365E-02 
822	 9.81765183985405E-02 
823	 9.83215558288251E-02 
824	 9.81993730582414E-02 
825	 9.85135171773789E-02 
826	 9.89948653891311E-02 
827	 9.94590316821719E-02 
828	 9.93842259541648E-02 
829	 9.92273071429064E-02 
830	 9.95930214081799E-02 
831	 9.99858864854945E-02 
832	 0.100188053814339 
833	 9.98956560041165E-02 
834	 9.96557088521377E-02 
835	 9.98475076620676E-02 
836	 0.10114643598465 
837	 0.10210734001974 
838	 0.10114092891718 
839	 0.100532188361261 
840	 0.100631458810249 
841	 0.100890686333831 
842	 0.101221393551263 
843	 0.101562344035822 
844	 0.102016111891004 
845	 0.102480013277197 
846	 0.102805664960182 
847	 0.102205961987935 
848	 0.101194851162653 
849	 0.101672210536046 
850	 0.102220785325993 
851	 0.102318164631813 
852	 0.102666274468913 
853	 0.10248848477223 
854	 0.101101667337067 
855	 0.101855970084597 
856	 0.103856872234546 
857	 0.103181712239569 
858	 0.102720626385385 
859	 0.103170104197075 
860	 0.102838874157743 
861	 0.102779920226411 
862	 0.103945109158522 
863	 0.104327028570989 
864	 0.103943696011101 
865	 0.103708741586205 
866	 0.103859244242868 
867	 0.104381710205 
868	 0.104596957660885 
869	 0.104578648114691 
870	 0.104491996605145 
871	 0.10517509739715 
872	 0.105910956358444 
873	 0.104994520206772 
874	 0.105286018991536 
875	 0.106787861895283 
876	 0.10562043881316 
877	 0.104892675065502 
878	 0.10652219489665 
879	 0.106809773937109 
880	 0.106279000638877 
881	 0.106613761358997 
882	 0.106676491884367 
883	 0.106336040674185 
884	 0.105975514944094 
885	 0.106471415925565 
886	 0.108013589564412 
887	 0.108172494628755 
888	 0.10799786134923 
889	 0.10919700084997 
890	 0.109536141943427 
891	 0.108838318293211 
892	 0.108172447211323 
893	 0.107776713086924 
894	 0.107896099563182 
895	 0.108684289021522 
896	 0.109589299234437 
897	 0.109938427396601 
898	 0.110092770466027 
899	 0.110388801836062 
900	 0.111594371567438 
901	 0.111633825880378 
902	 0.110270920551693 
903	 0.109659203924353 
904	 0.109601028707881 
905	 0.109836427020708 
906	 0.109750056199888 
907	 0.110061705199817 
908	 0.112325063882355 
909	 0.111870730015923 
910	 0.108985747107705 
911	 0.110281946434463 
912	 0.112332679735853 
913	 0.11309967458957 
914	 0.113427119957549 
915	 0.113413360833914 
916	 0.113156689879216 
917	 0.113646787363522 
918	 0.114357314813812 
919	 0.11333118369678 
920	 0.11220766013049 
921	 0.111660438895266 
922	 0.111634557289393 
923	 0.112068405810445 
924	 0.112774167247569 
925	 0.112175774703424 
926	 0.111290878239408 
927	 0.113054921346992 
928	 0.113870554125362 
929	 0.112436414783955 
930	 0.108990038675623 
931	 0.109185068045995 
932	 0.116232859267453 
933	 0.113286074738318 
934	 0.107308673833488 
935	 0.112150999413751 
936	 0.11517475296836 
937	 0.114299594430422 
938	 0.112145665070317 
939	 0.110172642774747 
940	 0.110374191892276 
941	 0.119432285348806 
942	 0.121980778102309 
943	 0.109550358949435 
944	 0.111389749381917 
945	 0.119769381441158 
946	 0.116472466344097 
947	 0.112971329025876 
948	 0.113090796867832 
949	 0.119933045983606 
950	 0.123829523522425 
951	 0.121261547547069 
952	 0.119413085478315 
953	 0.116413088836411 
954	 0.111082326896599 
955	 0.114190524877532 
956	 0.121367720328711 
957	 0.121782415909822 
958	 0.122283600321021 
959	 0.122428317128871 
960	 0.114098826989703 
961	 0.111505263226264 
962	 0.119133579116884 
963	 0.121245885192475 
964	 0.119347887990874 
965	 0.116418806094761 
966	 0.116658090010303 
967	 0.118297628562502 
968	 0.116433028323574 
969	 0.112911615552161 
970	 0.109698887312167 
971	 0.111928772240926 
972	 0.114821098874196 
973	 0.115809278484663 
974	 0.116612053505479 
975	 0.119187461746491 
976	 0.124900155858789 
977	 0.124212609155234 
978	 0.119236662500378 
979	 0.118573483430194 
980	 0.118233700865702 
981	 0.11785346609456 
982	 0.120294611648037 
983	 0.120645677934838 
984	 0.11698793554976 
985	 0.115009773038282 
986	 0.116420003396874 
987	 0.121668334419467 
988	 0.121143978973538 
989	 0.115701246060904 
990	 0.110510746683835 
991	 0.11105699398764 
992	 0.116292419518802 
993	 0.115355906391583 
994	 0.114974011051819 
995	 0.117615420525322 
996	 0.116467255674646 
997	 0.116921267013959 
998	 0.123490911127405 
999	 0.12091684706207 
1000	 0.114260392106849 
1001	 0.116576490856837 
1002	 0.117508257103302 
1003	 0.116354621294201 
1004	 0.119986838716174 
1005	 0.121106739162928 
1006	 0.117291761243814 
1007	 0.111934335242536 
1008	 0.110702314467986 
1009	 0.116674717214729 
1010	 0.118863354270784 
1011	 0.117673720793666 
1012	 0.115913341763697 
1013	 0.117606694049347 
1014	 0.121671137377534 
1015	 0.123841351636698 
1016	 0.118940064322679 
1017	 0.110212699617293 
1018	 0.118371970295012 
1019	 0.124219749341199 
1020	 0.118461704365147 
1021	 0.114777179092503 
1022	 0.115009696954265 
1023	 0.119191338193543 
1024	 0.123273005370968 
1025	 0.122274728099143 
1026	 0.109693388376518 
1027	 0.114882872933873 
1028	 0.134040264300607 
1029	 0.132974810232143 
1030	 0.124604541267871 
1031	 0.116749997780937 
1032	 0.124678646146817 
1033	 0.128897852530491 
1034	 0.120391933619693 
1035	 0.130658952599824 
1036	 0.1393354245521 
1037	 0.124831711197791 
1038	 0.117101870708051 
1039	 0.117161862618712 
1040	 0.116546288659522 
1041	 0.115768647407422 
1042	 0.118532916542377 
1043	 0.139019743717652 
1044	 0.140419882060347 
1045	 0.119468630477722 
1046	 0.12961892511591 
1047	 0.132981397530287 
1048	 0.11239866367584 
1049	 0.115475999106721 
1050	 0.125295910331276 
1051	 0.123586311375027 
1052	 0.128493200755882 
1053	 0.135211622051043 
1054	 0.132585652109753 
1055	 0.121024295150335 
1056	 0.116341166513107 
1057	 0.15622790306216 
1058	 0.147097183530608 
1059	 0.087613357064158 
1060	 0.106452208177067 
1061	 0.132154562657055 
1062	 0.134845799501659 
1063	 0.129661398580404 
1064	 0.116504422397987 
1065	 0.102306491309189 
1066	 0.130020673246104 
1067	 0.152561557785633 
1068	 0.121453683354541 
1069	 0.118883240851668 
1070	 0.13168021895469 
1071	 0.110771983501099 
1072	 0.120287156438504 
1073	 0.141923445548537 
1074	 9.38521078291357E-02 
1075	 7.79212586713272E-02 
