Wavelength	A00360.asd
325	 3.51802071512161E-02 
326	 3.63890769134828E-02 
327	 4.28757647564148E-02 
328	 4.35692583512815E-02 
329	 4.27297015870053E-02 
330	 4.17014752854034E-02 
331	 3.86013874274488E-02 
332	 3.65994876585012E-02 
333	 3.85649690035245E-02 
334	 3.76832731066289E-02 
335	 3.52597842968103E-02 
336	 3.64689256501737E-02 
337	 4.04124519694862E-02 
338	 4.51380075913453E-02 
339	 4.45804863275561E-02 
340	 4.02609592979478E-02 
341	 3.46420761773594E-02 
342	 0.0378998612722 
343	 4.56560819587288E-02 
344	 4.78859478007317E-02 
345	 4.45601560986636E-02 
346	 3.86923782990752E-02 
347	 0.042003699204234 
348	 4.57916711508113E-02 
349	 4.45013383510008E-02 
350	 4.44027140693257E-02 
351	 4.49468562010106E-02 
352	 4.40842094528615E-02 
353	 4.25867150871381E-02 
354	 4.12310708383838E-02 
355	 4.19659792374353E-02 
356	 4.25027557854742E-02 
357	 4.18712040060512E-02 
358	 4.43609383781126E-02 
359	 4.71225987558725E-02 
360	 4.53726895693659E-02 
361	 4.22133165767649E-02 
362	 3.99049037624528E-02 
363	 4.30571792585616E-02 
364	 4.48783779903765E-02 
365	 0.042375546818294 
366	 4.14546122858085E-02 
367	 4.16264965390403E-02 
368	 4.13791477222481E-02 
369	 4.27182538613379E-02 
370	 4.49567534396515E-02 
371	 4.44606422659314E-02 
372	 4.38683719573523E-02 
373	 4.45693400265634E-02 
374	 4.54379610443097E-02 
375	 4.63101608175985E-02 
376	 4.71262456628169E-02 
377	 4.57667124293883E-02 
378	 0.04282465144374 
379	 4.16561085524918E-02 
380	 4.13242378141042E-02 
381	 0.041548720564636 
382	 4.35080236730764E-02 
383	 4.53476800571035E-02 
384	 4.45958762167333E-02 
385	 4.47046894886475E-02 
386	 4.56579341012485E-02 
387	 0.044852935422772 
388	 0.043680813500965 
389	 4.30527684819836E-02 
390	 4.42493322251337E-02 
391	 4.59394502541362E-02 
392	 4.64742480974736E-02 
393	 4.45932419747116E-02 
394	 4.20713461034578E-02 
395	 4.48997180090437E-02 
396	 4.58633084977869E-02 
397	 4.30491497863344E-02 
398	 4.37768574336001E-02 
399	 4.46555533985916E-02 
400	 4.19312689919759E-02 
401	 4.18372006457149E-02 
402	 4.40173802593585E-02 
403	 4.50389697652182E-02 
404	 4.52879221479516E-02 
405	 4.49705001567789E-02 
406	 4.46478974322719E-02 
407	 4.46848903211013E-02 
408	 4.54092360332981E-02 
409	 4.56844766405681E-02 
410	 0.045374309852058 
411	 4.48148249655883E-02 
412	 4.46513448007197E-02 
413	 0.0450893471453 
414	 0.045288442290937 
415	 4.51670886118042E-02 
416	 4.47483023740477E-02 
417	 4.42702481503769E-02 
418	 4.40767261316478E-02 
419	 4.50176496515456E-02 
420	 4.57975892489291E-02 
421	 4.57385436128117E-02 
422	 4.55496272343265E-02 
423	 4.54170461081288E-02 
424	 4.54730222156696E-02 
425	 4.56544107143868E-02 
426	 4.59484513289671E-02 
427	 4.64258160239732E-02 
428	 4.66435392724532E-02 
429	 4.63930992660656E-02 
430	 4.65212756397507E-02 
431	 4.67834735039263E-02 
432	 0.046604215062889 
433	 0.046053752101916 
434	 4.54620396650054E-02 
435	 4.58524893593728E-02 
436	 4.62699125784819E-02 
437	 4.61483668342889E-02 
438	 4.65844129298591E-02 
439	 4.71680012102652E-02 
440	 0.046856901136089 
441	 4.67748133372465E-02 
442	 4.71223940528604E-02 
443	 4.72429609058902E-02 
444	 4.71994044515864E-02 
445	 4.70816420139763E-02 
446	 4.70882031200686E-02 
447	 4.72601743673156E-02 
448	 4.76217091345387E-02 
449	 4.78565555070694E-02 
450	 4.79111904205769E-02 
451	 4.81605589346191E-02 
452	 4.84651593326335E-02 
453	 4.86594465427007E-02 
454	 4.86150873024859E-02 
455	 4.84905829236548E-02 
456	 4.87927355193785E-02 
457	 4.90588121516523E-02 
458	 4.91175576490925E-02 
459	 4.92469592324853E-02 
460	 4.91456156609288E-02 
461	 4.84692640840028E-02 
462	 0.048607609985014 
463	 4.93093312631331E-02 
464	 4.87020050754915E-02 
465	 4.83606593243662E-02 
466	 4.90043455809253E-02 
467	 4.95855697740775E-02 
468	 4.97996250898134E-02 
469	 4.93918786242875E-02 
470	 4.95668189899921E-02 
471	 5.02385334521133E-02 
472	 4.98532906230551E-02 
473	 4.95457151293698E-02 
474	 4.99673015778104E-02 
475	 5.01599168806955E-02 
476	 5.01423910125156E-02 
477	 5.02176980760994E-02 
478	 4.96563958443444E-02 
479	 4.87946697140588E-02 
480	 4.98621939990267E-02 
481	 5.09176910026263E-02 
482	 5.04242810064254E-02 
483	 5.00032253754548E-02 
484	 5.00057953946837E-02 
485	 5.06730363403087E-02 
486	 5.07760933033534E-02 
487	 5.01623281192742E-02 
488	 5.08256831774489E-02 
489	 5.13523640867963E-02 
490	 5.03101067503812E-02 
491	 5.00061504148542E-02 
492	 5.05872548778791E-02 
493	 5.12797335024629E-02 
494	 5.14626259077697E-02 
495	 5.09710733132632E-02 
496	 5.08535756110344E-02 
497	 5.11217272950886E-02 
498	 5.16459324715301E-02 
499	 5.19366890882715E-02 
500	 5.19141380112766E-02 
501	 5.18011413811074E-02 
502	 0.051849327561916 
503	 5.21700079496807E-02 
504	 5.22919743417752E-02 
505	 5.23219337558396E-02 
506	 5.25339942035179E-02 
507	 5.28588149681265E-02 
508	 5.32231457966311E-02 
509	 5.34422945018495E-02 
510	 5.34974935524794E-02 
511	 5.34156690827174E-02 
512	 5.35715961274453E-02 
513	 5.39915256396674E-02 
514	 5.46502051743606E-02 
515	 5.49160884494062E-02 
516	 0.054668940916577 
517	 5.47186212119022E-02 
518	 5.50656598682694E-02 
519	 5.56056280238376E-02 
520	 5.56544287209409E-02 
521	 5.54827382998706E-02 
522	 5.62528275002963E-02 
523	 5.68697543184946E-02 
524	 5.69097262186825E-02 
525	 5.71589230027491E-02 
526	 0.057460782230128 
527	 0.057472987581317 
528	 5.77337817828555E-02 
529	 5.81725021144293E-02 
530	 0.058028503396757 
531	 5.80074814665814E-02 
532	 5.85434683301982E-02 
533	 5.90521267541532E-02 
534	 5.93221713907212E-02 
535	 5.90959717109331E-02 
536	 5.91054442180223E-02 
537	 5.95329072793244E-02 
538	 5.99640062477319E-02 
539	 6.03121447771374E-02 
540	 0.060509265971756 
541	 6.05537679307437E-02 
542	 6.05596699391319E-02 
543	 6.08347636194945E-02 
544	 0.060952400994968 
545	 6.08478933784681E-02 
546	 6.13119519054521E-02 
547	 0.061848868039271 
548	 6.17317110160087E-02 
549	 6.16479393836474E-02 
550	 6.17818085162099E-02 
551	 6.21089633885315E-02 
552	 6.25478838233853E-02 
553	 6.29823808896478E-02 
554	 6.29814162141352E-02 
555	 6.27685841138271E-02 
556	 6.28535836086458E-02 
557	 6.30821597745552E-02 
558	 6.33894788367241E-02 
559	 6.36677150428594E-02 
560	 6.38625280802093E-02 
561	 6.39359141762667E-02 
562	 6.39711631322896E-02 
563	 6.40016585652601E-02 
564	 6.40758529109337E-02 
565	 6.40524178712917E-02 
566	 0.063895146965216 
567	 0.063766233081268 
568	 6.36924874137624E-02 
569	 6.36850060618703E-02 
570	 6.39772804608513E-02 
571	 6.44739245001252E-02 
572	 0.064724405973145 
573	 6.47290861990552E-02 
574	 6.45524941894977E-02 
575	 6.47729413546275E-02 
576	 6.51064671821688E-02 
577	 6.48785762089785E-02 
578	 6.46654098197685E-02 
579	 6.46274944899657E-02 
580	 6.45964134334206E-02 
581	 6.46236875094999E-02 
582	 6.47532986002833E-02 
583	 6.49323272121943E-02 
584	 0.065098615173391 
585	 6.51238145531176E-02 
586	 6.51978028638945E-02 
587	 6.53478641400337E-02 
588	 6.52403546304775E-02 
589	 6.50279794678784E-02 
590	 0.064953878860534 
591	 6.50706260661096E-02 
592	 6.53153682437645E-02 
593	 6.54861154389185E-02 
594	 0.065444820467569 
595	 6.52040383694585E-02 
596	 6.56178507111091E-02 
597	 6.62130377117251E-02 
598	 6.59729919322414E-02 
599	 6.56058932230052E-02 
600	 6.53929321635982E-02 
601	 0.065539323869113 
602	 6.57464156230836E-02 
603	 6.57479406167729E-02 
604	 6.57905104098924E-02 
605	 6.58620738651098E-02 
606	 6.57940553647561E-02 
607	 6.59028750960007E-02 
608	 6.62269190054553E-02 
609	 6.62019847514089E-02 
610	 6.59463742265473E-02 
611	 6.56790073099349E-02 
612	 6.54686040011623E-02 
613	 6.53885917779691E-02 
614	 6.56057667212035E-02 
615	 0.065642324766374 
616	 6.52523180710755E-02 
617	 0.065047291124456 
618	 6.49959448527589E-02 
619	 6.48858900635662E-02 
620	 6.47469901871927E-02 
621	 6.46966261405861E-02 
622	 0.065304421168933 
623	 6.56005651207663E-02 
624	 6.47922854940455E-02 
625	 0.064593185008531 
626	 6.49850866529078E-02 
627	 6.50486346673405E-02 
628	 6.50604653539106E-02 
629	 6.51006018711944E-02 
630	 6.51615562791032E-02 
631	 0.065202438450479 
632	 6.51737673409783E-02 
633	 6.53287447027769E-02 
634	 6.55796374999222E-02 
635	 0.065417329147787 
636	 6.53640169132662E-02 
637	 6.56657669587143E-02 
638	 6.56121870406661E-02 
639	 0.065413587224849 
640	 6.56059057607656E-02 
641	 6.58453466986939E-02 
642	 6.59738859716853E-02 
643	 6.58142793497488E-02 
644	 6.56056452234981E-02 
645	 6.55637008483484E-02 
646	 6.55976647805541E-02 
647	 6.55999712700266E-02 
648	 6.53208010658673E-02 
649	 6.50866997580827E-02 
650	 6.50298692907398E-02 
651	 0.065042338211391 
652	 0.065059099572186 
653	 6.50142564281515E-02 
654	 6.48899132106368E-02 
655	 6.47015495662266E-02 
656	 6.45625474977066E-02 
657	 6.43892885929126E-02 
658	 6.41246112083823E-02 
659	 6.36575853669533E-02 
660	 6.31774561405394E-02 
661	 6.30308256909926E-02 
662	 0.062555295716778 
663	 6.17133958197298E-02 
664	 6.11479658954718E-02 
665	 0.060934410959717 
666	 6.10543087476704E-02 
667	 6.06935616346623E-02 
668	 6.01073955040585E-02 
669	 6.03612098039804E-02 
670	 6.02879389526994E-02 
671	 5.96353990177502E-02 
672	 5.95450244957958E-02 
673	 5.96854697490734E-02 
674	 5.95783148140807E-02 
675	 5.94328300517865E-02 
676	 5.93699193326453E-02 
677	 5.95891284959863E-02 
678	 6.00285532154204E-02 
679	 6.05871397833622E-02 
680	 6.08323022673331E-02 
681	 6.09530487028191E-02 
682	 6.13342276234928E-02 
683	 6.17586670335129E-02 
684	 6.21935204634231E-02 
685	 0.062750513928901 
686	 6.34129965731521E-02 
687	 6.41556202666524E-02 
688	 6.50433061947035E-02 
689	 6.59001636638354E-02 
690	 6.64510573102417E-02 
691	 6.75103710646348E-02 
692	 6.91433000885694E-02 
693	 7.01757865404817E-02 
694	 7.10814051612465E-02 
695	 7.23641790818339E-02 
696	 7.35712362679377E-02 
697	 7.46529671626858E-02 
698	 7.57650841791104E-02 
699	 7.67798275011639E-02 
700	 7.76505534419381E-02 
701	 7.85743202794598E-02 
702	 7.96734896391622E-02 
703	 8.10835002553619E-02 
704	 8.19116096122226E-02 
705	 8.22094582615202E-02 
706	 8.28865547212116E-02 
707	 8.38047323879532E-02 
708	 8.48010537869022E-02 
709	 8.51877843538776E-02 
710	 8.54975052261713E-02 
711	 8.69404321513364E-02 
712	 8.79548974383439E-02 
713	 8.81784365464364E-02 
714	 8.83185804137657E-02 
715	 8.87700383849814E-02 
716	 8.98660899054806E-02 
717	 9.03169270032616E-02 
718	 9.02299708262991E-02 
719	 9.10156364976852E-02 
720	 9.15100580968126E-02 
721	 0.091420311008538 
722	 9.14296290397757E-02 
723	 9.14989170267664E-02 
724	 9.15472702473332E-02 
725	 9.19633903996288E-02 
726	 9.27680071761554E-02 
727	 9.39421038447071E-02 
728	 9.44846649804328E-02 
729	 9.40341731107867E-02 
730	 9.40301818451095E-02 
731	 9.43924957376261E-02 
732	 9.47569704396143E-02 
733	 9.49681232631952E-02 
734	 9.50992632786138E-02 
735	 0.095553937401066 
736	 9.60611793551496E-02 
737	 9.64132018947296E-02 
738	 9.66445190068831E-02 
739	 9.67562619804909E-02 
740	 9.67423368907197E-02 
741	 9.66451049421966E-02 
742	 9.66734769034844E-02 
743	 9.76689469928024E-02 
744	 9.82772580590731E-02 
745	 9.74824006889425E-02 
746	 9.75654194250494E-02 
747	 9.83871908565874E-02 
748	 9.86431118439082E-02 
749	 9.88299149943978E-02 
750	 9.89869599405491E-02 
751	 9.85167217648724E-02 
752	 9.82581375274005E-02 
753	 9.90666073225315E-02 
754	 9.93381263247201E-02 
755	 9.90757097947572E-02 
756	 9.92917534342292E-02 
757	 0.099543418381815 
758	 0.099627899383328 
759	 9.91781555370196E-02 
760	 9.89211270728451E-02 
761	 0.101213560103154 
762	 0.102222138912744 
763	 0.101666635159229 
764	 0.101679284707176 
765	 0.101880324086322 
766	 0.102094647668098 
767	 0.102194545129559 
768	 0.102123204306072 
769	 0.10178748772745 
770	 0.10175383051049 
771	 0.102057552632764 
772	 0.102232535062666 
773	 0.102461097570459 
774	 0.102810120391766 
775	 0.102723701277272 
776	 0.102630582308723 
777	 0.103469690365727 
778	 0.103820602374629 
779	 0.103497702335209 
780	 0.103682452123797 
781	 0.103974333600375 
782	 0.104037059931856 
783	 0.103992147514069 
784	 0.104089770793576 
785	 0.104865501521022 
786	 0.105305908271311 
787	 0.105082466756315 
788	 0.104425997641256 
789	 0.104066592600333 
790	 0.104636390449007 
791	 0.10533071911696 
792	 0.105855993620458 
793	 0.10595217192242 
794	 0.105858726061312 
795	 0.105713443760803 
796	 0.105673060118806 
797	 0.10571003011509 
798	 0.105780874575966 
799	 0.105878028519973 
800	 0.105959808762024 
801	 0.1059077706862 
802	 0.105970236180834 
803	 0.10621247605326 
804	 0.106377789206011 
805	 0.10653499750176 
806	 0.10678104492923 
807	 0.107180151051466 
808	 0.107557474228741 
809	 0.107354833028426 
810	 0.107254030017916 
811	 0.10753106726829 
812	 0.107814152762723 
813	 0.108025333619571 
814	 0.108108684179888 
815	 0.10849950413301 
816	 0.109061999318886 
817	 0.109031260716517 
818	 0.108926784995582 
819	 0.109046802525851 
820	 0.109630597545235 
821	 0.110285191840451 
822	 0.110520059174712 
823	 0.110387438273534 
824	 0.110101503195729 
825	 0.11015760831142 
826	 0.110519185126357 
827	 0.111062113283976 
828	 0.111068494792405 
829	 0.110733089045026 
830	 0.110415131689312 
831	 0.110807066997645 
832	 0.111680932917847 
833	 0.111975984894101 
834	 0.111938840179489 
835	 0.111794795184554 
836	 0.112289899480412 
837	 0.112848721256632 
838	 0.112766127235678 
839	 0.112449912648973 
840	 0.11204121940737 
841	 0.111476473419648 
842	 0.111992343639031 
843	 0.113655976887521 
844	 0.113520736578094 
845	 0.112784574196382 
846	 0.113051616650618 
847	 0.11345443787691 
848	 0.113659762828397 
849	 0.113138860695468 
850	 0.112898522160488 
851	 0.113286660250626 
852	 0.113604159196206 
853	 0.113618265223664 
854	 0.11321076332314 
855	 0.113692279200338 
856	 0.114570723984104 
857	 0.113952527463947 
858	 0.113421726976506 
859	 0.113463618027635 
860	 0.113574877333499 
861	 0.113801272227934 
862	 0.114143165649864 
863	 0.113629408875232 
864	 0.112989341350136 
865	 0.114419273930791 
866	 0.115274475444383 
867	 0.114947811005884 
868	 0.11526262460666 
869	 0.115774924776244 
870	 0.116085819212849 
871	 0.116463458204661 
872	 0.116860976897948 
873	 0.117129682017221 
874	 0.117385338474267 
875	 0.117450149559995 
876	 0.116330789548005 
877	 0.116022710199008 
878	 0.117601853520598 
879	 0.117470474691055 
880	 0.116687163539888 
881	 0.117797143072191 
882	 0.117763405182136 
883	 0.116638048148193 
884	 0.11754824656214 
885	 0.118402256236371 
886	 0.118189387770082 
887	 0.11868644332578 
888	 0.119413896501441 
889	 0.119511431045357 
890	 0.119247487032819 
891	 0.11872272156992 
892	 0.117876849628298 
893	 0.118095280043466 
894	 0.119631309634715 
895	 0.11925169833152 
896	 0.118623728084607 
897	 0.119908204599391 
898	 0.120202134908017 
899	 0.119818697113689 
900	 0.121186218764028 
901	 0.121570490078251 
902	 0.120481113832703 
903	 0.119816433604152 
904	 0.119976988250744 
905	 0.120949372937653 
906	 0.119812025369333 
907	 0.11841910683018 
908	 0.120865853702759 
909	 0.122370321511969 
910	 0.121742836801404 
911	 0.120059480002689 
912	 0.119989346222884 
913	 0.122560489282789 
914	 0.123559289047005 
915	 0.122910035312016 
916	 0.121229994023603 
917	 0.120430199620787 
918	 0.120718445987234 
919	 0.121222610411737 
920	 0.12225603889275 
921	 0.123422610601782 
922	 0.122494792495717 
923	 0.122195498212954 
924	 0.124692661271427 
925	 0.124556578404437 
926	 0.122172408473879 
927	 0.120531616132839 
928	 0.118653142520803 
929	 0.11686607721122 
930	 0.117338018600568 
931	 0.119875159227029 
932	 0.123752705405038 
933	 0.125366267648631 
934	 0.124902288777625 
935	 0.124015981842978 
936	 0.12538687290975 
937	 0.128246955922897 
938	 0.129327071896037 
939	 0.126796451191448 
940	 0.122165170661748 
941	 0.125165305141704 
942	 0.12656467805377 
943	 0.120657101559249 
944	 0.121616637479397 
945	 0.124431124738432 
946	 0.118321131158102 
947	 0.121564481524943 
948	 0.132940084420018 
949	 0.134178737329724 
950	 0.130141803512 
951	 0.124391849317678 
952	 0.124545878960689 
953	 0.125385760757201 
954	 0.122284733658633 
955	 0.124913671458503 
956	 0.129064969186641 
957	 0.12457445033913 
958	 0.12281352105084 
959	 0.124814800429598 
960	 0.12385067264935 
961	 0.122263234435397 
962	 0.121774975511454 
963	 0.124998827968424 
964	 0.128450649554979 
965	 0.128679424963473 
966	 0.125800178282371 
967	 0.122844882266374 
968	 0.125664427992258 
969	 0.124903169121979 
970	 0.120649851850224 
971	 0.123657112766592 
972	 0.126473035296875 
973	 0.12553549099942 
974	 0.126400904169592 
975	 0.127459081697105 
976	 0.126391055800553 
977	 0.122968174464542 
978	 0.120198682815208 
979	 0.124720529268002 
980	 0.126985571029286 
981	 0.125685832011302 
982	 0.127354634630194 
983	 0.129315181889346 
984	 0.129900999571722 
985	 0.128436845765463 
986	 0.127854482499526 
987	 0.130717820961667 
988	 0.127769699694052 
989	 0.122605804693483 
990	 0.125721841923986 
991	 0.127995822749974 
992	 0.127012126363464 
993	 0.123852245882476 
994	 0.122832722928971 
995	 0.125098054080366 
996	 0.12285699591673 
997	 0.121281974720481 
998	 0.125391641052245 
999	 0.125931551802948 
1000	 0.125605254153331 
1001	 0.131879514483996 
1002	 0.127206277328793 
1003	 0.115134872077643 
1004	 0.122532960175783 
1005	 0.131544293637036 
1006	 0.133961115077882 
1007	 0.128149931572812 
1008	 0.123567408909129 
1009	 0.12718146404297 
1010	 0.130598573918732 
1011	 0.130590080925259 
1012	 0.12464778224243 
1013	 0.123618521036847 
1014	 0.127536614404774 
1015	 0.130400124075384 
1016	 0.130542014268076 
1017	 0.128257051294272 
1018	 0.128358524669732 
1019	 0.128788302419849 
1020	 0.128160335914153 
1021	 0.12495825300771 
1022	 0.124258172389355 
1023	 0.130404065537703 
1024	 0.137534184839552 
1025	 0.13832490832099 
1026	 0.122998275677399 
1027	 0.125216968269506 
1028	 0.140437522534527 
1029	 0.128140164264813 
1030	 0.111509763697023 
1031	 0.10195920051161 
1032	 0.110206741187988 
1033	 0.121200951924415 
1034	 0.125055723975882 
1035	 0.13200795301432 
1036	 0.133377010982042 
1037	 0.121580344932179 
1038	 0.123601379771203 
1039	 0.134686048724635 
1040	 0.137607477226554 
1041	 0.134015578329584 
1042	 0.12829951325 
1043	 0.132067571502414 
1044	 0.13252956558523 
1045	 0.129831278706095 
1046	 0.148506609830722 
1047	 0.146954951759231 
1048	 0.110560510086798 
1049	 0.123518841905188 
1050	 0.137871076149652 
1051	 0.109058941589192 
1052	 0.115186624197647 
1053	 0.138063974292347 
1054	 0.131320777859334 
1055	 0.134787280866047 
1056	 0.149279980112891 
1057	 0.158655112795984 
1058	 0.144608875050947 
1059	 0.112440109421462 
1060	 0.117460980821036 
1061	 0.117906158254858 
1062	 0.105795274085221 
1063	 0.152281799216373 
1064	 0.166711159674021 
1065	 0.102936816154562 
1066	 0.121397923968683 
1067	 0.164756866187437 
1068	 0.158536842420565 
1069	 0.144377019419691 
1070	 0.124591718502072 
1071	 9.40290337169732E-02 
1072	 0.100242950581259 
1073	 0.127367586357 
1074	 0.109925297675267 
1075	 9.20125181859653E-02 
