Wavelength	A00399.asd
325	 3.00518703843327E-02 
326	 3.27935497231266E-02 
327	 3.61448496164602E-02 
328	 3.83010120812943E-02 
329	 0.041730859537928 
330	 4.55062175488896E-02 
331	 4.01311709971193E-02 
332	 3.53523569023152E-02 
333	 4.06271239230452E-02 
334	 4.33638974223551E-02 
335	 4.30838845619464E-02 
336	 4.39407202722824E-02 
337	 4.40860631164742E-02 
338	 4.37309180512875E-02 
339	 4.68310639407642E-02 
340	 4.64788720342812E-02 
341	 3.82914307641315E-02 
342	 0.038900761071009 
343	 4.42746036690134E-02 
344	 4.23289461134413E-02 
345	 4.02749549072757E-02 
346	 4.03527446361654E-02 
347	 0.044352269239289 
348	 4.49496757889624E-02 
349	 3.87368915032577E-02 
350	 3.92913918068015E-02 
351	 4.31084086828149E-02 
352	 4.21558143262317E-02 
353	 3.96778134520264E-02 
354	 0.037467493022722 
355	 3.90405081807926E-02 
356	 4.03918532086407E-02 
357	 3.93885096847977E-02 
358	 3.96096738960099E-02 
359	 4.11241536052295E-02 
360	 4.34608810963803E-02 
361	 4.30024441766977E-02 
362	 4.06134829287165E-02 
363	 4.24168174554551E-02 
364	 4.34603536117405E-02 
365	 4.15255297996918E-02 
366	 4.03144142306019E-02 
367	 0.040066321514697 
368	 0.040556880747113 
369	 4.03963385583629E-02 
370	 3.98439448804346E-02 
371	 4.10385809475488E-02 
372	 4.21905246331733E-02 
373	 0.042284885164311 
374	 4.16691629977892E-02 
375	 4.12770433718472E-02 
376	 4.22623949101001E-02 
377	 4.24113426064181E-02 
378	 4.12179848044674E-02 
379	 3.85558383426802E-02 
380	 3.79090163799127E-02 
381	 4.04466884992284E-02 
382	 4.09386176826323E-02 
383	 4.08906551603189E-02 
384	 4.29274544610411E-02 
385	 4.38307157978941E-02 
386	 4.31604658054893E-02 
387	 4.21908121241841E-02 
388	 0.040901270313107 
389	 3.96563204444923E-02 
390	 3.99000399713222E-02 
391	 0.041426243584731 
392	 4.37764925198018E-02 
393	 0.043430665585724 
394	 4.11593417759726E-02 
395	 4.13749701045091E-02 
396	 4.19619828264366E-02 
397	 4.20264502762362E-02 
398	 4.20134984835398E-02 
399	 4.13882631284067E-02 
400	 3.96811101222381E-02 
401	 3.99730937452021E-02 
402	 4.16648583327064E-02 
403	 4.20293391039405E-02 
404	 4.19858351582064E-02 
405	 4.19466040257613E-02 
406	 4.21324221391224E-02 
407	 4.24284137924613E-02 
408	 4.26538083539198E-02 
409	 4.27066169575766E-02 
410	 4.25716256228856E-02 
411	 4.22667428815139E-02 
412	 4.20411874086331E-02 
413	 4.19738930379909E-02 
414	 0.041675370410001 
415	 4.14155363377157E-02 
416	 4.15762016120356E-02 
417	 4.17758628176548E-02 
418	 4.19853532892555E-02 
419	 4.24909203808578E-02 
420	 4.26771566183285E-02 
421	 4.23381570550781E-02 
422	 4.25484678052967E-02 
423	 4.30377384490031E-02 
424	 4.32533436015246E-02 
425	 4.30162423788018E-02 
426	 4.25811086739818E-02 
427	 4.30493002440032E-02 
428	 4.35724906081527E-02 
429	 4.36397905680717E-02 
430	 4.40008870872213E-02 
431	 0.044342143915398 
432	 4.40220789954752E-02 
433	 0.043368298331859 
434	 4.27733038150689E-02 
435	 4.31564730464778E-02 
436	 4.36457341226236E-02 
437	 4.36805526017309E-02 
438	 4.38783546233281E-02 
439	 4.40567895982836E-02 
440	 4.36899846909999E-02 
441	 4.37195376424276E-02 
442	 4.43044868146994E-02 
443	 4.48554955289176E-02 
444	 4.50831145771361E-02 
445	 4.48348865168037E-02 
446	 4.49249119661896E-02 
447	 4.52671322777499E-02 
448	 4.53735876233904E-02 
449	 4.52402290567141E-02 
450	 4.50090185075922E-02 
451	 4.54148668085339E-02 
452	 4.59716886036871E-02 
453	 4.61554687265179E-02 
454	 4.60637502538472E-02 
455	 4.58625552940591E-02 
456	 4.59734181206783E-02 
457	 4.59749080194054E-02 
458	 4.58128005205798E-02 
459	 4.62156316741409E-02 
460	 4.66643268130641E-02 
461	 4.64966716589008E-02 
462	 0.046442088168503 
463	 4.65543653261738E-02 
464	 4.64503903634528E-02 
465	 4.63902346714961E-02 
466	 0.046504610242962 
467	 4.67035971466463E-02 
468	 4.68851872472069E-02 
469	 0.046923302991621 
470	 4.68763578549487E-02 
471	 4.68447917871274E-02 
472	 4.71324481878961E-02 
473	 4.72929155711761E-02 
474	 4.70836419164036E-02 
475	 4.69594056112461E-02 
476	 4.70966648098857E-02 
477	 4.77333958800703E-02 
478	 4.76604116469925E-02 
479	 4.69180561447008E-02 
480	 4.72719945630501E-02 
481	 4.78243318705517E-02 
482	 4.78208560256696E-02 
483	 0.04767173513204 
484	 4.75447686547747E-02 
485	 4.76979994239663E-02 
486	 4.77416351356337E-02 
487	 4.76654119999574E-02 
488	 4.82611707917423E-02 
489	 4.86792796261478E-02 
490	 4.80878973613841E-02 
491	 4.77085495136674E-02 
492	 4.78323971711756E-02 
493	 4.86261495285355E-02 
494	 4.90094105892407E-02 
495	 4.85954897007512E-02 
496	 4.83369882589998E-02 
497	 4.83431607184607E-02 
498	 4.86219060053922E-02 
499	 4.90782458636696E-02 
500	 4.95074293231632E-02 
501	 4.93949659298986E-02 
502	 4.92150487577491E-02 
503	 4.92585468801214E-02 
504	 4.93029328376133E-02 
505	 4.94062974063677E-02 
506	 4.97009925880991E-02 
507	 5.00608195063365E-02 
508	 5.03878387188492E-02 
509	 5.04919411988188E-02 
510	 5.05192604089625E-02 
511	 5.05977153289466E-02 
512	 5.07295528600136E-02 
513	 5.08979477045646E-02 
514	 5.11130279485911E-02 
515	 5.09355158257969E-02 
516	 5.04445339317041E-02 
517	 5.09624741790764E-02 
518	 5.17667592880054E-02 
519	 5.19740647421507E-02 
520	 5.18440354689141E-02 
521	 5.16993463585901E-02 
522	 5.22881471808154E-02 
523	 5.27079827563436E-02 
524	 5.26319906838043E-02 
525	 5.28993365001002E-02 
526	 5.32304839839813E-02 
527	 5.31046817988806E-02 
528	 5.32134512590679E-02 
529	 5.35813006499333E-02 
530	 5.36186651799391E-02 
531	 5.37723702401623E-02 
532	 5.43071951205395E-02 
533	 5.47930412314202E-02 
534	 5.50542120767888E-02 
535	 0.05488141662832 
536	 5.47286243796444E-02 
537	 5.47873654465002E-02 
538	 0.055111949285777 
539	 5.54657793617467E-02 
540	 5.56152759158345E-02 
541	 5.56672864333059E-02 
542	 5.56678240800164E-02 
543	 5.56340827930315E-02 
544	 5.58302587693224E-02 
545	 0.056304219229645 
546	 5.66192403099729E-02 
547	 5.66912927878081E-02 
548	 5.64744920828391E-02 
549	 5.65201700181953E-02 
550	 5.68716336776262E-02 
551	 5.71195639121316E-02 
552	 5.74083462730847E-02 
553	 5.77694384129631E-02 
554	 0.057715434753898 
555	 5.74929702252354E-02 
556	 5.76630966760966E-02 
557	 5.80131800584249E-02 
558	 5.83719622389772E-02 
559	 0.058267144469375 
560	 5.81234229493819E-02 
561	 5.83369131623044E-02 
562	 5.85736540663242E-02 
563	 5.87137614696274E-02 
564	 0.058589085854098 
565	 0.058590088919702 
566	 5.88152243600791E-02 
567	 5.87486994843833E-02 
568	 0.058608382806175 
569	 5.87264845657193E-02 
570	 5.89140774774806E-02 
571	 5.91245901770595E-02 
572	 5.93864550583837E-02 
573	 0.05952930052807 
574	 5.94948721901605E-02 
575	 5.97610387104373E-02 
576	 6.00461925096418E-02 
577	 0.05969260210032 
578	 5.96423679867041E-02 
579	 6.00111004502983E-02 
580	 5.99139027364803E-02 
581	 5.96649051415064E-02 
582	 5.95792630174737E-02 
583	 0.059664933255646 
584	 5.98618674294842E-02 
585	 6.00179337258871E-02 
586	 6.01085795915359E-02 
587	 6.01155762385566E-02 
588	 6.00876186753752E-02 
589	 0.05999998235419 
590	 5.98205719852207E-02 
591	 5.97971951445625E-02 
592	 5.99335316212631E-02 
593	 6.00095737067974E-02 
594	 6.01772833081723E-02 
595	 6.04801599084098E-02 
596	 6.05297657496003E-02 
597	 6.05065920791882E-02 
598	 6.08383580539614E-02 
599	 6.09397243097509E-02 
600	 6.07029629244246E-02 
601	 6.04819892906384E-02 
602	 6.03889328796621E-02 
603	 6.04990913121697E-02 
604	 6.06160400405011E-02 
605	 6.06892535734908E-02 
606	 6.07049460161256E-02 
607	 6.07036537927095E-02 
608	 6.07149152957747E-02 
609	 6.08071736331982E-02 
610	 6.08517840751223E-02 
611	 6.06867643771086E-02 
612	 6.09211048042357E-02 
613	 6.14118185700161E-02 
614	 0.061191806486699 
615	 6.08582346221358E-02 
616	 6.07761143600283E-02 
617	 6.06899534255567E-02 
618	 6.06867109102848E-02 
619	 6.09782711137667E-02 
620	 6.10954430357503E-02 
621	 6.09610088491991E-02 
622	 6.09376721671498E-02 
623	 6.09328301618371E-02 
624	 6.08605979606199E-02 
625	 6.08572730312578E-02 
626	 6.08883631129079E-02 
627	 6.07591236692283E-02 
628	 6.08570152999089E-02 
629	 6.12429426370188E-02 
630	 6.12686739127832E-02 
631	 6.12134907636741E-02 
632	 6.14884142118426E-02 
633	 6.17276392911814E-02 
634	 6.18221144013874E-02 
635	 6.17279742567481E-02 
636	 6.15586904696635E-02 
637	 6.14437337637084E-02 
638	 6.17995677040416E-02 
639	 6.22220480358307E-02 
640	 6.18797500152263E-02 
641	 6.18289794652579E-02 
642	 6.22070078654541E-02 
643	 6.20796487727206E-02 
644	 6.19120789122184E-02 
645	 6.21114363932361E-02 
646	 6.21126718193628E-02 
647	 6.19631878981488E-02 
648	 6.20997305656191E-02 
649	 6.20364443995047E-02 
650	 6.16703019229192E-02 
651	 6.15411359087901E-02 
652	 6.15938370254751E-02 
653	 6.17049916158359E-02 
654	 6.19290856787426E-02 
655	 6.21719964873622E-02 
656	 6.21459597989867E-02 
657	 0.061793811486475 
658	 6.11568604707597E-02 
659	 6.04570752583587E-02 
660	 5.99901233971772E-02 
661	 6.02114004427875E-02 
662	 0.060050367738766 
663	 5.94486202473077E-02 
664	 5.96360164646082E-02 
665	 5.98590711956737E-02 
666	 5.94671892750955E-02 
667	 5.87759364478833E-02 
668	 5.81694725762064E-02 
669	 0.058517689497957 
670	 5.83451345723046E-02 
671	 5.74768130382813E-02 
672	 5.83138177195579E-02 
673	 0.059279353728866 
674	 5.84274572084694E-02 
675	 5.79916590439788E-02 
676	 5.82188506047588E-02 
677	 5.82035189860396E-02 
678	 5.83021902821412E-02 
679	 5.86788411908886E-02 
680	 5.91598909734936E-02 
681	 5.96407838404563E-02 
682	 5.99902358406831E-02 
683	 0.060594280779749 
684	 0.061375762782699 
685	 6.15770632129347E-02 
686	 6.18684516613331E-02 
687	 6.27959395829338E-02 
688	 6.33638831587841E-02 
689	 0.063608412592074 
690	 6.41160415918182E-02 
691	 6.48379600446031E-02 
692	 6.57150676739458E-02 
693	 6.63330318439115E-02 
694	 6.70885279056384E-02 
695	 6.83540003174299E-02 
696	 6.95265385644738E-02 
697	 7.03588812814085E-02 
698	 7.05386600183226E-02 
699	 7.07803553856947E-02 
700	 7.14261162086591E-02 
701	 7.22083418446745E-02 
702	 7.27205599334626E-02 
703	 7.24589653788897E-02 
704	 7.30239080173763E-02 
705	 7.43511913147001E-02 
706	 7.48003067882883E-02 
707	 7.49177207201251E-02 
708	 7.50741534382265E-02 
709	 7.52399941396868E-02 
710	 7.55101259609534E-02 
711	 7.60326759312002E-02 
712	 7.66571751386845E-02 
713	 7.72309689381996E-02 
714	 7.73354384637069E-02 
715	 7.75677349713175E-02 
716	 7.84751056796537E-02 
717	 7.87451779760256E-02 
718	 7.85272658597195E-02 
719	 7.93495317542504E-02 
720	 7.98415918380534E-02 
721	 7.96617145043109E-02 
722	 7.97064076798252E-02 
723	 7.97202941906594E-02 
724	 7.93703623037538E-02 
725	 7.98430280930029E-02 
726	 8.09476948628082E-02 
727	 8.13680258206591E-02 
728	 8.14246605056762E-02 
729	 8.12888324710866E-02 
730	 8.10713988533565E-02 
731	 8.11195003984438E-02 
732	 0.081844006114207 
733	 8.21921391859615E-02 
734	 8.21064630828927E-02 
735	 8.22667514957156E-02 
736	 8.25597812517921E-02 
737	 8.28949739547373E-02 
738	 8.32088013984194E-02 
739	 8.34456058114279E-02 
740	 8.35022067917803E-02 
741	 8.38674494218671E-02 
742	 8.44755903884345E-02 
743	 8.44093055067519E-02 
744	 8.40670021810434E-02 
745	 8.38666817873742E-02 
746	 8.43704159868789E-02 
747	 8.52020386260582E-02 
748	 8.52262229380891E-02 
749	 8.52652025965836E-02 
750	 8.55175713590966E-02 
751	 8.54353736937298E-02 
752	 8.53342605250543E-02 
753	 8.55746092920166E-02 
754	 8.59178867005584E-02 
755	 8.62248399925683E-02 
756	 8.62770204827545E-02 
757	 8.62027407379432E-02 
758	 8.61133231118524E-02 
759	 8.64252279608329E-02 
760	 8.73488162002388E-02 
761	 8.82731505671113E-02 
762	 0.088229461219261 
763	 8.76944353532358E-02 
764	 8.80124723400973E-02 
765	 8.85732541367705E-02 
766	 8.90632474495764E-02 
767	 8.93887307316428E-02 
768	 8.93649959387808E-02 
769	 0.088700803227564 
770	 0.088740113098746 
771	 8.94297780006202E-02 
772	 8.92038768102937E-02 
773	 8.90731975462924E-02 
774	 8.96302581136435E-02 
775	 0.089769162388222 
776	 8.96621339786418E-02 
777	 8.98918757435488E-02 
778	 9.03037203142251E-02 
779	 9.06777266218923E-02 
780	 0.090201536008064 
781	 9.00828347128987E-02 
782	 9.11532971233518E-02 
783	 9.14002768127767E-02 
784	 9.11006489703968E-02 
785	 9.15846040430715E-02 
786	 9.18989356611055E-02 
787	 9.18506944217546E-02 
788	 9.19747751244789E-02 
789	 9.23276421090158E-02 
790	 9.28901364898105E-02 
791	 9.30315756354994E-02 
792	 9.29034769560946E-02 
793	 9.31551207199311E-02 
794	 9.36086263529973E-02 
795	 9.40556812452338E-02 
796	 9.37584455948782E-02 
797	 0.093264830058198 
798	 9.31788989314994E-02 
799	 9.34920008616573E-02 
800	 9.39788546414472E-02 
801	 9.39902549190356E-02 
802	 9.42176837350676E-02 
803	 9.47464032380975E-02 
804	 9.44580962341543E-02 
805	 9.42564290862156E-02 
806	 9.51118549118985E-02 
807	 0.094899970803597 
808	 9.39745740884841E-02 
809	 9.46155382731445E-02 
810	 0.095358180296457 
811	 9.56505248860445E-02 
812	 9.62207532974833E-02 
813	 9.67213337306074E-02 
814	 9.66376505294014E-02 
815	 9.66248418926028E-02 
816	 9.69157898814642E-02 
817	 9.77955997873633E-02 
818	 9.76634674990632E-02 
819	 9.63559998757129E-02 
820	 9.70003592271912E-02 
821	 9.85039174454131E-02 
822	 9.92765423724849E-02 
823	 9.86057242971441E-02 
824	 9.72256606773621E-02 
825	 9.75638038502643E-02 
826	 9.85611639210485E-02 
827	 9.96292164428247E-02 
828	 9.99338210883877E-02 
829	 0.099570893308574 
830	 9.88295699793171E-02 
831	 9.85277697787206E-02 
832	 0.098766735287272 
833	 9.91849273630497E-02 
834	 9.95378360887229E-02 
835	 9.97419673469648E-02 
836	 0.100198662122134 
837	 0.100577164613959 
838	 0.1004904255441 
839	 0.100400552285427 
840	 0.100397355256512 
841	 0.10029069681472 
842	 0.100935159430441 
843	 0.102295804691379 
844	 0.101966536655965 
845	 0.101146448916095 
846	 0.101364901543834 
847	 0.101143139416668 
848	 0.100666809203525 
849	 0.101423730463379 
850	 0.10147547124283 
851	 0.100379184524472 
852	 0.100540781418514 
853	 0.10124658064473 
854	 0.101529910319191 
855	 0.102074657005538 
856	 0.102570273936274 
857	 0.101892092693949 
858	 0.101750348478031 
859	 0.102572115830767 
860	 0.103375186096837 
861	 0.10334399099033 
862	 0.101929703387549 
863	 0.101672885717348 
864	 0.102620824428809 
865	 0.103737133769064 
866	 0.104259303799401 
867	 0.103974511008051 
868	 0.103606318817284 
869	 0.103633205861097 
870	 0.104349023608097 
871	 0.104956536327428 
872	 0.105319007844135 
873	 0.10543384335143 
874	 0.105940014153636 
875	 0.10649993459499 
876	 0.104779621584144 
877	 0.103661849788314 
878	 0.104984424867276 
879	 0.105827817246835 
880	 0.106013049883734 
881	 0.105963265864147 
882	 0.105329245466501 
883	 0.104538553965163 
884	 0.105205028239486 
885	 0.106233305813001 
886	 0.106821000541082 
887	 0.106097971700107 
888	 0.105545826940931 
889	 0.107166866772839 
890	 0.107992042984101 
891	 0.107702238304902 
892	 0.107671484693928 
893	 0.107477801159764 
894	 0.107169771902471 
895	 0.107833135902591 
896	 0.109137009353782 
897	 0.110462882582544 
898	 0.110674231173762 
899	 0.110243313987667 
900	 0.111264312157436 
901	 0.110371008663718 
902	 0.107559437848898 
903	 0.107730823478582 
904	 0.108491716043101 
905	 0.108000872046579 
906	 0.108360993057053 
907	 0.109109588714035 
908	 0.108874427053241 
909	 0.110043308663158 
910	 0.112564268663968 
911	 0.113587486118034 
912	 0.113827773609309 
913	 0.113858946057356 
914	 0.114651743742494 
915	 0.115031081807805 
916	 0.113523796887902 
917	 0.112251681863578 
918	 0.111441848841829 
919	 0.109983448302754 
920	 0.110477624422957 
921	 0.112861280394299 
922	 0.111925355967363 
923	 0.110935495635243 
924	 0.112748153966607 
925	 0.112427637882025 
926	 0.110782548334019 
927	 0.111424091365267 
928	 0.112794773508873 
929	 0.113666265371937 
930	 0.110270476889533 
931	 0.108687593635145 
932	 0.113038150842737 
933	 0.110427004194878 
934	 0.107529159221051 
935	 0.116176631229372 
936	 0.118542976728978 
937	 0.113788795398781 
938	 0.110874473629601 
939	 0.110606191060131 
940	 0.112476132280875 
941	 0.111907818471121 
942	 0.109806107005819 
943	 0.10755117737478 
944	 0.110353976888097 
945	 0.11553180002907 
946	 0.1180560453667 
947	 0.115107592537603 
948	 0.109873480493142 
949	 0.115233985207012 
950	 0.118554677882519 
951	 0.115383593863325 
952	 0.113453367180448 
953	 0.113859409527603 
954	 0.116784770633371 
955	 0.11974036662019 
956	 0.119806816500964 
957	 0.112558530265637 
958	 0.112453492951476 
959	 0.118399094545935 
960	 0.113058011813295 
961	 0.110632196852477 
962	 0.116015099644043 
963	 0.115425576385595 
964	 0.114265541269546 
965	 0.118171720785998 
966	 0.119317706275591 
967	 0.117516936437873 
968	 0.115223154213703 
969	 0.109958698130945 
970	 0.10465220042733 
971	 0.112083732566525 
972	 0.118763752797639 
973	 0.117873168693703 
974	 0.117021970404702 
975	 0.11888826761306 
976	 0.12480043306169 
977	 0.121413254565451 
978	 0.112521825655469 
979	 0.111853986832639 
980	 0.113657936384263 
981	 0.115860487170434 
982	 0.117234391973366 
983	 0.116869955641134 
984	 0.114972184476469 
985	 0.115575856651492 
986	 0.118658439812086 
987	 0.123188618288357 
988	 0.121605698795015 
989	 0.116814606487985 
990	 0.117531331590239 
991	 0.116705775272662 
992	 0.114309024044476 
993	 0.117288483606438 
994	 0.120585054081114 
995	 0.12112182645924 
996	 0.117759807563343 
997	 0.113698660678473 
998	 0.112342472499609 
999	 0.112696961595184 
1000	 0.114626998654863 
1001	 0.11818097144473 
1002	 0.116063171223374 
1003	 0.111116115691671 
1004	 0.119914184420939 
1005	 0.124598177628782 
1006	 0.119516537719781 
1007	 0.115411957017588 
1008	 0.11697525121553 
1009	 0.125280987575581 
1010	 0.122288468132372 
1011	 0.11502296557129 
1012	 0.116319275791298 
1013	 0.117256843716229 
1014	 0.118239783110754 
1015	 0.125268980114108 
1016	 0.126718680221714 
1017	 0.121542616489417 
1018	 0.122827624965498 
1019	 0.121440299982271 
1020	 0.114190393481569 
1021	 0.113992151397959 
1022	 0.119728909654941 
1023	 0.127922380928421 
1024	 0.129694543661064 
1025	 0.123694477558514 
1026	 0.11079751915847 
1027	 0.107832967415667 
1028	 0.114776966970262 
1029	 0.117401785998311 
1030	 0.114171820755375 
1031	 0.107280303212823 
1032	 0.112035294479265 
1033	 0.112707573277546 
1034	 0.102871226090896 
1035	 0.111264840091725 
1036	 0.122018261261721 
1037	 0.117850054012058 
1038	 0.1203678690142 
1039	 0.128785916219811 
1040	 0.135229868853409 
1041	 0.124282781786017 
1042	 0.10640272524304 
1043	 0.121054980847668 
1044	 0.129125790366404 
1045	 0.122966120583974 
1046	 0.14041128505332 
1047	 0.141932903208078 
1048	 0.110714594965836 
1049	 0.105799027443713 
1050	 0.110535226402101 
1051	 0.104679305893053 
1052	 0.10407028285272 
1053	 0.111192225162348 
1054	 0.125418031357383 
1055	 0.125847895440016 
1056	 0.124352041289426 
1057	 0.162390020812663 
1058	 0.161706016563512 
1059	 0.118550436117017 
1060	 0.128334970628197 
1061	 0.134547382166799 
1062	 0.118218821768358 
1063	 0.122466922565565 
1064	 0.118354503727065 
1065	 9.60374545658119E-02 
1066	 0.148899715840039 
1067	 0.194098466096758 
1068	 0.143778573829617 
1069	 0.125200665471184 
1070	 0.1314043428358 
1071	 0.108238823823069 
1072	 0.100902468400453 
1073	 0.103215373512562 
1074	 7.40336706234693E-02 
1075	 0.070708626804403 
