Wavelength	A00326.asd
325	 5.72884486462898E-02 
326	 0.05947201239526 
327	 6.22839033258155E-02 
328	 5.96414208297703E-02 
329	 6.11173497215959E-02 
330	 6.77664144627118E-02 
331	 6.64127100566636E-02 
332	 6.30808382246135E-02 
333	 6.42395569786388E-02 
334	 6.33539354127102E-02 
335	 6.13670781356795E-02 
336	 6.23763554176062E-02 
337	 6.55537861335825E-02 
338	 6.96279132189687E-02 
339	 7.18296806628258E-02 
340	 6.84835473625125E-02 
341	 5.84740776573517E-02 
342	 6.15591387104796E-02 
343	 7.15984977568193E-02 
344	 7.25456794693324E-02 
345	 6.83510339879193E-02 
346	 6.25661938444968E-02 
347	 6.47567480180351E-02 
348	 0.067950531901258 
349	 6.76436413275587E-02 
350	 0.069267256986029 
351	 7.01063367255952E-02 
352	 0.064722978110072 
353	 6.27763885750501E-02 
354	 6.53684870573942E-02 
355	 6.70929256939048E-02 
356	 6.68703623141509E-02 
357	 6.47532528466181E-02 
358	 6.63207184581964E-02 
359	 6.93464053097982E-02 
360	 6.96431857276233E-02 
361	 6.69873290464463E-02 
362	 6.35560499081149E-02 
363	 6.67252199591614E-02 
364	 6.85461710042781E-02 
365	 6.57733855471259E-02 
366	 6.72103320684909E-02 
367	 0.069176462055794 
368	 6.56647464452489E-02 
369	 6.44430314415201E-02 
370	 6.60859026468378E-02 
371	 6.59555557375535E-02 
372	 6.65994879975169E-02 
373	 6.89083504873271E-02 
374	 0.069438989914194 
375	 6.89290543308608E-02 
376	 6.89051783083727E-02 
377	 6.95402445065347E-02 
378	 7.00345714117436E-02 
379	 6.73237376975341E-02 
380	 6.60153950271531E-02 
381	 6.79716690372631E-02 
382	 0.068704982934362 
383	 6.86326679818055E-02 
384	 6.88976433781999E-02 
385	 7.01040120434698E-02 
386	 7.09965012619896E-02 
387	 6.72647483628184E-02 
388	 0.065145704324418 
389	 6.67051815879308E-02 
390	 0.065963277140845 
391	 6.49988926392058E-02 
392	 6.67390148423428E-02 
393	 6.80176672498068E-02 
394	 6.78484232084313E-02 
395	 6.52822690538564E-02 
396	 6.42817909938327E-02 
397	 0.065838850668364 
398	 6.55392711271728E-02 
399	 0.064553184907567 
400	 6.43983850246017E-02 
401	 6.50435701962479E-02 
402	 6.60884579106654E-02 
403	 6.67203740125063E-02 
404	 6.67873262998476E-02 
405	 6.64145044911514E-02 
406	 0.066888933759473 
407	 6.75034031856961E-02 
408	 6.72622006373668E-02 
409	 6.69810051813072E-02 
410	 6.67751517761388E-02 
411	 6.63138336475737E-02 
412	 6.63738825121689E-02 
413	 6.71109093287064E-02 
414	 6.70992888935119E-02 
415	 6.66492272529265E-02 
416	 6.63413005704427E-02 
417	 6.63584564576661E-02 
418	 0.066641033616712 
419	 6.68031633171051E-02 
420	 6.69598631249232E-02 
421	 0.067194283024108 
422	 6.77083573969165E-02 
423	 6.81451203827965E-02 
424	 0.06797003799294 
425	 6.80184271118011E-02 
426	 6.83458349978765E-02 
427	 6.83222539686852E-02 
428	 6.82188751857576E-02 
429	 6.81990021268089E-02 
430	 6.80583755707192E-02 
431	 6.79071599302958E-02 
432	 6.79824127293536E-02 
433	 6.77056174241604E-02 
434	 6.71569118952138E-02 
435	 6.71060584885102E-02 
436	 6.73323469597082E-02 
437	 6.76690178812354E-02 
438	 6.81442297560632E-02 
439	 6.84437574436781E-02 
440	 6.79805817420031E-02 
441	 6.78323833586579E-02 
442	 6.81940716172878E-02 
443	 6.83257351313246E-02 
444	 6.84334040713186E-02 
445	 6.86890566252263E-02 
446	 6.88785136428314E-02 
447	 6.90004073538768E-02 
448	 0.06912554606819 
449	 6.92766974214063E-02 
450	 6.94563767316603E-02 
451	 6.96236167236776E-02 
452	 6.97576114020159E-02 
453	 6.98428398774097E-02 
454	 6.98999766969726E-02 
455	 6.99934319704053E-02 
456	 7.03518514556447E-02 
457	 0.070260067101305 
458	 6.96963295902925E-02 
459	 7.04177365793809E-02 
460	 7.12367201025359E-02 
461	 7.06217169461245E-02 
462	 7.00632768755186E-02 
463	 6.99038764633092E-02 
464	 7.00556575493474E-02 
465	 7.02855554912232E-02 
466	 7.04627048120714E-02 
467	 7.07757011995268E-02 
468	 7.08963949244528E-02 
469	 7.03372370174756E-02 
470	 7.01437773479326E-02 
471	 7.04673331331648E-02 
472	 7.07992983367122E-02 
473	 7.08779552042222E-02 
474	 7.06040346879373E-02 
475	 7.06498206597826E-02 
476	 7.09762434905642E-02 
477	 7.13887019957557E-02 
478	 7.11708610204745E-02 
479	 7.04720894672253E-02 
480	 7.08239022011566E-02 
481	 7.14690857878387E-02 
482	 7.17447004220511E-02 
483	 7.16893291563605E-02 
484	 0.07155357156621 
485	 7.20258625197325E-02 
486	 0.071927908716977 
487	 7.11213970812342E-02 
488	 7.13254120764786E-02 
489	 7.16427338848052E-02 
490	 7.11041446581375E-02 
491	 7.07470266889444E-02 
492	 7.08590240207238E-02 
493	 7.17238870260904E-02 
494	 7.22582078064912E-02 
495	 7.20690077535295E-02 
496	 7.20637213038625E-02 
497	 7.23437703358201E-02 
498	 7.29190468754864E-02 
499	 0.07335372440233 
500	 7.35068429659028E-02 
501	 7.33348872110658E-02 
502	 7.33063606783708E-02 
503	 7.36749954192611E-02 
504	 0.07397647699387 
505	 7.41658409086537E-02 
506	 7.42561285807288E-02 
507	 7.46298505072485E-02 
508	 7.53118698664229E-02 
509	 7.59603293362089E-02 
510	 7.63288087654231E-02 
511	 7.62972803904896E-02 
512	 7.67560429077448E-02 
513	 7.75039975717294E-02 
514	 7.76426854088225E-02 
515	 0.078141225352162 
516	 7.91740234972849E-02 
517	 7.97028933660014E-02 
518	 8.00841296994094E-02 
519	 8.07524215699324E-02 
520	 8.07968234390126E-02 
521	 8.06365709466959E-02 
522	 8.18785648223901E-02 
523	 8.30154885923121E-02 
524	 8.34448754831374E-02 
525	 0.084161510959187 
526	 8.48589359841456E-02 
527	 8.49587873760583E-02 
528	 8.53172755360411E-02 
529	 8.60261807555897E-02 
530	 8.65950210256268E-02 
531	 8.71157765697173E-02 
532	 8.76399879127032E-02 
533	 0.088061068191191 
534	 8.84001636549954E-02 
535	 8.87169978861391E-02 
536	 0.089093931986628 
537	 0.089537818255697 
538	 0.089896200394186 
539	 9.03044441026876E-02 
540	 9.08764362367752E-02 
541	 9.12417520715065E-02 
542	 9.13726523840287E-02 
543	 9.13600978056548E-02 
544	 9.15606652660118E-02 
545	 9.20884552945975E-02 
546	 9.25373520288504E-02 
547	 9.28803109802531E-02 
548	 9.31390884719332E-02 
549	 9.32356808796112E-02 
550	 9.33313093477983E-02 
551	 9.39961370003079E-02 
552	 9.47226172966442E-02 
553	 0.095139719321506 
554	 9.50766864943206E-02 
555	 9.48724464898971E-02 
556	 9.51814526617764E-02 
557	 9.56159718192176E-02 
558	 9.59874408255598E-02 
559	 9.60460952213057E-02 
560	 9.60038930209508E-02 
561	 9.60706955695443E-02 
562	 9.61734276185939E-02 
563	 9.63011753577993E-02 
564	 9.64983625847556E-02 
565	 9.64576388431145E-02 
566	 9.60994758382337E-02 
567	 9.58535065158099E-02 
568	 9.56000003075838E-02 
569	 9.51359368888343E-02 
570	 9.49353136343964E-02 
571	 9.50581081701905E-02 
572	 9.53178734214078E-02 
573	 9.53402425197104E-02 
574	 9.49510116834795E-02 
575	 0.094831348732594 
576	 9.48869795254796E-02 
577	 9.47714198143057E-02 
578	 9.45733147783518E-02 
579	 9.43263261944284E-02 
580	 0.094069374969586 
581	 9.38984648670667E-02 
582	 0.093888436028091 
583	 9.39367500701344E-02 
584	 9.39621824806105E-02 
585	 9.38067912735726E-02 
586	 9.37503817270311E-02 
587	 9.38304563164643E-02 
588	 9.35161476937202E-02 
589	 9.31098880604106E-02 
590	 9.30725359738875E-02 
591	 9.31256524462764E-02 
592	 9.31665189663615E-02 
593	 9.31015049308351E-02 
594	 9.30326586339858E-02 
595	 9.30284761621982E-02 
596	 9.31058420182369E-02 
597	 9.32403724222676E-02 
598	 9.34206188516815E-02 
599	 9.31641315572934E-02 
600	 9.25591018662435E-02 
601	 9.26791393376032E-02 
602	 9.29496592021729E-02 
603	 9.28465771836254E-02 
604	 9.28874767748552E-02 
605	 9.29984048305228E-02 
606	 9.27468320755635E-02 
607	 0.092628482601793 
608	 9.27669938183787E-02 
609	 9.26385044314908E-02 
610	 9.22955540356445E-02 
611	 9.18698497929191E-02 
612	 9.18546196338712E-02 
613	 9.21319712916257E-02 
614	 9.18618618704937E-02 
615	 9.15666052808033E-02 
616	 9.15330662542559E-02 
617	 9.13686655419573E-02 
618	 9.10528690181113E-02 
619	 9.06200732104345E-02 
620	 9.03604946101276E-02 
621	 9.03327070170194E-02 
622	 0.090359235447461 
623	 9.02799672051024E-02 
624	 8.99852760905374E-02 
625	 0.08991671112591 
626	 9.00786484690848E-02 
627	 0.090267581908248 
628	 9.04252149674623E-02 
629	 9.04705720908048E-02 
630	 0.090194460072541 
631	 8.99260616605766E-02 
632	 9.00827083605823E-02 
633	 9.02700340876772E-02 
634	 9.03323289563739E-02 
635	 9.01158849045378E-02 
636	 8.98721367864974E-02 
637	 8.97416417186983E-02 
638	 8.95344665817931E-02 
639	 8.92248870131342E-02 
640	 8.87876209819976E-02 
641	 8.86310360979612E-02 
642	 8.87240979406633E-02 
643	 8.83415848267131E-02 
644	 0.087774240147691 
645	 8.73208734805618E-02 
646	 8.72410213076494E-02 
647	 8.72614833481898E-02 
648	 8.64713967724411E-02 
649	 8.59849324259905E-02 
650	 8.60951224390735E-02 
651	 0.085668038392976 
652	 8.51565496979965E-02 
653	 8.51956427226508E-02 
654	 8.54857296160749E-02 
655	 8.57250744047871E-02 
656	 8.51492951629244E-02 
657	 8.44086543795955E-02 
658	 8.39288820605639E-02 
659	 8.34109022866897E-02 
660	 8.28841923919505E-02 
661	 8.24659923300785E-02 
662	 8.18881709666431E-02 
663	 0.081226033306492 
664	 8.11605077597126E-02 
665	 0.081038223283452 
666	 8.03296425087818E-02 
667	 7.96730953702923E-02 
668	 7.92006707030133E-02 
669	 7.89517487158283E-02 
670	 7.86419049760575E-02 
671	 7.82642689126839E-02 
672	 7.84737196916267E-02 
673	 7.87271480930408E-02 
674	 7.83739858466455E-02 
675	 7.83763795295478E-02 
676	 7.87945909978859E-02 
677	 7.91670540674688E-02 
678	 7.92943519497255E-02 
679	 7.91644633498509E-02 
680	 7.96346059622019E-02 
681	 8.03393657005653E-02 
682	 8.05284351020349E-02 
683	 8.09471644541943E-02 
684	 8.17850219754707E-02 
685	 8.29261288188688E-02 
686	 8.43383964810344E-02 
687	 8.59280963434129E-02 
688	 8.72935568131536E-02 
689	 8.84494342432115E-02 
690	 8.98239622940092E-02 
691	 9.17418060614077E-02 
692	 9.42393117515982E-02 
693	 9.66217316307516E-02 
694	 9.91366017596749E-02 
695	 0.101951861840694 
696	 0.104513873843448 
697	 0.10688607929235 
698	 0.109623090791448 
699	 0.11241667368833 
700	 0.115087900547654 
701	 0.11776099155138 
702	 0.120441366600841 
703	 0.123139916845201 
704	 0.125317496542108 
705	 0.127137204039055 
706	 0.129530448134082 
707	 0.131858564153428 
708	 0.133707819891056 
709	 0.135259165039394 
710	 0.136970566062652 
711	 0.139691209539646 
712	 0.141879369156095 
713	 0.143163354025015 
714	 0.144301117026431 
715	 0.145656810905664 
716	 0.147589057420078 
717	 0.148937691854223 
718	 0.149898304234765 
719	 0.151856320085954 
720	 0.15348994529225 
721	 0.154359741918934 
722	 0.15508267796509 
723	 0.15589529550667 
724	 0.156946412436859 
725	 0.158188944928732 
726	 0.159362703539788 
727	 0.159993741559933 
728	 0.160785976989121 
729	 0.161969811939679 
730	 0.162473878670206 
731	 0.162702210560037 
732	 0.163368466276488 
733	 0.163920389748929 
734	 0.16438772423425 
735	 0.165278092449818 
736	 0.166073621548471 
737	 0.166440244902406 
738	 0.166944158504135 
739	 0.167508837239852 
740	 0.167819067897323 
741	 0.168270739647815 
742	 0.168879502686609 
743	 0.169189929946271 
744	 0.16940019580255 
745	 0.169701340603863 
746	 0.170114482519816 
747	 0.170590207812799 
748	 0.171042067587796 
749	 0.171271375673284 
750	 0.171247215234939 
751	 0.171232126645222 
752	 0.171436315834188 
753	 0.172030352473823 
754	 0.172421076786112 
755	 0.172616893846666 
756	 0.173116240423557 
757	 0.173186267888955 
758	 0.172604194711535 
759	 0.172479461790754 
760	 0.173575150668678 
761	 0.176392896715279 
762	 0.177470718265155 
763	 0.176932538243137 
764	 0.177349537213162 
765	 0.177880959008417 
766	 0.178126052710496 
767	 0.177617110240677 
768	 0.177050692821229 
769	 0.177256950226401 
770	 0.177617775793928 
771	 0.177893119373215 
772	 0.177744467735757 
773	 0.177744741073315 
774	 0.178254434276862 
775	 0.178817781852393 
776	 0.179295423419021 
777	 0.179574564204201 
778	 0.179881907625061 
779	 0.180202906571894 
780	 0.180116968225654 
781	 0.180219573120565 
782	 0.180906939976333 
783	 0.181072883662406 
784	 0.180833396485088 
785	 0.180801283225355 
786	 0.181007206579504 
787	 0.181400814020322 
788	 0.181534278677453 
789	 0.181695502925188 
790	 0.18214619430527 
791	 0.182463897310832 
792	 0.182635570930493 
793	 0.182818121422576 
794	 0.183053537423268 
795	 0.183337070954195 
796	 0.183539687207229 
797	 0.183602573613824 
798	 0.183494351890034 
799	 0.183491696617507 
800	 0.183590041453097 
801	 0.183557099041975 
802	 0.183766235512334 
803	 0.184324796964238 
804	 0.185023181350663 
805	 0.18537581844773 
806	 0.184941083041129 
807	 0.184837204420036 
808	 0.185195334836785 
809	 0.185640512577911 
810	 0.186172260732923 
811	 0.186664199548782 
812	 0.186487834223815 
813	 0.186389118836658 
814	 0.187377996355944 
815	 0.187843776987104 
816	 0.187868765824486 
817	 0.189196868028252 
818	 0.189875305325148 
819	 0.18934900576558 
820	 0.189564441574969 
821	 0.190121142354367 
822	 0.190372180868792 
823	 0.190547498307206 
824	 0.190791284416999 
825	 0.19145060381027 
826	 0.191890964023219 
827	 0.191965640908309 
828	 0.192646125698772 
829	 0.192907610485588 
830	 0.191515081075831 
831	 0.191851046183748 
832	 0.193697628211178 
833	 0.194271495537224 
834	 0.19438792994773 
835	 0.194338556817138 
836	 0.193940951789536 
837	 0.193818647140576 
838	 0.194622430450314 
839	 0.195089968510494 
840	 0.195016998324646 
841	 0.19448993852355 
842	 0.195019850684474 
843	 0.196781837584971 
844	 0.196599742716003 
845	 0.195750645625606 
846	 0.195930304777019 
847	 0.19568400206226 
848	 0.195283134981876 
849	 0.196463211006735 
850	 0.196658944354487 
851	 0.19529426509216 
852	 0.195650506584579 
853	 0.196868518465423 
854	 0.197674717704819 
855	 0.19771968370851 
856	 0.197068460143075 
857	 0.19589227447285 
858	 0.19618517326748 
859	 0.197913829924712 
860	 0.196860153169633 
861	 0.195879147061329 
862	 0.197659607599766 
863	 0.19772516751119 
864	 0.196725688475782 
865	 0.198208293332153 
866	 0.199146432716389 
867	 0.198957180502234 
868	 0.200004854064634 
869	 0.20096052870782 
870	 0.200807468804204 
871	 0.201163290128558 
872	 0.201919719880284 
873	 0.20236014879895 
874	 0.202999491822557 
875	 0.203678949117 
876	 0.203274352473713 
877	 0.202466116852351 
878	 0.20197832283353 
879	 0.203245136464097 
880	 0.205246533693697 
881	 0.206026907916289 
882	 0.20644354544122 
883	 0.206509768865437 
884	 0.205442990555932 
885	 0.205024722521272 
886	 0.206112814788086 
887	 0.20692134824233 
888	 0.207416918313705 
889	 0.207838085547235 
890	 0.207924591296662 
891	 0.207927633709387 
892	 0.208930421912755 
893	 0.209073110477137 
894	 0.207804598248619 
895	 0.207691564771521 
896	 0.208619945557019 
897	 0.210046265795979 
898	 0.21006825221178 
899	 0.209499235776259 
900	 0.211603619742741 
901	 0.212507794183063 
902	 0.211581878404801 
903	 0.212179057376348 
904	 0.212414801646263 
905	 0.211038060893731 
906	 0.211128302838015 
907	 0.212341554204082 
908	 0.213263264200981 
909	 0.213471844305975 
910	 0.213177836055929 
911	 0.213810742650226 
912	 0.21502377409018 
913	 0.216558983549969 
914	 0.218454010477622 
915	 0.219306186650388 
916	 0.217617866089056 
917	 0.21732296679654 
918	 0.217546605091676 
919	 0.21282317869564 
920	 0.212287786772132 
921	 0.217291898515918 
922	 0.216943002432166 
923	 0.215341668401101 
924	 0.216333811880684 
925	 0.214706239695689 
926	 0.212542060880296 
927	 0.216402383375844 
928	 0.217643218770898 
929	 0.214098209562222 
930	 0.211872152304643 
931	 0.212414269141743 
932	 0.216372239550769 
933	 0.216677512510304 
934	 0.214844569790876 
935	 0.215017418129069 
936	 0.215678631269383 
937	 0.216719653471996 
938	 0.219032066087175 
939	 0.218196429748638 
940	 0.214420589901199 
941	 0.215339310011904 
942	 0.216043967825252 
943	 0.213043224091508 
944	 0.20955256099894 
945	 0.209119653564598 
946	 0.21625122844635 
947	 0.217816884060531 
948	 0.213727977354091 
949	 0.216322126149278 
950	 0.216173791271283 
951	 0.211297953364068 
952	 0.213275449792091 
953	 0.217585189821796 
954	 0.219424180070498 
955	 0.221663151390204 
956	 0.222192431336917 
957	 0.216500888323045 
958	 0.216074121300034 
959	 0.219860529176542 
960	 0.212858511503337 
961	 0.211787422690046 
962	 0.221315493654613 
963	 0.220177656546304 
964	 0.216023758257057 
965	 0.217368037540627 
966	 0.218239021179346 
967	 0.217917009773444 
968	 0.217049060023268 
969	 0.213749936180901 
970	 0.209563549320693 
971	 0.21211228803829 
972	 0.213685704867306 
973	 0.211199379322113 
974	 0.214146030305938 
975	 0.218376621836339 
976	 0.218469968126653 
977	 0.218512649377587 
978	 0.218669545029524 
979	 0.217769937868083 
980	 0.215718471586574 
981	 0.213793580943312 
982	 0.216290878079534 
983	 0.219409748153214 
984	 0.220963341816162 
985	 0.222092928170159 
986	 0.222878715375986 
987	 0.223275369361408 
988	 0.222130076005339 
989	 0.22034776478435 
990	 0.219968034926957 
991	 0.221182211604273 
992	 0.222869749188979 
993	 0.220400866939592 
994	 0.220643021885383 
995	 0.22522264161483 
996	 0.222488691953172 
997	 0.216992820293127 
998	 0.214554012072817 
999	 0.216981819593097 
1000	 0.222401325480985 
1001	 0.227103273379108 
1002	 0.221554897330029 
1003	 0.210310030246825 
1004	 0.216878320519017 
1005	 0.225005969100442 
1006	 0.227111339623534 
1007	 0.221186324699681 
1008	 0.217350497115012 
1009	 0.222430911186562 
1010	 0.22256610933396 
1011	 0.219385605476808 
1012	 0.217782485990377 
1013	 0.221999646170865 
1014	 0.22778534850028 
1015	 0.223264368879984 
1016	 0.215092337194946 
1017	 0.208990011986109 
1018	 0.21792115555118 
1019	 0.226403116745134 
1020	 0.226313986569408 
1021	 0.225912446047142 
1022	 0.224541399841284 
1023	 0.221468553495967 
1024	 0.221509499162549 
1025	 0.222738449237784 
1026	 0.220657789440329 
1027	 0.224338364916047 
1028	 0.229509648696525 
1029	 0.21540801045651 
1030	 0.210664164244957 
1031	 0.222420317659983 
1032	 0.232844505609373 
1033	 0.238431374655303 
1034	 0.236804426322236 
1035	 0.229860149351329 
1036	 0.224110341474931 
1037	 0.225574721679468 
1038	 0.230776804789564 
1039	 0.235683656661176 
1040	 0.234844360591201 
1041	 0.234638642316134 
1042	 0.236882143735042 
1043	 0.243371453658581 
1044	 0.240916176718213 
1045	 0.229361548000977 
1046	 0.232275635848115 
1047	 0.2273698679585 
1048	 0.206164909671032 
1049	 0.208416995073318 
1050	 0.218369378288426 
1051	 0.218340424237901 
1052	 0.216248385599168 
1053	 0.216468295036416 
1054	 0.223616735436219 
1055	 0.216625774148437 
1056	 0.205975208193173 
1057	 0.227962721389796 
1058	 0.224630976541327 
1059	 0.192158368992684 
1060	 0.196598406848777 
1061	 0.20153478454004 
1062	 0.195733205619224 
1063	 0.211217174022484 
1064	 0.222727855933712 
1065	 0.216574640621533 
1066	 0.241671749897774 
1067	 0.254532514056606 
1068	 0.211295738928525 
1069	 0.216279885369029 
1070	 0.251406210304913 
1071	 0.249039870697645 
1072	 0.222254999777655 
1073	 0.189704746182524 
1074	 0.188736282949843 
1075	 0.191917629114544 
