Wavelength	A00306.asd
325	 5.92001330836423E-02 
326	 6.35166168590881E-02 
327	 7.76046586388844E-02 
328	 7.05787360963151E-02 
329	 6.75886036628584E-02 
330	 7.47378205290801E-02 
331	 7.31318255810681E-02 
332	 0.06887635738138 
333	 6.91681766849721E-02 
334	 7.38719096462034E-02 
335	 8.00300091411185E-02 
336	 8.22045104565807E-02 
337	 7.98545216063839E-02 
338	 7.44925051485861E-02 
339	 7.32406687099679E-02 
340	 7.32575332338486E-02 
341	 7.21025317089251E-02 
342	 7.26301673284079E-02 
343	 7.39271414439616E-02 
344	 7.37986572075458E-02 
345	 0.072558329839932 
346	 7.13102297221142E-02 
347	 7.41815734134099E-02 
348	 7.55892697599566E-02 
349	 7.26005760789382E-02 
350	 7.37658354632964E-02 
351	 7.59066706296277E-02 
352	 7.22886309965776E-02 
353	 7.07272297247269E-02 
354	 7.20457257815438E-02 
355	 7.16165170715286E-02 
356	 7.10401906469232E-02 
357	 7.14385577249824E-02 
358	 7.36022558711957E-02 
359	 7.56761962152107E-02 
360	 7.49261583043607E-02 
361	 7.27848524887837E-02 
362	 0.071017545217139 
363	 0.074240575669476 
364	 0.075431283876336 
365	 7.17405373270694E-02 
366	 7.06001470424582E-02 
367	 7.11042595204627E-02 
368	 7.09859180455505E-02 
369	 7.12622345192613E-02 
370	 7.15981088281163E-02 
371	 7.00750473132407E-02 
372	 7.00658900224203E-02 
373	 7.26573404169185E-02 
374	 7.14533776672765E-02 
375	 6.95491332663187E-02 
376	 7.19458082874373E-02 
377	 7.36064761484432E-02 
378	 7.31860281639211E-02 
379	 7.02257811755619E-02 
380	 6.86842492585847E-02 
381	 7.02679611826502E-02 
382	 7.12047057894502E-02 
383	 7.17475935975228E-02 
384	 7.27237894494428E-02 
385	 7.33248920565329E-02 
386	 7.30391055253655E-02 
387	 7.09884674156822E-02 
388	 6.92615219998619E-02 
389	 6.88735512446695E-02 
390	 6.94265066967826E-02 
391	 7.02731778656518E-02 
392	 7.07246558421797E-02 
393	 0.07029146932351 
394	 6.95846484450588E-02 
395	 7.07008893560928E-02 
396	 0.071362778404554 
397	 7.07521281503663E-02 
398	 7.01267333997498E-02 
399	 6.93702793206023E-02 
400	 0.068270906292266 
401	 6.86356271339988E-02 
402	 6.98816364478562E-02 
403	 0.069841327255323 
404	 0.069775428472662 
405	 7.01902054075116E-02 
406	 7.09057585622179E-02 
407	 7.13748433719794E-02 
408	 7.09765342210883E-02 
409	 7.03638904952038E-02 
410	 6.98917182460835E-02 
411	 6.99997373271488E-02 
412	 7.03337854824977E-02 
413	 0.070660482892952 
414	 7.07835538423747E-02 
415	 7.07114190842608E-02 
416	 7.04950206308569E-02 
417	 7.00078357330965E-02 
418	 6.95577284630639E-02 
419	 7.01496764294355E-02 
420	 7.06720979769451E-02 
421	 7.05878850134464E-02 
422	 7.08049301996003E-02 
423	 7.10362845890849E-02 
424	 7.07254071050258E-02 
425	 7.06423288066033E-02 
426	 7.08866984830708E-02 
427	 7.10823942863316E-02 
428	 7.10892234185976E-02 
429	 7.08630924921358E-02 
430	 7.08196535104711E-02 
431	 7.10196838233645E-02 
432	 7.15094932389105E-02 
433	 7.09383007221383E-02 
434	 6.96737640580265E-02 
435	 7.03431214160645E-02 
436	 7.09538162774821E-02 
437	 7.03215896497807E-02 
438	 7.06515567607166E-02 
439	 7.13402632261722E-02 
440	 7.06672145677222E-02 
441	 7.05715960505645E-02 
442	 7.13038904732053E-02 
443	 7.13542638598336E-02 
444	 7.11592187337083E-02 
445	 7.11332297243324E-02 
446	 7.14071216196486E-02 
447	 7.17537541328984E-02 
448	 7.15996293946621E-02 
449	 7.15196648391974E-02 
450	 7.16458375061094E-02 
451	 7.15603450023383E-02 
452	 7.15837941125038E-02 
453	 7.20287973338741E-02 
454	 7.23592098776082E-02 
455	 7.25306498983403E-02 
456	 7.28378871450055E-02 
457	 7.26239365224899E-02 
458	 7.18456046653872E-02 
459	 0.071847668113535 
460	 7.22012648720419E-02 
461	 7.22654257504788E-02 
462	 7.23990401952485E-02 
463	 7.25213084157831E-02 
464	 7.21935581547671E-02 
465	 0.071787618836654 
466	 7.16057149836114E-02 
467	 7.22342888187854E-02 
468	 7.29181716778124E-02 
469	 7.24852929991959E-02 
470	 7.23994476197137E-02 
471	 7.28334536908606E-02 
472	 7.30008567264952E-02 
473	 7.29529336631871E-02 
474	 7.27333545233843E-02 
475	 7.24168983414511E-02 
476	 7.22376373593022E-02 
477	 7.25840193744338E-02 
478	 7.25832225341249E-02 
479	 7.22326791348247E-02 
480	 7.27133232377659E-02 
481	 0.073142106184749 
482	 7.28307375489495E-02 
483	 7.26720477797102E-02 
484	 7.27425261754612E-02 
485	 7.28688988554372E-02 
486	 7.28362615336849E-02 
487	 7.26786872826679E-02 
488	 7.31189737771971E-02 
489	 7.34612038080822E-02 
490	 7.30035017352509E-02 
491	 7.24571087291803E-02 
492	 7.22370017297385E-02 
493	 7.30545491875692E-02 
494	 7.38188957298133E-02 
495	 7.39956288256077E-02 
496	 7.36785190552519E-02 
497	 0.073313665037885 
498	 7.34518137452684E-02 
499	 7.37655969880241E-02 
500	 7.41381715796738E-02 
501	 7.44291798364645E-02 
502	 7.48769694408858E-02 
503	 7.55479123388924E-02 
504	 7.58546106494406E-02 
505	 7.58981810680685E-02 
506	 7.59601441189278E-02 
507	 7.61934064064815E-02 
508	 7.66340675267979E-02 
509	 7.71678982792118E-02 
510	 7.76399795250174E-02 
511	 7.79664508712556E-02 
512	 7.86489790811898E-02 
513	 7.95396774360824E-02 
514	 8.01276968652987E-02 
515	 8.05315191482968E-02 
516	 8.08804642376163E-02 
517	 8.16450604150717E-02 
518	 8.26274398570649E-02 
519	 8.35487040481676E-02 
520	 8.40939734614611E-02 
521	 8.45310288591282E-02 
522	 8.58491018297275E-02 
523	 8.67747813203422E-02 
524	 8.69339552152762E-02 
525	 8.80548392606604E-02 
526	 8.93516062850032E-02 
527	 8.94616308557732E-02 
528	 8.97586828808098E-02 
529	 9.04681220968484E-02 
530	 9.10495995972245E-02 
531	 9.17404222183032E-02 
532	 9.26534460096761E-02 
533	 9.33028414319809E-02 
534	 9.37482495640791E-02 
535	 9.42799032225594E-02 
536	 9.45779229447026E-02 
537	 9.46683024129148E-02 
538	 9.50825146195343E-02 
539	 9.56361135999929E-02 
540	 9.61102101907844E-02 
541	 9.63685459469968E-02 
542	 9.65122379742524E-02 
543	 9.68583272087653E-02 
544	 9.73911530192953E-02 
545	 9.80582914279879E-02 
546	 9.85907162584612E-02 
547	 9.88793954079064E-02 
548	 9.88265470782501E-02 
549	 9.89801836329673E-02 
550	 0.099434211482915 
551	 9.99851164843845E-02 
552	 0.100397216221739 
553	 0.100527449345537 
554	 0.100621006091587 
555	 0.100668608677518 
556	 0.100556603324035 
557	 0.100664500078493 
558	 0.101013387656747 
559	 0.101117288548919 
560	 0.100982217772633 
561	 0.100665161923472 
562	 0.100556672376842 
563	 0.100597860896784 
564	 0.100450866161968 
565	 0.100113452549044 
566	 9.96288010919845E-02 
567	 9.93334383245621E-02 
568	 0.099087016587717 
569	 9.86691770612546E-02 
570	 9.83751490728055E-02 
571	 9.82760844116592E-02 
572	 9.84145549501712E-02 
573	 0.098221240948322 
574	 9.74508509166889E-02 
575	 9.72467816516431E-02 
576	 9.73024379288689E-02 
577	 9.67564472566158E-02 
578	 9.63020131353954E-02 
579	 9.60705860829416E-02 
580	 9.56283514947623E-02 
581	 9.52837063813713E-02 
582	 9.52885638529881E-02 
583	 9.51278051874859E-02 
584	 9.48418412517903E-02 
585	 9.48174089363392E-02 
586	 0.094675341609124 
587	 9.43127117772453E-02 
588	 9.41436965030424E-02 
589	 9.38991308488395E-02 
590	 9.32052770630286E-02 
591	 9.31314976890989E-02 
592	 9.34872025843124E-02 
593	 9.27660356902632E-02 
594	 9.21796843719412E-02 
595	 9.23886285272537E-02 
596	 9.25822716727907E-02 
597	 9.26860738802166E-02 
598	 9.27838217776824E-02 
599	 9.27045508508922E-02 
600	 9.24273684644083E-02 
601	 9.20935204368196E-02 
602	 9.18359249778739E-02 
603	 9.17610147209381E-02 
604	 9.17497893046215E-02 
605	 9.17000132687673E-02 
606	 9.14163945167957E-02 
607	 9.11568694959482E-02 
608	 9.10244730094861E-02 
609	 9.09866303948947E-02 
610	 9.07250691254065E-02 
611	 8.98648822212988E-02 
612	 8.97908145543593E-02 
613	 0.090382882985744 
614	 9.00507933898171E-02 
615	 8.95810912112051E-02 
616	 8.94014571660074E-02 
617	 8.88684084275228E-02 
618	 8.83067421755908E-02 
619	 8.84048479380571E-02 
620	 0.088430442056147 
621	 8.81875207289592E-02 
622	 8.78992421277623E-02 
623	 8.75293099610991E-02 
624	 8.70855241687231E-02 
625	 8.71543479731047E-02 
626	 8.75438506592029E-02 
627	 8.75054846236528E-02 
628	 8.73149295600608E-02 
629	 8.71189062763585E-02 
630	 8.71623134105029E-02 
631	 8.73837303991622E-02 
632	 8.76690849156912E-02 
633	 8.77888120203687E-02 
634	 8.76298716343623E-02 
635	 8.70572970100104E-02 
636	 8.64998449380108E-02 
637	 8.62048288641254E-02 
638	 8.58636275531458E-02 
639	 0.085389164205732 
640	 8.46830230412667E-02 
641	 0.084225573142191 
642	 8.40180201120076E-02 
643	 0.083308405490917 
644	 8.25720600670028E-02 
645	 8.22225974840987E-02 
646	 8.17574069353675E-02 
647	 8.11922923125758E-02 
648	 8.07912131057877E-02 
649	 8.05458190959533E-02 
650	 0.080414176066099 
651	 8.01003675553524E-02 
652	 0.079861903606144 
653	 8.00229787019585E-02 
654	 7.98753710179626E-02 
655	 7.93504369592375E-02 
656	 7.88509135380777E-02 
657	 7.87881468728213E-02 
658	 7.92041176434902E-02 
659	 7.86037626931452E-02 
660	 7.76661897852403E-02 
661	 7.77896871712777E-02 
662	 7.72015642621948E-02 
663	 7.58701301347779E-02 
664	 7.58494188794681E-02 
665	 7.60985482780726E-02 
666	 7.57176724852648E-02 
667	 7.53692281468161E-02 
668	 0.075134224989675 
669	 7.49580050610343E-02 
670	 7.47079499883659E-02 
671	 7.44420678663091E-02 
672	 0.074769999990056 
673	 0.075248556883909 
674	 7.53240036863067E-02 
675	 7.50621383569845E-02 
676	 7.46838622298554E-02 
677	 7.47780462254523E-02 
678	 7.50432211815442E-02 
679	 7.53177464231505E-02 
680	 7.56879167063544E-02 
681	 7.59858130337113E-02 
682	 7.59129860961384E-02 
683	 7.65166806604974E-02 
684	 0.077813336385216 
685	 7.86271522973589E-02 
686	 0.079401965635548 
687	 8.05317127987575E-02 
688	 8.19416922348116E-02 
689	 8.35218525924986E-02 
690	 8.53007714734297E-02 
691	 8.73364720418315E-02 
692	 8.97184118119208E-02 
693	 9.25690028505872E-02 
694	 9.55888466911433E-02 
695	 9.83648905761431E-02 
696	 0.101700234815079 
697	 0.105413516612419 
698	 0.108688277953944 
699	 0.112122720587771 
700	 0.115895683976036 
701	 0.119573262832579 
702	 0.123270779770177 
703	 0.12722445915935 
704	 0.130835197341261 
705	 0.134120688593513 
706	 0.137529585091873 
707	 0.140920707932384 
708	 0.144214747696699 
709	 0.147550029682303 
710	 0.150909389605773 
711	 0.15428329207534 
712	 0.157368835718278 
713	 0.160147820848779 
714	 0.163118484134838 
715	 0.165978104991559 
716	 0.16856225956776 
717	 0.170691580184616 
718	 0.172818652450486 
719	 0.176198860067107 
720	 0.178953787424003 
721	 0.180495785981938 
722	 0.182104988060271 
723	 0.183701593634104 
724	 0.1849571448496 
725	 0.186818100214717 
726	 0.189041485157188 
727	 0.190696488355771 
728	 0.191788157265787 
729	 0.192432386519509 
730	 0.193447845025081 
731	 0.194792821588598 
732	 0.196260554722133 
733	 0.197255085062713 
734	 0.19787102133211 
735	 0.198840508418831 
736	 0.19999852251302 
737	 0.201105986913005 
738	 0.201342980160205 
739	 0.20128404863357 
740	 0.202186033291775 
741	 0.203213744337476 
742	 0.204038050878802 
743	 0.204518356783757 
744	 0.204625070348176 
745	 0.204406784318846 
746	 0.20459856736749 
747	 0.205159293728441 
748	 0.205638737949316 
749	 0.206212478019736 
750	 0.206804247082289 
751	 0.206806424369834 
752	 0.206764173843038 
753	 0.207278118639424 
754	 0.207760388009412 
755	 0.208111893788027 
756	 0.208419148791761 
757	 0.208696894841721 
758	 0.208981545896164 
759	 0.209137832666108 
760	 0.209967059294238 
761	 0.212702589787374 
762	 0.213338664035059 
763	 0.212234909217225 
764	 0.21268759802638 
765	 0.212923425174661 
766	 0.212475026390623 
767	 0.212276689135554 
768	 0.212176604332461 
769	 0.211905905344504 
770	 0.212131693570734 
771	 0.212719571625815 
772	 0.212565056087777 
773	 0.212364699296715 
774	 0.212616912614221 
775	 0.213322606540297 
776	 0.214072453653968 
777	 0.214157666800031 
778	 0.214122022685159 
779	 0.214168124213435 
780	 0.214375699375093 
781	 0.214645441355077 
782	 0.214893115952117 
783	 0.215180521377446 
784	 0.215393774155546 
785	 0.215253553630389 
786	 0.215337271872577 
787	 0.215717977799756 
788	 0.215684322918335 
789	 0.215681610767878 
790	 0.216120011708748 
791	 0.216417809685038 
792	 0.216500268457288 
793	 0.216450924591527 
794	 0.216490593641028 
795	 0.216592591020297 
796	 0.216075267064293 
797	 0.215707955245831 
798	 0.216231405657818 
799	 0.21637579953747 
800	 0.216133125562232 
801	 0.216135347216639 
802	 0.216434004883701 
803	 0.21697350891553 
804	 0.217214039625634 
805	 0.217290819517813 
806	 0.217409405832239 
807	 0.217718140580765 
808	 0.218176982742189 
809	 0.218653468756459 
810	 0.218628901288326 
811	 0.21798319443805 
812	 0.217496469858705 
813	 0.217788606344964 
814	 0.219508340510517 
815	 0.220336249773331 
816	 0.220171619970639 
817	 0.220967225780483 
818	 0.221416694230743 
819	 0.221143007363785 
820	 0.22116140979745 
821	 0.221517864258461 
822	 0.222168121670692 
823	 0.22299124963172 
824	 0.22367815130055 
825	 0.223551354703556 
826	 0.223783395354674 
827	 0.22468842054812 
828	 0.224813403847559 
829	 0.224352269184646 
830	 0.223756143924225 
831	 0.223950867942171 
832	 0.224798370988285 
833	 0.225323557655426 
834	 0.22531596844761 
835	 0.22493802344782 
836	 0.225911851404624 
837	 0.226868462653165 
838	 0.226169594077947 
839	 0.225446501832824 
840	 0.225201028372751 
841	 0.225788465130518 
842	 0.226318203656797 
843	 0.226411861553658 
844	 0.226487329511914 
845	 0.226591574118574 
846	 0.226738727601275 
847	 0.226827336125936 
848	 0.226801745716995 
849	 0.226486697682729 
850	 0.226647779280459 
851	 0.227396952275386 
852	 0.227376836226083 
853	 0.226966639034388 
854	 0.226730828819785 
855	 0.227016160576168 
856	 0.227571965452063 
857	 0.227637439835925 
858	 0.227389511965389 
859	 0.226978017114183 
860	 0.22682113590271 
861	 0.227050896145617 
862	 0.227681941080983 
863	 0.227457651404721 
864	 0.226930029506713 
865	 0.228044244089835 
866	 0.228537352635758 
867	 0.228030412486326 
868	 0.228624048133771 
869	 0.229385694411687 
870	 0.2295787933543 
871	 0.230423755273737 
872	 0.231351655875276 
873	 0.23090201842275 
874	 0.230972114401212 
875	 0.231650545669845 
876	 0.230644571645487 
877	 0.230274111319904 
878	 0.231891871536412 
879	 0.232071121963421 
880	 0.231789800343341 
881	 0.233426203841489 
882	 0.233441067049365 
883	 0.23190103192779 
884	 0.2323405299897 
885	 0.233752098357989 
886	 0.235327453013219 
887	 0.23570166660234 
888	 0.235532692147663 
889	 0.235920040906107 
890	 0.236416350474788 
891	 0.236787219117542 
892	 0.236522328998734 
893	 0.236429926838954 
894	 0.236869950751593 
895	 0.237306176165174 
896	 0.23783648267793 
897	 0.238530508834166 
898	 0.237870448257619 
899	 0.236951335139785 
900	 0.23935278706059 
901	 0.240561650149612 
902	 0.239627782861719 
903	 0.239499311481603 
904	 0.23989255400545 
905	 0.240395115042443 
906	 0.239772373943578 
907	 0.239042910072908 
908	 0.24036597276448 
909	 0.240952994666198 
910	 0.240516364483877 
911	 0.241256262936259 
912	 0.242221416164723 
913	 0.242812143587834 
914	 0.243080389268922 
915	 0.242909203804788 
916	 0.242205775127852 
917	 0.24173427231189 
918	 0.241277849000032 
919	 0.239224925766949 
920	 0.240447040553988 
921	 0.244476777889148 
922	 0.239583408215277 
923	 0.235176777476322 
924	 0.239542797486426 
925	 0.240422510670742 
926	 0.238057949403538 
927	 0.237665535122671 
928	 0.236953349098622 
929	 0.235150329725416 
930	 0.231401779266461 
931	 0.231227688759626 
932	 0.237511062468968 
933	 0.231842598932743 
934	 0.224410050297159 
935	 0.23366993754469 
936	 0.242584431977645 
937	 0.245493775834935 
938	 0.239383286806415 
939	 0.236780120403491 
940	 0.239797916102817 
941	 0.237425850880142 
942	 0.234313697209116 
943	 0.233975770483272 
944	 0.234435589644161 
945	 0.23562936764465 
946	 0.23788575566496 
947	 0.237678322325989 
948	 0.235778403280312 
949	 0.238145381916288 
950	 0.238437435070277 
951	 0.235217174825437 
952	 0.237320127409801 
953	 0.236270520954847 
954	 0.225766110715279 
955	 0.228725781407279 
956	 0.237463724112385 
957	 0.231483706441864 
958	 0.231039211687876 
959	 0.235524321531329 
960	 0.224835292823195 
961	 0.218542111152852 
962	 0.22412077046238 
963	 0.225631607816357 
964	 0.225970918980314 
965	 0.22865566389361 
966	 0.226195484171135 
967	 0.221625297365433 
968	 0.223144473791093 
969	 0.222673235015033 
970	 0.21995429065919 
971	 0.222855122963823 
972	 0.224704159281056 
973	 0.222503136487829 
974	 0.221761970297615 
975	 0.223702771218424 
976	 0.228526438587392 
977	 0.228436330225156 
978	 0.224946853880535 
979	 0.224932846601088 
980	 0.2227403785094 
981	 0.219363374980931 
982	 0.223946003597535 
983	 0.22850367557743 
984	 0.22876071429055 
985	 0.227903471617664 
986	 0.229761601307679 
987	 0.236880516652454 
988	 0.23134410649004 
989	 0.220491244799429 
990	 0.225486092471597 
991	 0.227832593033281 
992	 0.225037388720831 
993	 0.228127080942636 
994	 0.230201058515951 
995	 0.228333539482977 
996	 0.226619623426637 
997	 0.227361273840067 
998	 0.231613275283288 
999	 0.227511772417183 
1000	 0.224609510887042 
1001	 0.242638536201484 
1002	 0.241880329482322 
1003	 0.223961509458129 
1004	 0.231053185449432 
1005	 0.234465658746042 
1006	 0.226110153059569 
1007	 0.225399665467079 
1008	 0.231263317539165 
1009	 0.239963910617553 
1010	 0.236229898446211 
1011	 0.229918632675293 
1012	 0.236856486083882 
1013	 0.23674281098064 
1014	 0.230771305208498 
1015	 0.232553180552092 
1016	 0.233418071145236 
1017	 0.231688436203337 
1018	 0.23154404127645 
1019	 0.231221559732426 
1020	 0.231368718536156 
1021	 0.242357997417297 
1022	 0.251209764005415 
1023	 0.246339678900822 
1024	 0.250280746757373 
1025	 0.2537061823357 
1026	 0.235676975290526 
1027	 0.232383207538992 
1028	 0.245607334890502 
1029	 0.252356117287831 
1030	 0.250420384553298 
1031	 0.242714392168946 
1032	 0.249991661640034 
1033	 0.256912619264698 
1034	 0.254249095024473 
1035	 0.253940287391561 
1036	 0.254462814977895 
1037	 0.253692678403062 
1038	 0.259057466226069 
1039	 0.264600282246047 
1040	 0.25838539758998 
1041	 0.252845385863998 
1042	 0.251101734445181 
1043	 0.252343254474332 
1044	 0.249085471925822 
1045	 0.242198225883324 
1046	 0.24823844334448 
1047	 0.250033567755969 
1048	 0.23990159639178 
1049	 0.24125932426941 
1050	 0.243793024986276 
1051	 0.237029380948827 
1052	 0.232744088249963 
1053	 0.237775314160801 
1054	 0.258050828780105 
1055	 0.260218057012287 
1056	 0.250884167454194 
1057	 0.265005097060362 
1058	 0.266506577924561 
1059	 0.252444311003637 
1060	 0.261338945365008 
1061	 0.247819819120946 
1062	 0.204527346931535 
1063	 0.214489432682558 
1064	 0.234966537119585 
1065	 0.235732161703204 
1066	 0.272982207740988 
1067	 0.297626786236784 
1068	 0.258213121246781 
1069	 0.231589107140044 
1070	 0.232711510582426 
1071	 0.256979163834882 
1072	 0.25499664604186 
1073	 0.231372738693307 
1074	 0.227661364276615 
1075	 0.238012203438451 
