Wavelength	A00376.asd
325	 2.15214238198627E-02 
326	 2.67217340855287E-02 
327	 3.85097612049303E-02 
328	 4.14071927270771E-02 
329	 4.05994510670941E-02 
330	 3.81963394288305E-02 
331	 3.39200810973353E-02 
332	 3.13716801761134E-02 
333	 3.38166804426164E-02 
334	 3.76413830683146E-02 
335	 4.13151774982881E-02 
336	 4.39161721562434E-02 
337	 0.043103593650863 
338	 3.97251446035851E-02 
339	 4.14129803237735E-02 
340	 4.08313424968854E-02 
341	 3.30472710751994E-02 
342	 3.42087346709543E-02 
343	 0.041082843136963 
344	 4.39792631332732E-02 
345	 4.15561479470619E-02 
346	 3.58791154821882E-02 
347	 3.65124445839538E-02 
348	 3.93212719983471E-02 
349	 4.09408238975415E-02 
350	 3.92938020751875E-02 
351	 3.67537003330034E-02 
352	 3.72813670290778E-02 
353	 3.87185218661319E-02 
354	 4.05196264228655E-02 
355	 4.32211760839344E-02 
356	 4.38098471872649E-02 
357	 4.11053209895071E-02 
358	 4.04123447767162E-02 
359	 4.18576027463219E-02 
360	 4.46791416286231E-02 
361	 4.28457275938654E-02 
362	 3.81938678789051E-02 
363	 4.19921967270647E-02 
364	 4.53012294885846E-02 
365	 0.043731591568719 
366	 4.19519356247051E-02 
367	 4.07612817592575E-02 
368	 4.05000301285128E-02 
369	 4.18072240227203E-02 
370	 4.36526917901863E-02 
371	 4.23629355859636E-02 
372	 4.08395086442596E-02 
373	 4.07345912988366E-02 
374	 4.13069313275801E-02 
375	 4.25705195947643E-02 
376	 0.044598545619127 
377	 4.41825109489726E-02 
378	 4.18054864994802E-02 
379	 4.15262489040299E-02 
380	 4.19844619168404E-02 
381	 4.25578722207297E-02 
382	 4.36158099195928E-02 
383	 4.48417616530536E-02 
384	 4.57914449407349E-02 
385	 4.46175694812284E-02 
386	 4.22050547002617E-02 
387	 0.042358192264285 
388	 4.28316785496759E-02 
389	 4.25560784245265E-02 
390	 4.12524664843636E-02 
391	 4.10824358968014E-02 
392	 0.044402291740551 
393	 0.045036315881798 
394	 4.30551048401358E-02 
395	 4.26240454300223E-02 
396	 4.26923065143859E-02 
397	 4.27388012407395E-02 
398	 4.23781401475741E-02 
399	 4.15049900270885E-02 
400	 4.01023266881855E-02 
401	 4.04144430709092E-02 
402	 4.20105084525318E-02 
403	 4.30829826688352E-02 
404	 4.32729705796274E-02 
405	 4.26738883057781E-02 
406	 0.043080506635312 
407	 4.38958139215466E-02 
408	 4.41771368768664E-02 
409	 4.38426429462504E-02 
410	 4.31483551672326E-02 
411	 4.27902104988733E-02 
412	 4.28361047968642E-02 
413	 4.32532928171404E-02 
414	 4.36336297674369E-02 
415	 4.37559439950963E-02 
416	 4.34162488749449E-02 
417	 0.043209085743467 
418	 0.043278725072236 
419	 4.36021002119762E-02 
420	 4.37239073204086E-02 
421	 4.35061117533516E-02 
422	 4.39137595223905E-02 
423	 0.044486425980956 
424	 0.044416722329492 
425	 4.43343777314079E-02 
426	 4.44646679441117E-02 
427	 4.50645519457709E-02 
428	 0.045376136011089 
429	 4.49776909810527E-02 
430	 4.47183217249255E-02 
431	 4.47916283764925E-02 
432	 4.53432223022022E-02 
433	 0.045023702547728 
434	 4.40372070027845E-02 
435	 4.44317415135364E-02 
436	 4.50009440148603E-02 
437	 0.044992825057533 
438	 4.54927895883383E-02 
439	 4.60212807789252E-02 
440	 4.54098944484731E-02 
441	 4.50947082533131E-02 
442	 4.54283902388698E-02 
443	 4.58993423767964E-02 
444	 0.04617772612133 
445	 4.60591671857644E-02 
446	 4.62383570226358E-02 
447	 4.65808575017407E-02 
448	 0.046505062448927 
449	 4.65055572691535E-02 
450	 4.67270465644632E-02 
451	 4.69989698203685E-02 
452	 4.72979255697932E-02 
453	 4.76051604153205E-02 
454	 4.78617675196533E-02 
455	 4.80237990005283E-02 
456	 4.80880163366844E-02 
457	 4.76711532378993E-02 
458	 0.046925101391066 
459	 4.75927025129194E-02 
460	 4.85872442972977E-02 
461	 4.84738745299966E-02 
462	 4.80803904969586E-02 
463	 4.76958942801324E-02 
464	 4.75749488907007E-02 
465	 4.76540745721506E-02 
466	 4.79035724603668E-02 
467	 4.83822394278672E-02 
468	 4.86609515221834E-02 
469	 4.81327809821325E-02 
470	 4.81237657791716E-02 
471	 4.86979451521687E-02 
472	 4.87834220629358E-02 
473	 4.86237352122525E-02 
474	 0.048412898259018 
475	 4.83835029073405E-02 
476	 4.85550541309799E-02 
477	 4.89276795773369E-02 
478	 4.87585914886837E-02 
479	 4.81772143389635E-02 
480	 4.86793079182359E-02 
481	 4.93634855494186E-02 
482	 4.94736929753629E-02 
483	 4.93971036319833E-02 
484	 4.92673076328927E-02 
485	 4.92782198150733E-02 
486	 4.91023412283124E-02 
487	 4.87999694075283E-02 
488	 0.049305675471947 
489	 4.98100238782247E-02 
490	 4.94784649626385E-02 
491	 4.90181958448903E-02 
492	 4.88500073880745E-02 
493	 4.97483109644078E-02 
494	 5.03907081976324E-02 
495	 5.02680632983341E-02 
496	 5.02865681127049E-02 
497	 5.03568007531811E-02 
498	 5.02521683202466E-02 
499	 5.03600640152172E-02 
500	 5.06230339318127E-02 
501	 5.05060306832116E-02 
502	 5.04054342872795E-02 
503	 0.050554172073723 
504	 5.07558088278716E-02 
505	 5.09523224503494E-02 
506	 5.10912731536234E-02 
507	 5.12504177279214E-02 
508	 5.14712353308747E-02 
509	 5.18368615293267E-02 
510	 5.21085993346985E-02 
511	 5.21376786902798E-02 
512	 5.25369796129009E-02 
513	 5.30996575521584E-02 
514	 0.053099113849814 
515	 5.31011242662219E-02 
516	 5.32731471816403E-02 
517	 5.33477266263668E-02 
518	 5.34428039311441E-02 
519	 5.36921650260661E-02 
520	 5.38668048443716E-02 
521	 5.40626795819807E-02 
522	 5.47230942467001E-02 
523	 5.51462204942975E-02 
524	 5.51212882261738E-02 
525	 5.56275896804762E-02 
526	 5.61750413395667E-02 
527	 5.59258593268434E-02 
528	 5.59691432393984E-02 
529	 5.64294704149586E-02 
530	 5.67349642690236E-02 
531	 5.68430303039275E-02 
532	 5.67999818819175E-02 
533	 5.73757328197548E-02 
534	 5.80935693085613E-02 
535	 5.77799877050948E-02 
536	 5.76483569790855E-02 
537	 5.80303807762039E-02 
538	 5.85446770867333E-02 
539	 5.89076019364243E-02 
540	 5.88781961914492E-02 
541	 5.88859457292358E-02 
542	 5.89731707923759E-02 
543	 5.89428212081529E-02 
544	 5.91766630887014E-02 
545	 5.97338795466891E-02 
546	 0.059969893772641 
547	 5.99137801496799E-02 
548	 5.96889141448079E-02 
549	 0.059722425019787 
550	 6.01192346130297E-02 
551	 6.08333303204759E-02 
552	 6.13174847705769E-02 
553	 6.12509297805757E-02 
554	 6.11584071583269E-02 
555	 6.11832661111031E-02 
556	 6.14402656114953E-02 
557	 6.16434792937171E-02 
558	 6.17174602356148E-02 
559	 6.18167464206311E-02 
560	 6.19118772422089E-02 
561	 6.19837036105017E-02 
562	 6.22625998399374E-02 
563	 6.25678593131183E-02 
564	 6.23218194955657E-02 
565	 6.20666102584038E-02 
566	 6.20317530350138E-02 
567	 6.20914317534189E-02 
568	 6.21874470466452E-02 
569	 6.22573206335795E-02 
570	 6.23638653206466E-02 
571	 6.25216003544126E-02 
572	 6.27700892929653E-02 
573	 6.28340026762858E-02 
574	 6.26243773359993E-02 
575	 6.28846682602347E-02 
576	 0.063397486500041 
577	 6.35935968339202E-02 
578	 6.35688325467924E-02 
579	 6.33797486859455E-02 
580	 6.31895193312487E-02 
581	 0.063079838500524 
582	 6.31199665437283E-02 
583	 6.33585691680681E-02 
584	 6.36530692902927E-02 
585	 0.063633789623686 
586	 6.36337870226462E-02 
587	 6.37431058305215E-02 
588	 0.063679381245452 
589	 6.34443087376079E-02 
590	 6.30866068299957E-02 
591	 6.29365810501642E-02 
592	 6.30294440072141E-02 
593	 6.31374412522537E-02 
594	 6.33847402093133E-02 
595	 6.38009744836681E-02 
596	 6.41162760960242E-02 
597	 6.42019914989453E-02 
598	 6.39063439906422E-02 
599	 6.35913493143026E-02 
600	 0.063439299936484 
601	 6.36121916253763E-02 
602	 6.38175590478132E-02 
603	 6.38037842356765E-02 
604	 6.39283227566686E-02 
605	 0.06406441521906 
606	 6.36852423799485E-02 
607	 6.35285599719483E-02 
608	 6.38245264915252E-02 
609	 0.063987590956254 
610	 6.39437713632293E-02 
611	 6.36775117880322E-02 
612	 6.35754626742022E-02 
613	 6.36574005357131E-02 
614	 0.063619863316888 
615	 0.063543866143661 
616	 6.34808059958175E-02 
617	 0.063461366488312 
618	 6.34308242735396E-02 
619	 6.32700289007821E-02 
620	 6.33088360223836E-02 
621	 6.35442561777304E-02 
622	 6.35424514034562E-02 
623	 6.33312805095126E-02 
624	 6.29901226766551E-02 
625	 6.30526780980148E-02 
626	 6.33879537615561E-02 
627	 6.33891256637445E-02 
628	 6.33602114445742E-02 
629	 6.33772565845059E-02 
630	 6.31879271956811E-02 
631	 6.30940006696918E-02 
632	 0.063477912967252 
633	 6.38276901100212E-02 
634	 6.39928180930819E-02 
635	 6.39725862514965E-02 
636	 6.37979565896981E-02 
637	 6.35775631610634E-02 
638	 6.39847748517931E-02 
639	 6.44957373198578E-02 
640	 6.40019320358219E-02 
641	 6.38241678183798E-02 
642	 6.41773877969398E-02 
643	 6.40411169199888E-02 
644	 6.39881221501655E-02 
645	 0.064487284704359 
646	 6.44824626413636E-02 
647	 6.40446681323393E-02 
648	 6.39218087074735E-02 
649	 6.36370629676618E-02 
650	 0.063129517969372 
651	 6.29751695345642E-02 
652	 6.31114394491199E-02 
653	 6.34014730738671E-02 
654	 6.37965868503095E-02 
655	 6.40301630827935E-02 
656	 6.32701868348601E-02 
657	 0.06254702581357 
658	 6.24303079815174E-02 
659	 6.19308372026288E-02 
660	 6.13406589281089E-02 
661	 6.13519890296546E-02 
662	 6.07522166064459E-02 
663	 5.95864836256062E-02 
664	 5.96001700767469E-02 
665	 5.97228869452864E-02 
666	 5.90737303588638E-02 
667	 5.87303559854307E-02 
668	 5.87413031737459E-02 
669	 5.88529172879067E-02 
670	 5.85353377860079E-02 
671	 5.77846023625798E-02 
672	 5.79078540057034E-02 
673	 5.82410059792943E-02 
674	 5.79218300616568E-02 
675	 0.057590283559049 
676	 5.75047238888652E-02 
677	 5.80077650790884E-02 
678	 5.84611566346415E-02 
679	 5.85741727902481E-02 
680	 5.90278959568909E-02 
681	 5.96046570574114E-02 
682	 5.98349755732215E-02 
683	 6.01918495629577E-02 
684	 6.07982976031742E-02 
685	 6.16621684816055E-02 
686	 6.23782227541462E-02 
687	 6.25975522624601E-02 
688	 6.30883139152993E-02 
689	 6.39414068386317E-02 
690	 6.50511835690298E-02 
691	 6.65519687423847E-02 
692	 6.82526305709518E-02 
693	 6.89935930807354E-02 
694	 6.96427096004827E-02 
695	 7.10976848491261E-02 
696	 0.072352125442867 
697	 7.33367040439342E-02 
698	 7.44479132299128E-02 
699	 7.55942241038226E-02 
700	 7.66739110582921E-02 
701	 7.73835487427594E-02 
702	 0.078051454467595 
703	 7.91691392538778E-02 
704	 8.01123376277028E-02 
705	 8.08094966940241E-02 
706	 8.15663261548224E-02 
707	 8.22175957142526E-02 
708	 8.26646422794847E-02 
709	 8.29810596749841E-02 
710	 8.33862509851225E-02 
711	 8.42315361493438E-02 
712	 8.53415161122998E-02 
713	 8.64566165079259E-02 
714	 8.68451849157385E-02 
715	 8.68847541471878E-02 
716	 8.69842743334921E-02 
717	 8.74711787072796E-02 
718	 8.83084420451321E-02 
719	 8.89489355804596E-02 
720	 8.92562375127175E-02 
721	 0.089306723933192 
722	 8.97561724816716E-02 
723	 9.00970953331729E-02 
724	 8.96969743674743E-02 
725	 0.090213672227296 
726	 0.09149451471539 
727	 9.20101662720162E-02 
728	 9.19723369541991E-02 
729	 9.15828312011499E-02 
730	 9.15867423317133E-02 
731	 9.19820000999198E-02 
732	 9.26090353379957E-02 
733	 9.29989744862696E-02 
734	 9.31480443479783E-02 
735	 9.34645393766378E-02 
736	 9.38367475803646E-02 
737	 9.41464675303265E-02 
738	 9.40939729594916E-02 
739	 9.40076880394778E-02 
740	 0.094583686806848 
741	 9.49981508989979E-02 
742	 0.095036203265563 
743	 9.49787767284915E-02 
744	 9.49488328155332E-02 
745	 9.50576396769302E-02 
746	 9.54121559387947E-02 
747	 0.095912018590993 
748	 9.63421435189167E-02 
749	 9.65074328820479E-02 
750	 9.63567975384312E-02 
751	 9.60986673438525E-02 
752	 9.60265086916232E-02 
753	 9.64059938477238E-02 
754	 9.67302706487602E-02 
755	 9.69707841768405E-02 
756	 9.74798787466094E-02 
757	 9.75224154033364E-02 
758	 9.68640909311887E-02 
759	 9.67069993818418E-02 
760	 9.74030092654844E-02 
761	 9.87780701545496E-02 
762	 9.91591565492056E-02 
763	 9.87678130254111E-02 
764	 9.91539100096183E-02 
765	 9.95770061582842E-02 
766	 9.97624441937815E-02 
767	 9.98359573855658E-02 
768	 9.98131887168056E-02 
769	 9.96722296675321E-02 
770	 0.099757314639959 
771	 9.99999197950735E-02 
772	 9.97511995505367E-02 
773	 9.97512706961868E-02 
774	 0.100402843057452 
775	 0.100612380052363 
776	 0.100535667318805 
777	 0.100741445710667 
778	 0.101033254192348 
779	 0.101277368110561 
780	 0.101082035761343 
781	 0.101101107930328 
782	 0.101787087468265 
783	 0.102130463659692 
784	 0.102087642005332 
785	 0.101940357674682 
786	 0.101733448206616 
787	 0.101608386929421 
788	 0.101969380968083 
789	 0.102506201829809 
790	 0.102887275913839 
791	 0.103035886616487 
792	 0.103031358529806 
793	 0.103094829134586 
794	 0.103311072593996 
795	 0.103632431059352 
796	 0.103603585158406 
797	 0.103463968622762 
798	 0.103495865487359 
799	 0.103901761770682 
800	 0.104403900570048 
801	 0.104113108516642 
802	 0.103956179914537 
803	 0.10425214138462 
804	 0.104551510355106 
805	 0.104805189052784 
806	 0.104990213298351 
807	 0.104930729558778 
808	 0.104848921566149 
809	 0.105523084531965 
810	 0.105929530458516 
811	 0.105685241033197 
812	 0.105500675638702 
813	 0.105529132527823 
814	 0.105889737464492 
815	 0.106420851930683 
816	 0.106985265845591 
817	 0.107451439932529 
818	 0.107416206173119 
819	 0.106893658932221 
820	 0.106899840369979 
821	 0.107090051980736 
822	 0.106985656564475 
823	 0.107554064842569 
824	 0.108462173700293 
825	 0.108232670641809 
826	 0.108013658094519 
827	 0.108343887672981 
828	 0.109472625547909 
829	 0.109995920007172 
830	 0.108302795375926 
831	 0.107846676390243 
832	 0.108905595806181 
833	 0.110050941965244 
834	 0.110216627704159 
835	 0.109256431176804 
836	 0.109642614472762 
837	 0.110380725598722 
838	 0.110137435566212 
839	 0.109713335777724 
840	 0.109440248605794 
841	 0.109705694021197 
842	 0.110361303170562 
843	 0.111130395090367 
844	 0.110942733780142 
845	 0.1104783248912 
846	 0.110584390819105 
847	 0.110550142316908 
848	 0.110348857902278 
849	 0.110260248584641 
850	 0.110413681386469 
851	 0.110812021528944 
852	 0.111135224779736 
853	 0.111104845985307 
854	 0.110541113393906 
855	 0.11089780417933 
856	 0.111785756586065 
857	 0.111527931961805 
858	 0.111089731973368 
859	 0.110832765898697 
860	 0.110745670273168 
861	 0.11126909473451 
862	 0.112644923293126 
863	 0.112457436037853 
864	 0.111296184086023 
865	 0.111659493548182 
866	 0.112058327224971 
867	 0.112061103291327 
868	 0.111905745195152 
869	 0.112171185189064 
870	 0.113246946919516 
871	 0.11434233234331 
872	 0.114998493769684 
873	 0.114647685895836 
874	 0.114092738872127 
875	 0.11359514758574 
876	 0.112921476655398 
877	 0.112574748745011 
878	 0.112926528866866 
879	 0.113969949221411 
880	 0.11498941382116 
881	 0.114903555964798 
882	 0.114141977997449 
883	 0.113209187234368 
884	 0.113190251911097 
885	 0.114140801055287 
886	 0.115764055516734 
887	 0.115892752448534 
888	 0.115555603337621 
889	 0.116418077113806 
890	 0.116859153581939 
891	 0.116673186313636 
892	 0.116441827919491 
893	 0.115926557967565 
894	 0.115283529921393 
895	 0.115808436177665 
896	 0.117106418722565 
897	 0.118441177791899 
898	 0.118269584753044 
899	 0.117742573140991 
900	 0.12083717808037 
901	 0.121559355531019 
902	 0.119080123826147 
903	 0.119098267088347 
904	 0.119638884693395 
905	 0.119168320874735 
906	 0.119527724273442 
907	 0.120245248692268 
908	 0.120069061841988 
909	 0.119416505709592 
910	 0.118718388984387 
911	 0.119059504049224 
912	 0.119670064544478 
913	 0.120210209812951 
914	 0.121811853691249 
915	 0.123185598835619 
916	 0.122699608187613 
917	 0.120940662785339 
918	 0.119012680696205 
919	 0.119161925785269 
920	 0.119988447364862 
921	 0.120588264040881 
922	 0.119039183367479 
923	 0.118561707495508 
924	 0.121604175368079 
925	 0.120276582497154 
926	 0.116690816536405 
927	 0.11863918905122 
928	 0.119730883892531 
929	 0.118088752873558 
930	 0.116178889110741 
931	 0.114682329849795 
932	 0.114348582931366 
933	 0.114297415369022 
934	 0.116153551915688 
935	 0.121880513971949 
936	 0.124437945664282 
937	 0.122732025000276 
938	 0.118533685142865 
939	 0.117431292098231 
940	 0.120316323427242 
941	 0.12252660304071 
942	 0.120130387093213 
943	 0.112187430866557 
944	 0.116226343595479 
945	 0.124505644340778 
946	 0.121512975684991 
947	 0.119396828700764 
948	 0.120947285961427 
949	 0.125912936949632 
950	 0.123864713180268 
951	 0.114322653869048 
952	 0.121744260077481 
953	 0.128631770373953 
954	 0.119400938806221 
955	 0.118536660154939 
956	 0.123658847252085 
957	 0.123423888569918 
958	 0.122388227976657 
959	 0.121457969571192 
960	 0.119655745227853 
961	 0.120279925989449 
962	 0.124276249603315 
963	 0.128708991591845 
964	 0.129001080447322 
965	 0.121910222291797 
966	 0.119018376095397 
967	 0.120267647940844 
968	 0.121591462595596 
969	 0.118328589483724 
970	 0.11269921927994 
971	 0.118542896138368 
972	 0.12508863386283 
973	 0.126198768879404 
974	 0.123860648267337 
975	 0.122039990783445 
976	 0.12453532927188 
977	 0.1231748974045 
978	 0.120184429325923 
979	 0.123982442795136 
980	 0.123934220683356 
981	 0.120246619258605 
982	 0.126235048632045 
983	 0.128091129126589 
984	 0.120555236390205 
985	 0.121259035808904 
986	 0.126409314942336 
987	 0.129805504932043 
988	 0.126265922361716 
989	 0.120783756801745 
990	 0.12540707135738 
991	 0.128197588720664 
992	 0.126637371443733 
993	 0.124557633641 
994	 0.124624374441864 
995	 0.127398185351139 
996	 0.12784511374752 
997	 0.124683255886737 
998	 0.118130895166365 
999	 0.119441737315544 
1000	 0.12396505689578 
1001	 0.120390813277791 
1002	 0.115573861398081 
1003	 0.113896003799415 
1004	 0.124384272743031 
1005	 0.129433148986806 
1006	 0.123319065341262 
1007	 0.117422575903492 
1008	 0.116649062633627 
1009	 0.123061745879891 
1010	 0.124549558735282 
1011	 0.122900052829546 
1012	 0.122898906469721 
1013	 0.124522845780943 
1014	 0.126215626927546 
1015	 0.124215833173089 
1016	 0.121586526012407 
1017	 0.119938113796079 
1018	 0.121029942373221 
1019	 0.122764414660293 
1020	 0.124132602840636 
1021	 0.127106652887786 
1022	 0.12838631647294 
1023	 0.125518755139303 
1024	 0.128103835785514 
1025	 0.131188851370959 
1026	 0.124219539365103 
1027	 0.120225862751376 
1028	 0.12119048925397 
1029	 0.122470986688164 
1030	 0.122411894705074 
1031	 0.121487592476826 
1032	 0.127449597611458 
1033	 0.123381811297142 
1034	 0.105535081817777 
1035	 0.12198497606291 
1036	 0.143788868392679 
1037	 0.138380441297625 
1038	 0.128283585315928 
1039	 0.119649341861931 
1040	 0.115913085409975 
1041	 0.122474616084158 
1042	 0.134914739758248 
1043	 0.139869296905155 
1044	 0.139136462549672 
1045	 0.134178836746647 
1046	 0.132363578060618 
1047	 0.123243001200945 
1048	 0.10476586506313 
1049	 0.109602121239049 
1050	 0.116397801050024 
1051	 0.105526620610343 
1052	 0.11176447144059 
1053	 0.12679491207667 
1054	 0.129470995091905 
1055	 0.130911856333034 
1056	 0.140694588851776 
1057	 0.178625339236794 
1058	 0.167103234128735 
1059	 0.10966760616208 
1060	 0.136726332947981 
1061	 0.148404217494457 
1062	 0.112815115595558 
1063	 0.112279981578547 
1064	 0.124110657213455 
1065	 0.128304281025356 
1066	 0.138005967203701 
1067	 0.14651873291526 
1068	 0.145779365936944 
1069	 0.13271726869712 
1070	 0.114757795925643 
1071	 0.106047949623486 
1072	 0.105172736673262 
1073	 0.106476313635745 
1074	 9.67496089713381E-02 
1075	 0.093718396593821 
