Wavelength	A00346.asd
325	 6.22695337754464E-02 
326	 6.01621732576484E-02 
327	 5.76851560416492E-02 
328	 5.69193293827612E-02 
329	 5.78113560859509E-02 
330	 5.87519027120585E-02 
331	 5.06991934493358E-02 
332	 4.66948121393841E-02 
333	 5.86592967885754E-02 
334	 6.03018830745143E-02 
335	 5.40008308948338E-02 
336	 5.52566887504642E-02 
337	 5.77121611082263E-02 
338	 5.96587735785619E-02 
339	 6.26609313572492E-02 
340	 6.26325417904522E-02 
341	 5.70634497380797E-02 
342	 5.54205844279867E-02 
343	 5.75551683085292E-02 
344	 0.060965144850358 
345	 5.85852906568745E-02 
346	 5.18409346772763E-02 
347	 5.40537402789105E-02 
348	 5.79501904959131E-02 
349	 5.85099936022489E-02 
350	 5.88464348381264E-02 
351	 5.85054642191288E-02 
352	 5.61564669073957E-02 
353	 5.43306039911594E-02 
354	 5.40253132193641E-02 
355	 5.61974619586397E-02 
356	 5.72906242279524E-02 
357	 5.57305816743514E-02 
358	 5.73171094155283E-02 
359	 5.96739362693617E-02 
360	 5.83214262537066E-02 
361	 5.68210288703075E-02 
362	 5.62777057742528E-02 
363	 5.74368805505334E-02 
364	 5.71986407267477E-02 
365	 5.46082202587811E-02 
366	 5.50684539482076E-02 
367	 0.05621476309249 
368	 5.41907769181065E-02 
369	 5.41899289720697E-02 
370	 5.62464454465682E-02 
371	 0.056285319811352 
372	 5.66277381774205E-02 
373	 5.80709719571746E-02 
374	 5.71464720547119E-02 
375	 5.57605687434862E-02 
376	 5.69008786162592E-02 
377	 5.74910346379496E-02 
378	 0.056887949726264 
379	 0.055362522904176 
380	 5.45713615630519E-02 
381	 5.53655484483443E-02 
382	 5.70027720013369E-02 
383	 5.83845127879752E-02 
384	 0.058224700271162 
385	 5.84266240449514E-02 
386	 5.86463142459454E-02 
387	 5.61146981933927E-02 
388	 5.55104091898569E-02 
389	 5.79849978106554E-02 
390	 5.68748453490512E-02 
391	 0.055482735069807 
392	 5.81476790605252E-02 
393	 5.74073909456826E-02 
394	 5.40901228435485E-02 
395	 5.51477254398113E-02 
396	 5.60930148613029E-02 
397	 5.53020029843057E-02 
398	 5.48762349081104E-02 
399	 5.45860342504909E-02 
400	 5.40410433516413E-02 
401	 5.41190047313088E-02 
402	 5.47811351019046E-02 
403	 5.56964650456896E-02 
404	 5.62029214907778E-02 
405	 0.056111566898061 
406	 5.62486989613471E-02 
407	 5.64599419290519E-02 
408	 5.64598442360322E-02 
409	 5.60437558330361E-02 
410	 5.53830256248318E-02 
411	 5.49233518547915E-02 
412	 5.51701759265209E-02 
413	 5.61247484658645E-02 
414	 5.62576575178601E-02 
415	 5.58898571704625E-02 
416	 5.56370005312253E-02 
417	 5.56517431461166E-02 
418	 5.59622895626978E-02 
419	 5.65276848947006E-02 
420	 5.67815844837205E-02 
421	 5.65375895151218E-02 
422	 5.68985905690856E-02 
423	 5.74174415260736E-02 
424	 5.72694425231749E-02 
425	 5.73746085178708E-02 
426	 5.77718145211598E-02 
427	 5.76939259340926E-02 
428	 5.77297674041311E-02 
429	 5.81667747025661E-02 
430	 0.058117075875218 
431	 5.76870419197193E-02 
432	 5.72490178340637E-02 
433	 5.69541437101972E-02 
434	 5.69229883842757E-02 
435	 5.74047347935018E-02 
436	 0.057554871974564 
437	 5.69618695869254E-02 
438	 5.73365677875351E-02 
439	 5.81095323885311E-02 
440	 5.77516235597454E-02 
441	 5.78146178883752E-02 
442	 5.84562363885589E-02 
443	 5.83315546077854E-02 
444	 5.80343529007685E-02 
445	 5.80942689661807E-02 
446	 5.85002543560353E-02 
447	 5.89857429731606E-02 
448	 5.89677794186727E-02 
449	 5.89066414080753E-02 
450	 5.90014260124163E-02 
451	 5.94067798807485E-02 
452	 5.98140886077489E-02 
453	 5.99102242558101E-02 
454	 5.97586668990979E-02 
455	 5.95992486739759E-02 
456	 6.01110328174216E-02 
457	 6.01916242824501E-02 
458	 5.96059143903208E-02 
459	 5.98709951176607E-02 
460	 6.03170041030346E-02 
461	 6.00264494656262E-02 
462	 5.99391410450351E-02 
463	 6.00645387262283E-02 
464	 5.97134702975423E-02 
465	 5.95950366321261E-02 
466	 6.00231724181746E-02 
467	 6.04660906429216E-02 
468	 6.05861049358735E-02 
469	 6.00005128966126E-02 
470	 5.99379275163491E-02 
471	 6.05298842807681E-02 
472	 6.10325773076113E-02 
473	 6.11586751011513E-02 
474	 6.07842147694354E-02 
475	 6.05359698764388E-02 
476	 0.060518384687448 
477	 6.07502119364949E-02 
478	 6.07571439613593E-02 
479	 6.05516009235166E-02 
480	 6.08500642601103E-02 
481	 6.11970651046939E-02 
482	 6.12152009052775E-02 
483	 6.10978629319435E-02 
484	 6.10424355671614E-02 
485	 6.14689494606376E-02 
486	 6.16886145166225E-02 
487	 6.15642157364484E-02 
488	 0.061941457075435 
489	 6.20802410908074E-02 
490	 6.12565513162171E-02 
491	 6.06649735994888E-02 
492	 6.06662016400889E-02 
493	 6.15822484128028E-02 
494	 6.23033819615792E-02 
495	 6.23377466291579E-02 
496	 6.21716720302539E-02 
497	 6.20664983353868E-02 
498	 6.22902724564666E-02 
499	 6.23839286385963E-02 
500	 6.23686495182907E-02 
501	 6.27415525873947E-02 
502	 6.30438647778541E-02 
503	 6.30346172461109E-02 
504	 6.31605355354001E-02 
505	 6.34046028606696E-02 
506	 6.36402180938386E-02 
507	 6.38454211577484E-02 
508	 6.40978873751723E-02 
509	 6.47596933680039E-02 
510	 0.065368700901626 
511	 6.55762278851549E-02 
512	 6.58697609422457E-02 
513	 6.62918538048792E-02 
514	 0.066772650209442 
515	 0.067078562967919 
516	 6.71782392909789E-02 
517	 0.06743406396499 
518	 6.78467293339344E-02 
519	 0.068365561676899 
520	 6.86426980826189E-02 
521	 6.88684276430768E-02 
522	 6.97947826917989E-02 
523	 7.05989453334942E-02 
524	 7.09494358533766E-02 
525	 7.14026528502401E-02 
526	 7.18014273039776E-02 
527	 7.18324643503962E-02 
528	 7.22449735785236E-02 
529	 7.29933752318457E-02 
530	 7.32301972216614E-02 
531	 7.34009843285028E-02 
532	 0.0738201839114 
533	 7.45224896456377E-02 
534	 7.51302279006389E-02 
535	 7.48629293330553E-02 
536	 0.074936514644378 
537	 7.56003587411063E-02 
538	 7.60191806313901E-02 
539	 7.62770805194111E-02 
540	 7.64961008862231E-02 
541	 7.67575515811526E-02 
542	 7.70047770243942E-02 
543	 7.69894888793512E-02 
544	 0.07716802014361 
545	 7.76650350774616E-02 
546	 0.077947446836591 
547	 7.80929691090623E-02 
548	 7.82693748331413E-02 
549	 7.84530536598475E-02 
550	 0.078704329609131 
551	 0.079251046042573 
552	 7.96500701836965E-02 
553	 7.96551462907905E-02 
554	 7.97651109252358E-02 
555	 0.079964045482179 
556	 8.00696183135358E-02 
557	 8.03593230417598E-02 
558	 0.080776288902405 
559	 8.06442419660272E-02 
560	 8.05400211950563E-02 
561	 8.09685536662939E-02 
562	 8.09852350805043E-02 
563	 8.07437500214192E-02 
564	 8.11217387152649E-02 
565	 8.14651748056645E-02 
566	 8.14506136668114E-02 
567	 8.09014747689792E-02 
568	 8.02303385882946E-02 
569	 7.99743251037797E-02 
570	 8.01276519130323E-02 
571	 8.05608748265061E-02 
572	 8.09049700347186E-02 
573	 8.08919720339254E-02 
574	 8.04382295425826E-02 
575	 8.03840134591887E-02 
576	 8.05329537197301E-02 
577	 8.02994058400374E-02 
578	 8.00637453156781E-02 
579	 7.98982824739443E-02 
580	 7.95575186610125E-02 
581	 7.93842801123483E-02 
582	 7.96422093592932E-02 
583	 7.96103890238045E-02 
584	 7.94160527575638E-02 
585	 7.97846582977299E-02 
586	 8.00108261635374E-02 
587	 7.98198177500468E-02 
588	 7.94307711127538E-02 
589	 7.91082499862906E-02 
590	 0.079170103749331 
591	 7.93281679553815E-02 
592	 0.079406606730812 
593	 0.079082686311211 
594	 7.89547272121203E-02 
595	 7.93152065461335E-02 
596	 7.94332088957971E-02 
597	 7.94017176980735E-02 
598	 7.95811209923556E-02 
599	 7.95275069179501E-02 
600	 7.92244651539884E-02 
601	 7.92128973989265E-02 
602	 7.92205226974968E-02 
603	 7.90186911857606E-02 
604	 7.91064042745619E-02 
605	 7.93323578772393E-02 
606	 7.90894962823082E-02 
607	 7.88648955842487E-02 
608	 7.88303800984883E-02 
609	 7.87744755314913E-02 
610	 7.86774982774757E-02 
611	 7.85377716667194E-02 
612	 0.078519938477023 
613	 7.86019767263959E-02 
614	 7.85698230179052E-02 
615	 7.85255787537374E-02 
616	 7.85085406402199E-02 
617	 7.83621168459874E-02 
618	 7.80495898082512E-02 
619	 7.74999296581409E-02 
620	 7.74411835753891E-02 
621	 7.78777987598605E-02 
622	 7.77922784375372E-02 
623	 7.75102262130817E-02 
624	 7.73717576230205E-02 
625	 7.74767281691418E-02 
626	 7.76845202755553E-02 
627	 7.75557503343713E-02 
628	 7.74982355855658E-02 
629	 7.76395453199501E-02 
630	 7.77174283867415E-02 
631	 7.77319353517153E-02 
632	 7.77131542013191E-02 
633	 7.77351395625267E-02 
634	 7.77385775943614E-02 
635	 7.74743209841527E-02 
636	 7.71410004048293E-02 
637	 7.69056894510507E-02 
638	 7.70539522050513E-02 
639	 7.72894970000709E-02 
640	 7.70164065626008E-02 
641	 7.68716563682188E-02 
642	 7.69094083072292E-02 
643	 7.64457694533137E-02 
644	 7.60339340599531E-02 
645	 0.076133689091522 
646	 7.59221187607857E-02 
647	 7.54435070735668E-02 
648	 7.52548827626592E-02 
649	 7.49432130154152E-02 
650	 7.44128359439396E-02 
651	 7.39803643958034E-02 
652	 7.37655504979739E-02 
653	 7.38669417051001E-02 
654	 7.42463953822431E-02 
655	 7.45778503606284E-02 
656	 7.38108256112587E-02 
657	 7.29494273156955E-02 
658	 7.26451714006574E-02 
659	 7.25670163001738E-02 
660	 7.25069967960293E-02 
661	 7.22374311487808E-02 
662	 7.15545623751923E-02 
663	 7.06577317695607E-02 
664	 7.06093514358008E-02 
665	 7.07760177213126E-02 
666	 7.05749101289749E-02 
667	 6.99160810107849E-02 
668	 6.91933948051355E-02 
669	 6.94757501822483E-02 
670	 6.93838741323133E-02 
671	 6.86686726259833E-02 
672	 6.90550756402629E-02 
673	 6.95177466365191E-02 
674	 6.87821142506455E-02 
675	 6.85652874184881E-02 
676	 6.89886181348551E-02 
677	 6.91832668294436E-02 
678	 6.93291276412399E-02 
679	 6.95268200826795E-02 
680	 6.98967405663276E-02 
681	 7.03569023323892E-02 
682	 0.070750360227702 
683	 7.12473488318304E-02 
684	 7.19193107853669E-02 
685	 7.29129985660955E-02 
686	 7.39045422752636E-02 
687	 7.46118209599505E-02 
688	 7.56656810774902E-02 
689	 7.70039288258534E-02 
690	 7.83812240818747E-02 
691	 8.01788740169641E-02 
692	 0.082370363577301 
693	 8.41032767421853E-02 
694	 0.085732102160821 
695	 8.76021776238346E-02 
696	 8.96169121020569E-02 
697	 9.16451106012057E-02 
698	 9.33965749733635E-02 
699	 9.53737404618326E-02 
700	 9.76763927367016E-02 
701	 9.94280942564718E-02 
702	 0.10099823735854 
703	 0.103037672176474 
704	 0.104643699990469 
705	 0.105847554412905 
706	 0.107466060283135 
707	 0.109024185710814 
708	 0.110250280809885 
709	 0.111609801221467 
710	 0.113074472227404 
711	 0.114489410522327 
712	 0.115856381534785 
713	 0.117074226034496 
714	 0.117732227184011 
715	 0.118522554064677 
716	 0.120123040053104 
717	 0.121311665027524 
718	 0.122099875899073 
719	 0.123366143275314 
720	 0.124384358001264 
721	 0.124942744701148 
722	 0.12550188396451 
723	 0.125873468962888 
724	 0.125761203383365 
725	 0.12640753018966 
726	 0.127713845737275 
727	 0.12859206356298 
728	 0.129158336353016 
729	 0.129471643881757 
730	 0.129688919173195 
731	 0.130057846062077 
732	 0.130864887209968 
733	 0.131324528865066 
734	 0.131427080106427 
735	 0.131756085166497 
736	 0.132189523640668 
737	 0.132610792905266 
738	 0.132809766766118 
739	 0.132951735450236 
740	 0.13337772567642 
741	 0.134019989442887 
742	 0.134748442735189 
743	 0.135167492019498 
744	 0.135409735224278 
745	 0.135602722720062 
746	 0.135663234301566 
747	 0.135709987520775 
748	 0.136044708617509 
749	 0.136336509835997 
750	 0.136471847070485 
751	 0.136499504869374 
752	 0.136746189012114 
753	 0.137508184436118 
754	 0.137782817237139 
755	 0.137636559530048 
756	 0.137898002415606 
757	 0.138105753590913 
758	 0.138125300468041 
759	 0.138419964848597 
760	 0.139332146183265 
761	 0.140616625880224 
762	 0.14134979453496 
763	 0.141554076806469 
764	 0.141918756365648 
765	 0.142083683192278 
766	 0.141969954486728 
767	 0.141741783356912 
768	 0.141477632296856 
769	 0.141228873563096 
770	 0.141255067815716 
771	 0.141490001948489 
772	 0.141407666596904 
773	 0.141410131741864 
774	 0.141735554957462 
775	 0.141902176069572 
776	 0.142147154444246 
777	 0.14305391242485 
778	 0.143554630746223 
779	 0.143461685565418 
780	 0.143464216838737 
781	 0.143735249098565 
782	 0.144328674575875 
783	 0.1444328089797 
784	 0.144194625670844 
785	 0.14420111721999 
786	 0.14437288492581 
787	 0.144710874477333 
788	 0.145240464770151 
789	 0.145684104890573 
790	 0.145789365392508 
791	 0.145797537841145 
792	 0.145789185135848 
793	 0.145780753388771 
794	 0.146109992542223 
795	 0.146717240291491 
796	 0.146642085559159 
797	 0.146396381192125 
798	 0.146530278111705 
799	 0.146432315647158 
800	 0.14630782109864 
801	 0.147021440372787 
802	 0.14769292694436 
803	 0.147950667233308 
804	 0.147850178200705 
805	 0.148013350990044 
806	 0.149016623250172 
807	 0.148761829627811 
808	 0.147735100184937 
809	 0.1486961268494 
810	 0.149205556764452 
811	 0.148438751784152 
812	 0.14829828340358 
813	 0.148676868546681 
814	 0.149223262879649 
815	 0.14997155693931 
816	 0.150708376143887 
817	 0.150970510478443 
818	 0.150820807099272 
819	 0.150536992663531 
820	 0.151329353621679 
821	 0.152290676080295 
822	 0.15226261409551 
823	 0.152402991533918 
824	 0.152785642638548 
825	 0.152909579923952 
826	 0.152854785679618 
827	 0.152769436801514 
828	 0.153439679273553 
829	 0.153887023970121 
830	 0.15292456089648 
831	 0.153561153276785 
832	 0.155405517015275 
833	 0.15546930281007 
834	 0.155119265751208 
835	 0.154912687874441 
836	 0.154547708739692 
837	 0.154443624007404 
838	 0.155050804249153 
839	 0.155699660395335 
840	 0.156075547691104 
841	 0.155688141961873 
842	 0.155837470802215 
843	 0.156781389157516 
844	 0.156352501780119 
845	 0.155844261795049 
846	 0.156827617745249 
847	 0.157288382518303 
848	 0.157137860951066 
849	 0.15743295911462 
850	 0.157393730164922 
851	 0.15689518032139 
852	 0.157096044648885 
853	 0.157203579790431 
854	 0.156397561159721 
855	 0.157160383540303 
856	 0.158713601195961 
857	 0.157912978854324 
858	 0.157225398277833 
859	 0.157361463096142 
860	 0.157333122339029 
861	 0.157646348803663 
862	 0.158683437293152 
863	 0.158273474154743 
864	 0.157363369909663 
865	 0.159205788046579 
866	 0.160544865921446 
867	 0.160428171835863 
868	 0.160180461446862 
869	 0.159867877104593 
870	 0.159602867563548 
871	 0.160219632904392 
872	 0.161234834999315 
873	 0.161486592609374 
874	 0.161755122632921 
875	 0.162021444935074 
876	 0.161173688886048 
877	 0.160945064534918 
878	 0.162338836945917 
879	 0.162795530448663 
880	 0.162774272474337 
881	 0.163630985264447 
882	 0.163541685922653 
883	 0.162586986043298 
884	 0.162690059455943 
885	 0.163346723689225 
886	 0.164116102345623 
887	 0.163937462897514 
888	 0.163840093781921 
889	 0.165296415906273 
890	 0.166551127111699 
891	 0.167037807353187 
892	 0.166502287399141 
893	 0.165209476637535 
894	 0.163880694114277 
895	 0.165564602091627 
896	 0.168131451305751 
897	 0.168736550225519 
898	 0.169053665227179 
899	 0.16935424984719 
900	 0.1696826455739 
901	 0.168669208627144 
902	 0.166719962998507 
903	 0.167475819036236 
904	 0.168716648301713 
905	 0.168723186703323 
906	 0.169181007567103 
907	 0.169999129464114 
908	 0.170667535857522 
909	 0.169885068197066 
910	 0.168166252117226 
911	 0.168668772401514 
912	 0.171124284393667 
913	 0.17450153160423 
914	 0.173743009984876 
915	 0.171493126713927 
916	 0.171613588229124 
917	 0.17165414560114 
918	 0.171284161175527 
919	 0.170476389040854 
920	 0.172233675426798 
921	 0.176005641562125 
922	 0.17335696179566 
923	 0.170836880175355 
924	 0.174054317185938 
925	 0.172356306854409 
926	 0.168284656519951 
927	 0.171587300313471 
928	 0.17236772591975 
929	 0.168783975835397 
930	 0.170356396718322 
931	 0.172401013592156 
932	 0.171507857912069 
933	 0.174065263372316 
934	 0.176478742171399 
935	 0.172771478821339 
936	 0.175917643762721 
937	 0.183411188731264 
938	 0.181937472161027 
939	 0.175265765333545 
940	 0.167580336440671 
941	 0.172096572193669 
942	 0.175205101187189 
943	 0.168362473020047 
944	 0.170808300344361 
945	 0.176761534965382 
946	 0.173430527538358 
947	 0.171057788798384 
948	 0.1730419352719 
949	 0.182811354980165 
950	 0.18343756117656 
951	 0.171366085228766 
952	 0.17083238263886 
953	 0.173936727648638 
954	 0.172506406020192 
955	 0.176270881953816 
956	 0.182525636615631 
957	 0.184105645747406 
958	 0.183523579248722 
959	 0.180641424392535 
960	 0.171409034675054 
961	 0.170132812105515 
962	 0.180365104532148 
963	 0.181259176030548 
964	 0.17851821193232 
965	 0.178937535408653 
966	 0.177776177776543 
967	 0.175639321672858 
968	 0.175104661990978 
969	 0.17228608345078 
970	 0.16831657562488 
971	 0.171233438615202 
972	 0.175182971766458 
973	 0.176716440016886 
974	 0.176328168058555 
975	 0.176285306869746 
976	 0.178788413905382 
977	 0.178804833237557 
978	 0.176922337878964 
979	 0.176591616429255 
980	 0.175302941730161 
981	 0.173434816037785 
982	 0.174711857130884 
983	 0.176066367341797 
984	 0.176056400955119 
985	 0.17718019080039 
986	 0.179040182767404 
987	 0.180661887191913 
988	 0.176737595809386 
989	 0.172100199843192 
990	 0.178311613476009 
991	 0.180508532056009 
992	 0.177587361185456 
993	 0.18243813598238 
994	 0.185830512703206 
995	 0.183013502136641 
996	 0.174826095657191 
997	 0.170341811723194 
998	 0.177390817544034 
999	 0.181173188212059 
1000	 0.181089062491954 
1001	 0.180964082680277 
1002	 0.174809818497351 
1003	 0.167389027042681 
1004	 0.179748993129576 
1005	 0.18467668828484 
1006	 0.174231352482311 
1007	 0.168721932181053 
1008	 0.171836996546375 
1009	 0.183452710715931 
1010	 0.186892954630327 
1011	 0.183451417556437 
1012	 0.178477713801953 
1013	 0.177643398493313 
1014	 0.180987046892258 
1015	 0.184824725213006 
1016	 0.186680627014775 
1017	 0.186698863318387 
1018	 0.190483949051174 
1019	 0.191716872350579 
1020	 0.188092787388578 
1021	 0.188736937839273 
1022	 0.189193561392118 
1023	 0.184750235899613 
1024	 0.180201891588952 
1025	 0.178305536139716 
1026	 0.182070757556604 
1027	 0.185371045096369 
1028	 0.187004632314903 
1029	 0.189376261612472 
1030	 0.188494942793434 
1031	 0.185107717564373 
1032	 0.189633489295181 
1033	 0.18941675607183 
1034	 0.179006519818669 
1035	 0.179116997519661 
1036	 0.182269668503875 
1037	 0.179791217876371 
1038	 0.186732684698589 
1039	 0.19557978683293 
1040	 0.189579946192217 
1041	 0.184855534373645 
1042	 0.187601183109363 
1043	 0.205890103763428 
1044	 0.204564749174358 
1045	 0.182532823055455 
1046	 0.200254182529216 
1047	 0.20296532872357 
1048	 0.167715464491831 
1049	 0.178067461232706 
1050	 0.192238720992434 
1051	 0.170265335290589 
1052	 0.177710658438563 
1053	 0.19625203446946 
1054	 0.183233516867865 
1055	 0.190811981819998 
1056	 0.213578081564768 
1057	 0.213513175881015 
1058	 0.203402200905069 
1059	 0.191152603989159 
1060	 0.197629631237777 
1061	 0.204999801444927 
1062	 0.205812864338742 
1063	 0.204536844437773 
1064	 0.201401219315346 
1065	 0.198970123846391 
1066	 0.212236861812643 
1067	 0.224736463350019 
1068	 0.219551294496407 
1069	 0.224591272664038 
1070	 0.224036874026476 
1071	 0.184897796274649 
1072	 0.157141237651265 
1073	 0.147975022369642 
1074	 0.141127848888093 
1075	 0.160143402686244 
