Wavelength	A00354.asd
325	 5.47728335055581E-02 
326	 5.70433588652854E-02 
327	 5.95555082039225E-02 
328	 5.74943684641499E-02 
329	 5.76872482477607E-02 
330	 6.05365859379453E-02 
331	 5.42277472260595E-02 
332	 0.047396919851113 
333	 4.90610185508015E-02 
334	 5.52508381079599E-02 
335	 6.13277546400928E-02 
336	 5.86685713016837E-02 
337	 5.82669020278408E-02 
338	 6.15984161430345E-02 
339	 0.058748460017387 
340	 5.46607820051203E-02 
341	 5.37748884725383E-02 
342	 5.51810769669296E-02 
343	 5.82288222958997E-02 
344	 0.063097250829452 
345	 5.94650708320508E-02 
346	 4.97194097482673E-02 
347	 5.40105299179599E-02 
348	 5.96341221529423E-02 
349	 5.82622987901667E-02 
350	 5.79005919619156E-02 
351	 5.75753658574529E-02 
352	 5.39921978803168E-02 
353	 5.30924541483175E-02 
354	 5.53331037899846E-02 
355	 5.67315275626045E-02 
356	 5.67070642803825E-02 
357	 5.55098728185702E-02 
358	 5.78106677843464E-02 
359	 6.12495748135896E-02 
360	 6.16999943519255E-02 
361	 5.76449691759037E-02 
362	 5.22692330012574E-02 
363	 5.72217393814823E-02 
364	 6.02819691538823E-02 
365	 5.61436872926319E-02 
366	 5.59235682905107E-02 
367	 5.71941958754297E-02 
368	 5.52276475372768E-02 
369	 5.47001017388391E-02 
370	 5.57778372981735E-02 
371	 5.53751830675994E-02 
372	 5.48988130585324E-02 
373	 5.51295691778255E-02 
374	 5.57924957122568E-02 
375	 5.71059122493312E-02 
376	 5.93596872193249E-02 
377	 5.91098268585499E-02 
378	 5.66914652169685E-02 
379	 5.58481044959761E-02 
380	 5.60930510544878E-02 
381	 5.68040101812037E-02 
382	 5.50530937862523E-02 
383	 5.35644121083627E-02 
384	 5.62043507867554E-02 
385	 5.85360396624324E-02 
386	 5.90725956534746E-02 
387	 5.71726216747569E-02 
388	 5.56248572324177E-02 
389	 5.56103633582527E-02 
390	 5.52971836079511E-02 
391	 5.58143246707612E-02 
392	 5.85267570518909E-02 
393	 5.76346318868613E-02 
394	 0.054217342253718 
395	 5.48150372928868E-02 
396	 5.62818661858601E-02 
397	 5.70296884155158E-02 
398	 0.05649550437119 
399	 5.52456230707962E-02 
400	 0.053922496782223 
401	 5.39818571025555E-02 
402	 5.51084607709331E-02 
403	 5.60300243570018E-02 
404	 5.64420292650977E-02 
405	 5.63037406472548E-02 
406	 5.64590818954811E-02 
407	 5.66855502976005E-02 
408	 5.66117899924747E-02 
409	 5.64009181812118E-02 
410	 5.61722225151065E-02 
411	 5.60595544115154E-02 
412	 0.056363920002731 
413	 5.70461962896773E-02 
414	 0.056980932668031 
415	 5.65712921016821E-02 
416	 5.64745978996086E-02 
417	 5.63715485219696E-02 
418	 5.63044616617871E-02 
419	 5.66070791891837E-02 
420	 5.68405408869821E-02 
421	 5.68032686835689E-02 
422	 5.69196955980036E-02 
423	 0.057092010560455 
424	 5.71032639037363E-02 
425	 5.73940961002496E-02 
426	 5.79173110864248E-02 
427	 0.058123632536332 
428	 0.058112677499509 
429	 5.79978897513361E-02 
430	 5.81417510079001E-02 
431	 5.83630841497058E-02 
432	 5.82864427853662E-02 
433	 5.80100426714344E-02 
434	 5.77305683096037E-02 
435	 5.80721088494497E-02 
436	 5.81196232252811E-02 
437	 5.74240862976277E-02 
438	 5.78158138388883E-02 
439	 5.86864011620213E-02 
440	 5.84573201192491E-02 
441	 5.81272689924465E-02 
442	 5.80430866177202E-02 
443	 5.83819501060651E-02 
444	 5.86086032519029E-02 
445	 5.83543138725925E-02 
446	 0.058663134372264 
447	 0.059193770960543 
448	 0.05875725552636 
449	 5.86303977742495E-02 
450	 0.05911926206159 
451	 5.94596825099753E-02 
452	 5.96430859981658E-02 
453	 5.97065664826054E-02 
454	 5.96821982242973E-02 
455	 0.059690043268383 
456	 6.00493089172102E-02 
457	 0.060190328501993 
458	 5.99787928342376E-02 
459	 6.01558155822375E-02 
460	 6.03890574688925E-02 
461	 6.02251149712623E-02 
462	 6.01222050890007E-02 
463	 0.060102507083686 
464	 5.98303104032243E-02 
465	 5.98993081849111E-02 
466	 6.05035988593242E-02 
467	 6.06953717631437E-02 
468	 0.060543390770622 
469	 6.03137415299556E-02 
470	 6.04605671093834E-02 
471	 6.09493647039068E-02 
472	 6.12014406597353E-02 
473	 6.12295835693175E-02 
474	 6.10570264735601E-02 
475	 6.07773017873191E-02 
476	 6.06669239707613E-02 
477	 6.12028212696139E-02 
478	 6.11024082851283E-02 
479	 6.04080692847837E-02 
480	 6.09581996829282E-02 
481	 0.061743820807623 
482	 6.18900493344433E-02 
483	 6.14596409503111E-02 
484	 6.09434491248549E-02 
485	 6.15402959529455E-02 
486	 6.18321341617647E-02 
487	 0.061497939867829 
488	 6.18679163899643E-02 
489	 6.21422118848104E-02 
490	 6.14997825039473E-02 
491	 6.11614251892972E-02 
492	 6.13479281000991E-02 
493	 0.062004499428633 
494	 0.062485758206806 
495	 6.25454160482409E-02 
496	 6.27997354684704E-02 
497	 6.30039018338994E-02 
498	 6.27725435229834E-02 
499	 0.062813883660963 
500	 6.31657018931766E-02 
501	 6.32631549647103E-02 
502	 6.35486846646776E-02 
503	 6.41814748835592E-02 
504	 0.064252981374057 
505	 6.41106883092854E-02 
506	 6.45324238885165E-02 
507	 6.47260367758051E-02 
508	 6.46712250272907E-02 
509	 6.52122704554037E-02 
510	 6.57388253697492E-02 
511	 6.57809669478605E-02 
512	 6.59363644589114E-02 
513	 6.62618608411418E-02 
514	 6.66414892228711E-02 
515	 0.067099351203547 
516	 6.75991961155934E-02 
517	 6.79609667185352E-02 
518	 6.82958595707404E-02 
519	 6.87285666256989E-02 
520	 6.90119353768415E-02 
521	 6.92989090401278E-02 
522	 7.01683954195685E-02 
523	 0.070890006060331 
524	 7.11735648969258E-02 
525	 7.15479343122406E-02 
526	 7.19102332617171E-02 
527	 0.072026945315627 
528	 7.24098748604142E-02 
529	 7.30475490159265E-02 
530	 7.34315054184033E-02 
531	 7.37921263897635E-02 
532	 7.42870897453307E-02 
533	 7.49125182583093E-02 
534	 7.54127675187252E-02 
535	 7.52761298190995E-02 
536	 7.52969219970987E-02 
537	 0.075688037267356 
538	 7.60837122824738E-02 
539	 7.64691627550361E-02 
540	 7.68328901846279E-02 
541	 7.69890850692021E-02 
542	 7.70732250905249E-02 
543	 7.75606881364078E-02 
544	 0.077914300680802 
545	 7.79805886405749E-02 
546	 7.83461259178116E-02 
547	 7.86707395617239E-02 
548	 7.84479184712003E-02 
549	 7.87338378486349E-02 
550	 7.95234386225023E-02 
551	 7.98916763702196E-02 
552	 8.00528430810307E-02 
553	 8.01416628892424E-02 
554	 8.01476586190734E-02 
555	 8.01661932189998E-02 
556	 8.03576307783375E-02 
557	 8.05424585495791E-02 
558	 8.06678778845449E-02 
559	 8.07784343580635E-02 
560	 8.09359433699203E-02 
561	 8.11777182804653E-02 
562	 8.12191134504299E-02 
563	 8.11573091046895E-02 
564	 8.14209808513145E-02 
565	 8.15174869571108E-02 
566	 8.12635837406445E-02 
567	 8.08699218820844E-02 
568	 8.06029111692269E-02 
569	 8.07626010111864E-02 
570	 0.081014387480671 
571	 8.12012365744206E-02 
572	 8.11826789150778E-02 
573	 8.09613754985694E-02 
574	 8.06089267556143E-02 
575	 8.07039249839692E-02 
576	 8.08969232037035E-02 
577	 8.03920390508535E-02 
578	 8.00036566701562E-02 
579	 7.99253643774332E-02 
580	 7.97222056391149E-02 
581	 0.079748148053393 
582	 8.02680479971058E-02 
583	 8.04587767859428E-02 
584	 8.02946285153105E-02 
585	 8.01184865936444E-02 
586	 7.99854974522961E-02 
587	 7.99224857730336E-02 
588	 7.97668961329865E-02 
589	 7.96523788995204E-02 
590	 7.97684157932513E-02 
591	 7.98664753060427E-02 
592	 7.98302996965607E-02 
593	 7.94822623174173E-02 
594	 7.92898462402293E-02 
595	 0.079516121913444 
596	 7.98031843452146E-02 
597	 0.080140559461739 
598	 8.06603996675818E-02 
599	 8.05186326795279E-02 
600	 7.97386088475854E-02 
601	 7.96642765423887E-02 
602	 7.97415111963051E-02 
603	 0.079468505765058 
604	 7.94769254097816E-02 
605	 7.96643336831332E-02 
606	 7.94836130002764E-02 
607	 0.079426385139935 
608	 7.96144875058171E-02 
609	 7.95625048211998E-02 
610	 0.079349142497088 
611	 7.91318450189918E-02 
612	 7.93368790629867E-02 
613	 7.97329598260874E-02 
614	 0.07917925171515 
615	 7.86149311513828E-02 
616	 7.86037210420838E-02 
617	 7.87029597718004E-02 
618	 0.078641754060296 
619	 7.80329979951998E-02 
620	 7.77571869625232E-02 
621	 7.79589842040612E-02 
622	 7.79786435303953E-02 
623	 7.79492156586527E-02 
624	 0.078001666006675 
625	 7.80018002471245E-02 
626	 7.79582114114199E-02 
627	 7.79285243372374E-02 
628	 7.80342284518659E-02 
629	 7.82714778622734E-02 
630	 7.83086043644286E-02 
631	 7.82003238362786E-02 
632	 7.80577349062142E-02 
633	 7.82094097994345E-02 
634	 7.85390967037262E-02 
635	 7.84235007761284E-02 
636	 7.81410560681075E-02 
637	 7.78607803599461E-02 
638	 0.07752264607713 
639	 7.71866106372459E-02 
640	 7.69376213095744E-02 
641	 7.69992767164022E-02 
642	 7.72320348655371E-02 
643	 7.67246388488271E-02 
644	 7.62297616617844E-02 
645	 7.63793108156348E-02 
646	 7.60872432720074E-02 
647	 7.54766607018675E-02 
648	 7.53838023300241E-02 
649	 7.54461701602649E-02 
650	 0.07546116608288 
651	 7.50658387892944E-02 
652	 7.46822653807789E-02 
653	 7.48352911268208E-02 
654	 7.49945879945061E-02 
655	 7.48869952248769E-02 
656	 7.40061990526048E-02 
657	 7.34722394513339E-02 
658	 7.37875435148556E-02 
659	 7.32920315185249E-02 
660	 7.24714613769654E-02 
661	 0.072420751493465 
662	 7.21138586820411E-02 
663	 7.14890219995072E-02 
664	 7.15579848734488E-02 
665	 7.16655865219886E-02 
666	 7.12279321578833E-02 
667	 7.02464966561489E-02 
668	 6.92887180024303E-02 
669	 6.97723455428346E-02 
670	 6.99247000143782E-02 
671	 6.93441817440339E-02 
672	 0.069823482539707 
673	 7.04137671177662E-02 
674	 6.99172318881981E-02 
675	 6.97025025275391E-02 
676	 6.98906810382442E-02 
677	 0.069838509325549 
678	 6.98645924425378E-02 
679	 7.01295826053374E-02 
680	 7.05308828855124E-02 
681	 7.09338755063103E-02 
682	 7.11318975621474E-02 
683	 7.17888343518181E-02 
684	 7.28930562110189E-02 
685	 7.36304310190505E-02 
686	 7.44355096012534E-02 
687	 7.56436657093443E-02 
688	 7.65394782808807E-02 
689	 7.74062801440532E-02 
690	 7.93570842802232E-02 
691	 8.10409898893067E-02 
692	 8.22572216264801E-02 
693	 8.40837569109262E-02 
694	 8.62721330947244E-02 
695	 8.83962873534512E-02 
696	 9.02878077766166E-02 
697	 9.20098777296433E-02 
698	 9.39182509134619E-02 
699	 9.57849782024384E-02 
700	 9.75024533825167E-02 
701	 9.92771454862613E-02 
702	 0.10117508469382 
703	 0.103260426309651 
704	 0.104901582005294 
705	 0.106160515421755 
706	 0.107811809871075 
707	 0.109192096037286 
708	 0.10998218984442 
709	 0.11130974953253 
710	 0.113059770491489 
711	 0.114757595557463 
712	 0.11618989519595 
713	 0.11725315268701 
714	 0.117961698691125 
715	 0.118765785068909 
716	 0.120123627097064 
717	 0.121389024575513 
718	 0.122498005743645 
719	 0.123641772916591 
720	 0.124397048156843 
721	 0.124751630583199 
722	 0.125407211258044 
723	 0.125935931383196 
724	 0.125769433096905 
725	 0.126770331686055 
726	 0.128618955707223 
727	 0.129207494851289 
728	 0.129374604283915 
729	 0.129575368731743 
730	 0.130035518455949 
731	 0.130477323772696 
732	 0.130474017426322 
733	 0.130818533945061 
734	 0.131522816677533 
735	 0.131908696762339 
736	 0.132486460960412 
737	 0.133488484032243 
738	 0.133979843854795 
739	 0.134092103715575 
740	 0.134315674241291 
741	 0.134583399953689 
742	 0.134872713396813 
743	 0.135111881736846 
744	 0.135214465832794 
745	 0.135157182417777 
746	 0.135514078599038 
747	 0.136176349072551 
748	 0.136690802507874 
749	 0.136984481613429 
750	 0.136992618765978 
751	 0.136626507950221 
752	 0.13655458994942 
753	 0.137417073951313 
754	 0.137698372620852 
755	 0.137478805072092 
756	 0.137968962476826 
757	 0.13834771896426 
758	 0.138314003637316 
759	 0.138334596629164 
760	 0.138908408160612 
761	 0.140600341653581 
762	 0.141233382245057 
763	 0.140922963132753 
764	 0.141377076165284 
765	 0.141698290081183 
766	 0.141648845123825 
767	 0.141716149704323 
768	 0.141828222771521 
769	 0.14185538973089 
770	 0.141951578070501 
771	 0.142075039598318 
772	 0.141878712522852 
773	 0.141969992771046 
774	 0.142657448009663 
775	 0.142839446144504 
776	 0.142753516444421 
777	 0.143121163023001 
778	 0.143520347044262 
779	 0.14379105153843 
780	 0.143774979242725 
781	 0.143848021302092 
782	 0.144300187464883 
783	 0.144840815561951 
784	 0.145342707350175 
785	 0.145703303429057 
786	 0.145631349251448 
787	 0.14518312829166 
788	 0.145085884937357 
789	 0.145212610697046 
790	 0.14541338283277 
791	 0.145772553151748 
792	 0.146260061484648 
793	 0.14681965762184 
794	 0.14730725651092 
795	 0.147530153602374 
796	 0.14685434088704 
797	 0.146336497858128 
798	 0.146987010689376 
799	 0.14721251272643 
800	 0.147004953071875 
801	 0.147150129266046 
802	 0.147757422050351 
803	 0.148617568075972 
804	 0.148212621360825 
805	 0.147708987991477 
806	 0.148423693385067 
807	 0.148724241570064 
808	 0.14867840102395 
809	 0.149524594643865 
810	 0.150034408929665 
811	 0.149797792255629 
812	 0.149923667877152 
813	 0.150121537710123 
814	 0.14990715271651 
815	 0.150020425478339 
816	 0.150641883668234 
817	 0.151809612633016 
818	 0.15212523362 
819	 0.151324884274685 
820	 0.151704798295977 
821	 0.152322226708402 
822	 0.151905168431578 
823	 0.152688276000769 
824	 0.154129923625616 
825	 0.153343553183374 
826	 0.152693336222779 
827	 0.153115084934887 
828	 0.153854477457482 
829	 0.15423221526192 
830	 0.153569243904493 
831	 0.154176626017467 
832	 0.15566469211608 
833	 0.155400165666674 
834	 0.155129919407317 
835	 0.155563269163013 
836	 0.156289357493479 
837	 0.156645901981204 
838	 0.155975891226439 
839	 0.155609109310222 
840	 0.155600250102738 
841	 0.15508155752642 
842	 0.155205690374796 
843	 0.156188301882562 
844	 0.156188589507876 
845	 0.156130164746096 
846	 0.157148402630928 
847	 0.15734552888337 
848	 0.156755676070398 
849	 0.156589856771684 
850	 0.156716438038773 
851	 0.157078455807174 
852	 0.157321203246449 
853	 0.157714412747741 
854	 0.158514875766431 
855	 0.158777359435429 
856	 0.15842691542714 
857	 0.157694650349391 
858	 0.157315661495021 
859	 0.157587218021094 
860	 0.158409464331607 
861	 0.158971984502963 
862	 0.158602372284144 
863	 0.158858916717704 
864	 0.159700375227263 
865	 0.160418316762383 
866	 0.160150380245556 
867	 0.159176624903181 
868	 0.16043877807116 
869	 0.161516497947053 
870	 0.160572594094635 
871	 0.160528911575193 
872	 0.161327047592966 
873	 0.161958330987408 
874	 0.162631585079502 
875	 0.163087494150468 
876	 0.162204226050284 
877	 0.161573639374224 
878	 0.162278110886699 
879	 0.16313327833216 
880	 0.164048243530735 
881	 0.1651972122627 
882	 0.164534405228915 
883	 0.162710076287827 
884	 0.164010646402421 
885	 0.165337459767447 
886	 0.165089796434524 
887	 0.165249030051406 
888	 0.165752648507124 
889	 0.166249673616451 
890	 0.16695934913572 
891	 0.167447540304003 
892	 0.166129025260555 
893	 0.165506420797477 
894	 0.166502539169944 
895	 0.16621900669556 
896	 0.166495096979597 
897	 0.169422363753314 
898	 0.169029086533522 
899	 0.166705250282416 
900	 0.16928573605777 
901	 0.17069642465179 
902	 0.16946237516179 
903	 0.168261981354535 
904	 0.167986049398098 
905	 0.16903078927346 
906	 0.168694408405379 
907	 0.168088541947892 
908	 0.169964573094227 
909	 0.170571295643375 
910	 0.169746667557441 
911	 0.17157754426648 
912	 0.171947278312309 
913	 0.169348390438262 
914	 0.170295847513516 
915	 0.172844283708914 
916	 0.173764252402208 
917	 0.173575466955334 
918	 0.172833654568232 
919	 0.172741658897554 
920	 0.173257062616359 
921	 0.17383693125174 
922	 0.171470963777679 
923	 0.170462523428046 
924	 0.174224131156416 
925	 0.173898555284423 
926	 0.17060129576306 
927	 0.170283383111461 
928	 0.170024500862181 
929	 0.168912714501235 
930	 0.166560187985418 
931	 0.16703279426794 
932	 0.172415185137658 
933	 0.169546452789266 
934	 0.163005041134055 
935	 0.162932370530329 
936	 0.170053669633052 
937	 0.178930838175106 
938	 0.176285348568083 
939	 0.171162071281626 
940	 0.168319619567391 
941	 0.175285537987479 
942	 0.178938931986064 
943	 0.17125951534089 
944	 0.170453040381446 
945	 0.175027166201784 
946	 0.178674406466448 
947	 0.176360553635861 
948	 0.170906628029719 
949	 0.176288012330574 
950	 0.180753058677854 
951	 0.17990083552029 
952	 0.180585192509054 
953	 0.178091657893988 
954	 0.169436681053557 
955	 0.173034085910064 
956	 0.183700875494075 
957	 0.187155666380633 
958	 0.183050809013055 
959	 0.17460102721119 
960	 0.172256199833079 
961	 0.17353865094379 
962	 0.176185496856398 
963	 0.175272438739863 
964	 0.174120841656975 
965	 0.175930874854638 
966	 0.174839343023249 
967	 0.171933633997223 
968	 0.171178592170156 
969	 0.169895126813289 
970	 0.168499638948638 
971	 0.171076988286472 
972	 0.173868666607556 
973	 0.174499895464961 
974	 0.17144436369969 
975	 0.171787959627398 
976	 0.182218172123489 
977	 0.182186592525483 
978	 0.175556348418427 
979	 0.179531040385656 
980	 0.181562911807544 
981	 0.179129899948368 
982	 0.175904484966213 
983	 0.176344217601382 
984	 0.181243848294717 
985	 0.178435561267651 
986	 0.1766165777413 
987	 0.184705110099005 
988	 0.180204026402337 
989	 0.169122618780922 
990	 0.1714547956056 
991	 0.174164747384914 
992	 0.174308761802804 
993	 0.174781144551355 
994	 0.176086640140542 
995	 0.177759778475583 
996	 0.175082834020837 
997	 0.173605153836425 
998	 0.178581955772603 
999	 0.182112070824242 
1000	 0.184079984652049 
1001	 0.18692276931297 
1002	 0.181561014845025 
1003	 0.17181596953055 
1004	 0.178402920201604 
1005	 0.181391377901323 
1006	 0.174996390279735 
1007	 0.173463049318262 
1008	 0.177793421984027 
1009	 0.186264931291568 
1010	 0.184864881237611 
1011	 0.178849025382196 
1012	 0.178067300502322 
1013	 0.177260580947651 
1014	 0.17752212643266 
1015	 0.18411750138069 
1016	 0.186353984891301 
1017	 0.182658394673223 
1018	 0.182825612483123 
1019	 0.181112834587178 
1020	 0.175945246859709 
1021	 0.178104477186965 
1022	 0.182886000314037 
1023	 0.18478762831457 
1024	 0.186978482907624 
1025	 0.187005173965721 
1026	 0.180375207697433 
1027	 0.179647913314649 
1028	 0.184595397469863 
1029	 0.184830530689623 
1030	 0.17960958423111 
1031	 0.171616023413021 
1032	 0.174013615615339 
1033	 0.179939137350948 
1034	 0.184984760457268 
1035	 0.194818639093409 
1036	 0.201982583421166 
1037	 0.198996580284462 
1038	 0.190102893066232 
1039	 0.183860573941334 
1040	 0.192594183383882 
1041	 0.192048275948336 
1042	 0.184247111980348 
1043	 0.193621946292212 
1044	 0.195664711566499 
1045	 0.187561502474326 
1046	 0.200478709425428 
1047	 0.200168744328611 
1048	 0.172404517584278 
1049	 0.170787100965534 
1050	 0.177476700559293 
1051	 0.172048082691282 
1052	 0.171656273821052 
1053	 0.176778829902718 
1054	 0.184167607337037 
1055	 0.201170119118969 
1056	 0.216243112016904 
1057	 0.202284027582584 
1058	 0.179366620026639 
1059	 0.161487269927311 
1060	 0.184381111587525 
1061	 0.192212392976507 
1062	 0.169752351895732 
1063	 0.178732514170938 
1064	 0.192516586579253 
1065	 0.193480181052518 
1066	 0.223974331799122 
1067	 0.246055583233823 
1068	 0.219513020402865 
1069	 0.197604210371524 
1070	 0.187345956535263 
1071	 0.181701690173565 
1072	 0.163202162567071 
1073	 0.143531641428959 
1074	 0.161490752245678 
1075	 0.179067431002896 
