Wavelength	A00359.asd
325	 4.32177587067008E-02 
326	 4.36290389000916E-02 
327	 4.96139058750736E-02 
328	 0.058217350697835 
329	 6.52308464125397E-02 
330	 0.067590359901344 
331	 5.94882831807722E-02 
332	 5.18031013745342E-02 
333	 5.49135411033771E-02 
334	 5.70850632522823E-02 
335	 5.65808773241913E-02 
336	 5.39328220942008E-02 
337	 5.33844801017035E-02 
338	 5.60070744172632E-02 
339	 6.04892072690298E-02 
340	 6.07977492709774E-02 
341	 5.34938970453657E-02 
342	 5.51181435601138E-02 
343	 6.17693582651069E-02 
344	 6.20075661233879E-02 
345	 5.91216624659818E-02 
346	 5.56638612418089E-02 
347	 0.05833237310309 
348	 6.03846823116946E-02 
349	 5.76945476193558E-02 
350	 5.58253508815155E-02 
351	 5.49973430147489E-02 
352	 5.42619162763268E-02 
353	 5.44652136433093E-02 
354	 0.055635615796688 
355	 5.77202124920712E-02 
356	 0.057389948890782 
357	 5.36162529345912E-02 
358	 0.054626116553908 
359	 5.80155129494319E-02 
360	 5.88104944784003E-02 
361	 5.71447593095472E-02 
362	 5.45343263371699E-02 
363	 5.59795222201309E-02 
364	 5.71134468806581E-02 
365	 5.59483210443058E-02 
366	 5.58819821826783E-02 
367	 5.61813824788913E-02 
368	 5.54164881610158E-02 
369	 5.56196415759492E-02 
370	 5.67152178344654E-02 
371	 5.68234761384998E-02 
372	 5.71365861492061E-02 
373	 5.80262996328625E-02 
374	 0.05736875210954 
375	 5.66512214424545E-02 
376	 5.81088812300736E-02 
377	 5.86392295319074E-02 
378	 5.76228661672714E-02 
379	 5.55126623812753E-02 
380	 5.40234845692088E-02 
381	 5.41892463920511E-02 
382	 5.60012883269324E-02 
383	 5.77737314234777E-02 
384	 5.73835054341583E-02 
385	 0.058840853010839 
386	 6.10182507433589E-02 
387	 5.75228604136805E-02 
388	 5.57703239033361E-02 
389	 5.81085352131429E-02 
390	 5.70040225108335E-02 
391	 5.55798611282955E-02 
392	 5.80546331942655E-02 
393	 5.74215546136815E-02 
394	 5.45348844476253E-02 
395	 5.62530799308093E-02 
396	 5.72265452357666E-02 
397	 5.56822822449287E-02 
398	 5.49235207426274E-02 
399	 5.45696656997742E-02 
400	 5.39563981856741E-02 
401	 5.41595710734056E-02 
402	 0.054988266840377 
403	 5.56741972619154E-02 
404	 5.59651782541008E-02 
405	 0.055882886533174 
406	 5.64140476587493E-02 
407	 5.69873411385933E-02 
408	 5.68082730409093E-02 
409	 5.65158975557615E-02 
410	 5.62361431724344E-02 
411	 5.58083184502654E-02 
412	 5.56615492819162E-02 
413	 0.055969309305256 
414	 5.64565291716793E-02 
415	 5.68500179012626E-02 
416	 5.68639429324628E-02 
417	 5.64637141480789E-02 
418	 5.60498053458472E-02 
419	 5.68890427196176E-02 
420	 5.74979094898201E-02 
421	 5.71837398665934E-02 
422	 5.72527153245895E-02 
423	 5.74938889953988E-02 
424	 5.73816866697291E-02 
425	 5.75167636470497E-02 
426	 5.79566241047698E-02 
427	 5.84046378302289E-02 
428	 5.85128528919995E-02 
429	 5.81515353320763E-02 
430	 5.82496028413185E-02 
431	 5.85706980171557E-02 
432	 5.85359108695782E-02 
433	 5.79783496979248E-02 
434	 5.72249240207151E-02 
435	 5.75170706317847E-02 
436	 5.79733726971352E-02 
437	 5.80074004991229E-02 
438	 0.058054397034656 
439	 0.058069253167894 
440	 0.057806832648457 
441	 5.81916008233964E-02 
442	 5.91068394159053E-02 
443	 5.88343137651988E-02 
444	 5.84374980833277E-02 
445	 5.87787734845179E-02 
446	 5.89728729258208E-02 
447	 5.90184879808776E-02 
448	 5.92605942821027E-02 
449	 5.93073035044104E-02 
450	 5.91273469689328E-02 
451	 5.92070138956984E-02 
452	 5.94676555633735E-02 
453	 5.97948666954882E-02 
454	 6.00812850331664E-02 
455	 0.060247183675561 
456	 0.060159688634378 
457	 6.00910259855508E-02 
458	 6.01654991720325E-02 
459	 6.03797735732386E-02 
460	 6.03813961372149E-02 
461	 5.97885874592662E-02 
462	 5.98455326237047E-02 
463	 6.04232742415182E-02 
464	 6.01758196966468E-02 
465	 5.99728552739779E-02 
466	 6.02144079515043E-02 
467	 6.04074384594427E-02 
468	 6.04549415904092E-02 
469	 6.02946626883616E-02 
470	 6.04955532819346E-02 
471	 6.09897971409622E-02 
472	 6.09914984871494E-02 
473	 6.09059504626713E-02 
474	 6.09581853885041E-02 
475	 6.06975583062645E-02 
476	 6.04655756896382E-02 
477	 6.09730736488146E-02 
478	 0.061036840349055 
479	 6.06085536729578E-02 
480	 6.10321879030374E-02 
481	 6.15681227000575E-02 
482	 6.15941398182872E-02 
483	 6.13594341817315E-02 
484	 6.11774509370209E-02 
485	 6.17761060580818E-02 
486	 0.061813802940268 
487	 6.11050605404505E-02 
488	 6.15218730056657E-02 
489	 0.062051202593085 
490	 6.15995020853268E-02 
491	 6.11659078584307E-02 
492	 6.11251881540848E-02 
493	 6.19859446612022E-02 
494	 6.26127931261196E-02 
495	 0.062542498994237 
496	 6.24040670689398E-02 
497	 6.24434516269302E-02 
498	 6.28915308924803E-02 
499	 0.062943343424967 
500	 0.062673148204145 
501	 6.30773191702305E-02 
502	 6.34530761171169E-02 
503	 0.063417942358853 
504	 6.34941446562825E-02 
505	 6.37906674935331E-02 
506	 6.43818680047381E-02 
507	 6.48480260662223E-02 
508	 6.50927339768369E-02 
509	 6.53096676608291E-02 
510	 6.55072771726288E-02 
511	 6.57091758743435E-02 
512	 0.066126149573905 
513	 6.66630848334565E-02 
514	 6.70328944959723E-02 
515	 6.73251247265874E-02 
516	 6.75832345221153E-02 
517	 6.78821567815865E-02 
518	 6.82917485711522E-02 
519	 6.88522671796418E-02 
520	 6.90145936141112E-02 
521	 0.069039274988826 
522	 6.99696946785798E-02 
523	 7.07277884187441E-02 
524	 7.09067901609389E-02 
525	 7.13453598082989E-02 
526	 7.19201675569581E-02 
527	 7.23331828345078E-02 
528	 7.26209054214246E-02 
529	 7.28465986183415E-02 
530	 7.31846729746823E-02 
531	 0.073661803531421 
532	 7.42709309331713E-02 
533	 7.48168794954326E-02 
534	 7.51299106695335E-02 
535	 7.49210897168577E-02 
536	 7.49244162432152E-02 
537	 7.53683810721885E-02 
538	 7.60369713400251E-02 
539	 7.66140936829952E-02 
540	 7.68130042582427E-02 
541	 7.69768235523666E-02 
542	 7.71209152238944E-02 
543	 7.70340009075929E-02 
544	 0.077196392346789 
545	 7.77383056257292E-02 
546	 7.80726570193205E-02 
547	 7.82828281737898E-02 
548	 7.85525976092502E-02 
549	 7.87339779981628E-02 
550	 7.88908534144053E-02 
551	 7.93628876137902E-02 
552	 7.97539619398281E-02 
553	 7.98332833314651E-02 
554	 7.99414514498702E-02 
555	 8.00999626950859E-02 
556	 8.02540525251148E-02 
557	 8.04061228658154E-02 
558	 8.05813787829669E-02 
559	 8.09095636628904E-02 
560	 8.11994414470819E-02 
561	 8.12631414148996E-02 
562	 8.10036766588892E-02 
563	 8.06754905080158E-02 
564	 0.080959779109224 
565	 8.12790352981948E-02 
566	 8.13705991437849E-02 
567	 8.12510085820151E-02 
568	 8.10241379217138E-02 
569	 8.08245081731091E-02 
570	 8.06603543776458E-02 
571	 8.06186107986427E-02 
572	 0.081016254228035 
573	 8.10606892930746E-02 
574	 8.03914697864005E-02 
575	 8.03770107595507E-02 
576	 8.07117278690347E-02 
577	 8.04846103576261E-02 
578	 8.02474762270323E-02 
579	 8.01560551179714E-02 
580	 8.01365380592346E-02 
581	 8.01514076399476E-02 
582	 8.01584397521392E-02 
583	 8.00212460786218E-02 
584	 7.98797336250384E-02 
585	 8.02105373552316E-02 
586	 0.080305480938079 
587	 7.99139713941906E-02 
588	 7.94528819720201E-02 
589	 0.079182470978072 
590	 7.93822598975681E-02 
591	 7.95193578091954E-02 
592	 7.94224221164514E-02 
593	 7.89651102319394E-02 
594	 7.88740838821311E-02 
595	 7.94851192625703E-02 
596	 7.96984836461546E-02 
597	 7.97226316048012E-02 
598	 8.02347556126674E-02 
599	 8.02997231634924E-02 
600	 7.97964479808195E-02 
601	 7.95159707221294E-02 
602	 7.93653982515192E-02 
603	 7.92432323314949E-02 
604	 7.92440252520911E-02 
605	 7.93057230959535E-02 
606	 0.079251732511293 
607	 7.91592373754264E-02 
608	 7.91334007498987E-02 
609	 7.96893330313163E-02 
610	 8.00124967176654E-02 
611	 7.90620935161306E-02 
612	 7.85764005867745E-02 
613	 7.87386309402837E-02 
614	 7.85809038009817E-02 
615	 7.84429194737284E-02 
616	 7.84718569799309E-02 
617	 7.81935897582731E-02 
618	 7.78103021795165E-02 
619	 7.77591651439274E-02 
620	 0.077875287077417 
621	 7.80380674357733E-02 
622	 7.79925608247651E-02 
623	 7.77234475859511E-02 
624	 7.72732846867486E-02 
625	 7.72605470553344E-02 
626	 7.75623480393543E-02 
627	 7.75200241258376E-02 
628	 7.75911792348026E-02 
629	 0.077868278802762 
630	 7.78339009324986E-02 
631	 7.77646313984709E-02 
632	 7.80487135274047E-02 
633	 7.81450027302248E-02 
634	 7.79683835288325E-02 
635	 7.76819886574735E-02 
636	 7.74292118253197E-02 
637	 7.73027292442202E-02 
638	 7.72207772237503E-02 
639	 7.71334968317442E-02 
640	 7.69579735347065E-02 
641	 7.70615472756867E-02 
642	 0.077305124456944 
643	 7.65798165535281E-02 
644	 7.58356305476542E-02 
645	 7.59190823270771E-02 
646	 7.62410907578142E-02 
647	 7.64139998687173E-02 
648	 7.57062691332755E-02 
649	 7.51302520582475E-02 
650	 7.50499762420093E-02 
651	 7.48848203082877E-02 
652	 7.46973871380584E-02 
653	 7.46125852730252E-02 
654	 0.074504976236168 
655	 7.43221066276181E-02 
656	 7.39930606572885E-02 
657	 7.38441836727944E-02 
658	 7.39723448222927E-02 
659	 7.36262636305237E-02 
660	 7.30024227919153E-02 
661	 7.25508311127775E-02 
662	 7.20157737765493E-02 
663	 7.14289353196661E-02 
664	 7.11431441191534E-02 
665	 7.10393322056694E-02 
666	 7.09518965015304E-02 
667	 0.070197717019841 
668	 6.92569332617864E-02 
669	 6.96398759967229E-02 
670	 6.97802045497043E-02 
671	 6.92663437018024E-02 
672	 6.92804470299391E-02 
673	 6.94514160571802E-02 
674	 6.92631109759281E-02 
675	 0.069068603943535 
676	 0.06907093741862 
677	 6.96633109614875E-02 
678	 7.01438647023664E-02 
679	 7.01853791971309E-02 
680	 7.04751924663335E-02 
681	 0.070863946779773 
682	 7.09638545769447E-02 
683	 7.15787889254706E-02 
684	 0.072631552342702 
685	 7.28245319834467E-02 
686	 7.32899357589013E-02 
687	 7.49899102835044E-02 
688	 7.65187546140161E-02 
689	 7.76823991478699E-02 
690	 7.89668864124503E-02 
691	 0.080490993295879 
692	 0.082291788659074 
693	 8.40522616220087E-02 
694	 8.58974976324618E-02 
695	 8.78868823245208E-02 
696	 0.08981577211786 
697	 9.16519520490938E-02 
698	 9.34589221493491E-02 
699	 0.095406063502672 
700	 9.74904597825332E-02 
701	 9.92647248350518E-02 
702	 0.100961435553037 
703	 0.102973468153983 
704	 0.104822871467831 
705	 0.106447411833519 
706	 0.108011235191134 
707	 0.109457584787432 
708	 0.110727576591588 
709	 0.111581992147059 
710	 0.112461232326511 
711	 0.114247756271017 
712	 0.115757777364224 
713	 0.116765216428113 
714	 0.11815945039647 
715	 0.11936769287885 
716	 0.119915176173234 
717	 0.120742671650243 
718	 0.121977740371064 
719	 0.123108713178485 
720	 0.12409216434482 
721	 0.124840741158617 
722	 0.125343517345305 
723	 0.125643175926403 
724	 0.125728465005381 
725	 0.126563045262159 
726	 0.127968978621399 
727	 0.128892122796575 
728	 0.129412420645794 
729	 0.12962320049093 
730	 0.130053309037623 
731	 0.130589647722447 
732	 0.130984475536933 
733	 0.131271280544889 
734	 0.131558096302049 
735	 0.132190947678759 
736	 0.132694780364048 
737	 0.132785757068499 
738	 0.133100227112372 
739	 0.133593867058481 
740	 0.13400072856399 
741	 0.134455683480368 
742	 0.134939773527919 
743	 0.135321105527546 
744	 0.135373837888115 
745	 0.134993294044917 
746	 0.135215676485061 
747	 0.135896662101932 
748	 0.136239616489003 
749	 0.136601889311569 
750	 0.136962250386491 
751	 0.136640004525503 
752	 0.136369952816253 
753	 0.136937922468447 
754	 0.137407833964703 
755	 0.137655617219139 
756	 0.137942128580743 
757	 0.138108490104064 
758	 0.138152575361152 
759	 0.138508055622056 
760	 0.139565958252534 
761	 0.141043062499212 
762	 0.141174380571929 
763	 0.140464116375873 
764	 0.140843791666951 
765	 0.141385843997801 
766	 0.14168060230919 
767	 0.141569895677962 
768	 0.141409842442251 
769	 0.141610771335586 
770	 0.142026542353965 
771	 0.142400475179816 
772	 0.141892606236401 
773	 0.141611506945006 
774	 0.142229397516017 
775	 0.142650060767174 
776	 0.142806917596448 
777	 0.14285818850967 
778	 0.143222644684711 
779	 0.143871627913825 
780	 0.144069705983938 
781	 0.144207159734615 
782	 0.14455942357027 
783	 0.144414965528298 
784	 0.144102188725001 
785	 0.14456498241431 
786	 0.14483832561727 
787	 0.144725506443605 
788	 0.14491368880961 
789	 0.145177231253798 
790	 0.145288228008258 
791	 0.145456466909088 
792	 0.145757166601346 
793	 0.146322039684223 
794	 0.14666367076838 
795	 0.1466317210652 
796	 0.146508713729236 
797	 0.146424955261117 
798	 0.146490145736127 
799	 0.14658692054396 
800	 0.146796186704672 
801	 0.147448513141806 
802	 0.147865328107342 
803	 0.147801078353379 
804	 0.147623849696098 
805	 0.147515048426937 
806	 0.147625508167661 
807	 0.147564054336574 
808	 0.147580552050462 
809	 0.148747317083278 
810	 0.149280410182456 
811	 0.148633281919057 
812	 0.148898236722913 
813	 0.149477123931385 
814	 0.149378436787425 
815	 0.149921173531677 
816	 0.151103312539498 
817	 0.152015649597703 
818	 0.152044970115145 
819	 0.151223844075653 
820	 0.151261047059785 
821	 0.151806306473902 
822	 0.152279395856601 
823	 0.152527807159213 
824	 0.152615453637808 
825	 0.152881952523886 
826	 0.153389069219825 
827	 0.154115252119781 
828	 0.15471857926477 
829	 0.154738275861495 
830	 0.153736968016074 
831	 0.15345173456832 
832	 0.154026960434756 
833	 0.154682338388796 
834	 0.154999285997309 
835	 0.154875561510453 
836	 0.15519216800751 
837	 0.155368629795806 
838	 0.154722776629613 
839	 0.154843117461109 
840	 0.15563623208668 
841	 0.155752937754281 
842	 0.156340061967991 
843	 0.157466170255075 
844	 0.156694033484599 
845	 0.15563640986258 
846	 0.156260768580652 
847	 0.156814304758321 
848	 0.157003518905114 
849	 0.157135777076808 
850	 0.156799524819923 
851	 0.156168155107128 
852	 0.157214224652171 
853	 0.158158716680163 
854	 0.157055485361554 
855	 0.156770010124894 
856	 0.157285194584304 
857	 0.156994012441125 
858	 0.157297298787097 
859	 0.158267518620124 
860	 0.157855187297754 
861	 0.157382788966303 
862	 0.1581285551423 
863	 0.158415493013919 
864	 0.158408573465441 
865	 0.15926558284918 
866	 0.159692176714923 
867	 0.159562707210683 
868	 0.160581694719373 
869	 0.161125339049427 
870	 0.160101262616265 
871	 0.160756909450164 
872	 0.162157000058684 
873	 0.161495515682142 
874	 0.161168859192713 
875	 0.161631960317679 
876	 0.161575875581552 
877	 0.161827045183705 
878	 0.1628628018347 
879	 0.163513680701379 
880	 0.163898129576733 
881	 0.164512173006827 
882	 0.164118215568279 
883	 0.163036500542151 
884	 0.163558194726249 
885	 0.163995731386481 
886	 0.163577245610382 
887	 0.163945503684059 
888	 0.164883402763156 
889	 0.165860711524658 
890	 0.166267998363436 
891	 0.166129699455881 
892	 0.165941283753186 
893	 0.166638614752259 
894	 0.168299467199821 
895	 0.168066063838471 
896	 0.1676228159672 
897	 0.169026612213609 
898	 0.167767279526767 
899	 0.165452652162344 
900	 0.168629080973836 
901	 0.169231277796478 
902	 0.166276883723904 
903	 0.167974338926991 
904	 0.17005825413061 
905	 0.169289289803769 
906	 0.169461289258457 
907	 0.170419374235297 
908	 0.170914384952532 
909	 0.171542841039268 
910	 0.172429736656776 
911	 0.173539381598381 
912	 0.174332936753044 
913	 0.174441290569762 
914	 0.173663257639908 
915	 0.172997149214648 
916	 0.173597304707628 
917	 0.173989640220392 
918	 0.173524114366174 
919	 0.171045521705363 
920	 0.170504817186446 
921	 0.172486742885107 
922	 0.171782344292627 
923	 0.17131438050899 
924	 0.173497896744374 
925	 0.172018859100556 
926	 0.168857980255039 
927	 0.170892958969715 
928	 0.171068541753241 
929	 0.167928588033399 
930	 0.167464769283276 
931	 0.168359305741025 
932	 0.169244756613982 
933	 0.167145440572276 
934	 0.167661381944405 
935	 0.178687632341289 
936	 0.18579781541317 
937	 0.184831234305214 
938	 0.175338361601699 
939	 0.168112922436851 
940	 0.166810012490734 
941	 0.169267543861155 
942	 0.170201561219857 
943	 0.166831077696534 
944	 0.169873357296327 
945	 0.175748368297562 
946	 0.176874761951784 
947	 0.177162472990869 
948	 0.177184130997225 
949	 0.176105019424523 
950	 0.17365759862412 
951	 0.171264894531532 
952	 0.177437616504917 
953	 0.180182519133923 
954	 0.170215146026742 
955	 0.173343983238516 
956	 0.182739253428867 
957	 0.178858149659441 
958	 0.172853003814406 
959	 0.169605057415685 
960	 0.175351057748819 
961	 0.179666981853335 
962	 0.178205441739603 
963	 0.178675530090348 
964	 0.178976255510837 
965	 0.176776862122432 
966	 0.175290622559262 
967	 0.175463961797367 
968	 0.178435091945208 
969	 0.175288645297108 
970	 0.167241144797175 
971	 0.168743292794731 
972	 0.171650694916512 
973	 0.171977692903826 
974	 0.174747837468915 
975	 0.180415649696137 
976	 0.188124850470961 
977	 0.185604512741294 
978	 0.176337944818248 
979	 0.173037722833348 
980	 0.171293923510872 
981	 0.171308834335129 
982	 0.178017583521187 
983	 0.181715869316801 
984	 0.178526876154467 
985	 0.181026990374588 
986	 0.184552530802418 
987	 0.183123993019116 
988	 0.17962919302237 
989	 0.176362149490048 
990	 0.176738042190893 
991	 0.177060436280623 
992	 0.176688412157524 
993	 0.177477607472918 
994	 0.178540640081618 
995	 0.178864308314747 
996	 0.175595088669447 
997	 0.171915296253288 
998	 0.171653095150943 
999	 0.178488279329705 
1000	 0.186554633633949 
1001	 0.185133122027642 
1002	 0.179960478294643 
1003	 0.175532926249803 
1004	 0.181591596725474 
1005	 0.185010933644956 
1006	 0.181006853143701 
1007	 0.174960844442192 
1008	 0.173708839013806 
1009	 0.180785999237152 
1010	 0.181326845694914 
1011	 0.17873195991067 
1012	 0.180304136971659 
1013	 0.180329800015489 
1014	 0.180520419433965 
1015	 0.188595316388569 
1016	 0.186594313034537 
1017	 0.175931660116024 
1018	 0.188233457924476 
1019	 0.194346038267947 
1020	 0.182180773142887 
1021	 0.184452197390834 
1022	 0.192224443114738 
1023	 0.193622577161058 
1024	 0.188609441844335 
1025	 0.181080328944973 
1026	 0.177677995145017 
1027	 0.183461552487562 
1028	 0.192605148061639 
1029	 0.183495280114712 
1030	 0.177045579057273 
1031	 0.178634181269161 
1032	 0.1754393116722 
1033	 0.175501552897197 
1034	 0.183343456711437 
1035	 0.193236870877498 
1036	 0.198681847676296 
1037	 0.194616596625952 
1038	 0.191491111031697 
1039	 0.190562506829154 
1040	 0.190217365526655 
1041	 0.18587219510092 
1042	 0.180944987985217 
1043	 0.187940294835304 
1044	 0.194055670191401 
1045	 0.195465830114457 
1046	 0.202883708931168 
1047	 0.194362615449661 
1048	 0.164877405395012 
1049	 0.176436660532859 
1050	 0.192677762545345 
1051	 0.179363256121261 
1052	 0.188877626531863 
1053	 0.208637169775639 
1054	 0.207107443401668 
1055	 0.200452939266807 
1056	 0.197652216288095 
1057	 0.211580857475301 
1058	 0.208032169013374 
1059	 0.18610033666755 
1060	 0.191716825782781 
1061	 0.197476411195551 
1062	 0.19387317180849 
1063	 0.199816602385599 
1064	 0.199182777274214 
1065	 0.183673342442633 
1066	 0.180809278032616 
1067	 0.184110565453831 
1068	 0.184403473290784 
1069	 0.194553453313438 
1070	 0.197027086184306 
1071	 0.161305429858662 
1072	 0.148844966964608 
1073	 0.158488435881542 
1074	 0.147891517243498 
1075	 0.163278925396207 
