Wavelength	A00347.asd
325	 5.25696306232465E-02 
326	 5.92745638450614E-02 
327	 0.062345240121793 
328	 5.75530140054936E-02 
329	 5.55394972101258E-02 
330	 5.79074953968073E-02 
331	 4.98077816244654E-02 
332	 4.29960695358154E-02 
333	 4.92134525151133E-02 
334	 5.47358699036161E-02 
335	 5.69981314962813E-02 
336	 5.58691693386086E-02 
337	 0.056204096309886 
338	 5.88466441672469E-02 
339	 6.03488747245584E-02 
340	 5.82850170447545E-02 
341	 5.20642021441972E-02 
342	 5.64699186544571E-02 
343	 6.47100898165612E-02 
344	 6.05496382431288E-02 
345	 5.57661633542521E-02 
346	 5.38839063207126E-02 
347	 5.51814934494086E-02 
348	 5.72970312737928E-02 
349	 5.83289771982352E-02 
350	 5.65333806103014E-02 
351	 0.053981271324456 
352	 5.41223386121524E-02 
353	 5.40870885605869E-02 
354	 5.35566622157651E-02 
355	 5.39103693789946E-02 
356	 5.48749144079748E-02 
357	 5.62290093717172E-02 
358	 5.79083155909563E-02 
359	 5.90498886765884E-02 
360	 5.85361016342679E-02 
361	 0.056590726386312 
362	 0.054487861495309 
363	 5.58782506450861E-02 
364	 5.71135556387595E-02 
365	 5.64341554285127E-02 
366	 5.61349871380598E-02 
367	 5.60865024416444E-02 
368	 5.57984356852821E-02 
369	 5.59332958061019E-02 
370	 5.62474308835829E-02 
371	 5.52880662051168E-02 
372	 5.51637853577299E-02 
373	 5.66925978394279E-02 
374	 5.68361416329196E-02 
375	 5.66890842215338E-02 
376	 5.81473873496366E-02 
377	 5.78725531557979E-02 
378	 5.59593909185668E-02 
379	 5.52295009773503E-02 
380	 5.51318591228466E-02 
381	 5.53544920742966E-02 
382	 5.53150181617927E-02 
383	 5.57000698714053E-02 
384	 5.74621015633575E-02 
385	 5.85786040089143E-02 
386	 5.82513543388705E-02 
387	 5.56491432209773E-02 
388	 5.47048941846957E-02 
389	 5.64963281413969E-02 
390	 5.57175804026318E-02 
391	 5.47894900943793E-02 
392	 5.69370849071803E-02 
393	 5.65480889122777E-02 
394	 5.41716566843167E-02 
395	 5.47243218590268E-02 
396	 5.58773658162892E-02 
397	 5.63949307869427E-02 
398	 5.54880284692478E-02 
399	 5.41758638789622E-02 
400	 0.053503013698846 
401	 5.38957889384777E-02 
402	 5.49123857029604E-02 
403	 5.54111172016686E-02 
404	 5.56207501318269E-02 
405	 5.56830672599593E-02 
406	 5.60185735653226E-02 
407	 5.62196092170898E-02 
408	 5.57569178707947E-02 
409	 5.56033667746956E-02 
410	 5.57687551121822E-02 
411	 5.55219946806416E-02 
412	 5.57279785619046E-02 
413	 5.65396099736991E-02 
414	 5.62839937425888E-02 
415	 0.055530377094069 
416	 5.52018574940144E-02 
417	 5.55892439514901E-02 
418	 5.63851363843367E-02 
419	 5.64243851121384E-02 
420	 5.62356965092956E-02 
421	 5.61157726163536E-02 
422	 5.59509413349499E-02 
423	 5.59887445679959E-02 
424	 5.65800274197685E-02 
425	 5.71624868719374E-02 
426	 5.75679440801703E-02 
427	 5.78691433225126E-02 
428	 5.78617426632271E-02 
429	 5.74878637044327E-02 
430	 5.73561038167766E-02 
431	 5.74101552862558E-02 
432	 5.74293070580666E-02 
433	 5.69388462209284E-02 
434	 5.62489163089494E-02 
435	 5.69177358926443E-02 
436	 0.057493692155592 
437	 5.71255189245523E-02 
438	 5.74742049559548E-02 
439	 0.058196814887252 
440	 0.058266602207719 
441	 5.81295967365156E-02 
442	 5.79058266683186E-02 
443	 5.74710883588853E-02 
444	 5.74194384303527E-02 
445	 5.81506479652177E-02 
446	 5.86142417576117E-02 
447	 0.058706677756708 
448	 5.85904575431536E-02 
449	 5.87176076688324E-02 
450	 0.059187555923068 
451	 5.96048516852471E-02 
452	 5.97260486831707E-02 
453	 5.93705029411426E-02 
454	 5.92186836365423E-02 
455	 5.93180271473722E-02 
456	 5.93800255137611E-02 
457	 5.93562879774196E-02 
458	 5.92991585637459E-02 
459	 5.97383767363247E-02 
460	 6.01197593574185E-02 
461	 5.97656277466077E-02 
462	 5.96564563189419E-02 
463	 5.98071768549881E-02 
464	 0.059466642039868 
465	 5.94151086489791E-02 
466	 5.99527399741762E-02 
467	 6.01374737437438E-02 
468	 6.01167525930584E-02 
469	 6.02635597775137E-02 
470	 6.05491661253732E-02 
471	 6.08725414438184E-02 
472	 6.09197526785373E-02 
473	 6.08289604288047E-02 
474	 0.060686420729772 
475	 6.03576338718352E-02 
476	 6.01358469138396E-02 
477	 6.05776348491471E-02 
478	 6.04716551853935E-02 
479	 5.98730032438497E-02 
480	 6.06116142024255E-02 
481	 6.13600632776593E-02 
482	 6.10604965590032E-02 
483	 6.07832053838695E-02 
484	 6.07779751425337E-02 
485	 6.12399796737313E-02 
486	 6.13886551283532E-02 
487	 6.10824379304287E-02 
488	 6.13352762403078E-02 
489	 6.16345826465014E-02 
490	 6.14223656217638E-02 
491	 6.11347701782129E-02 
492	 6.10631117831579E-02 
493	 6.17762773656808E-02 
494	 6.23569254760573E-02 
495	 6.23803076883737E-02 
496	 6.19816876595875E-02 
497	 6.18239362850265E-02 
498	 6.27249239655943E-02 
499	 6.29111095161159E-02 
500	 0.062354951169944 
501	 0.062563632249787 
502	 6.29077066600174E-02 
503	 6.30533842839654E-02 
504	 6.35213716106727E-02 
505	 0.064038394897433 
506	 6.40663757413277E-02 
507	 6.40535758783808E-02 
508	 0.064179495661365 
509	 6.45628088273433E-02 
510	 6.50754817500242E-02 
511	 6.55807113245627E-02 
512	 6.58061315448776E-02 
513	 6.58593236962462E-02 
514	 6.60632606157994E-02 
515	 6.64688783578159E-02 
516	 6.70875723232166E-02 
517	 6.78123801135842E-02 
518	 0.068342507407993 
519	 6.83953514701187E-02 
520	 6.84860383953621E-02 
521	 6.87863405743325E-02 
522	 6.94251002799419E-02 
523	 7.00636932548597E-02 
524	 7.05470080396445E-02 
525	 0.07101932916819 
526	 7.14910952995826E-02 
527	 7.19588843463602E-02 
528	 7.22364544251919E-02 
529	 7.23902744998354E-02 
530	 7.27834371674601E-02 
531	 7.33509277673645E-02 
532	 7.40116319559609E-02 
533	 7.44570988379491E-02 
534	 0.074700232466954 
535	 7.48600196287082E-02 
536	 7.50876218891595E-02 
537	 7.54154240165566E-02 
538	 7.56442183601537E-02 
539	 7.59877312988397E-02 
540	 7.66168328846081E-02 
541	 7.67496628194136E-02 
542	 7.65172532944034E-02 
543	 7.66420248898347E-02 
544	 7.70276529754612E-02 
545	 7.75624714932451E-02 
546	 7.77163777254134E-02 
547	 7.77511839312476E-02 
548	 7.80728020423631E-02 
549	 7.82874508215307E-02 
550	 0.078410228632553 
551	 7.88044437322623E-02 
552	 7.92972793896489E-02 
553	 7.97300306223389E-02 
554	 7.97880719872454E-02 
555	 7.96457532637033E-02 
556	 7.96837546193256E-02 
557	 7.99740803183042E-02 
558	 8.04220183780873E-02 
559	 8.04346505042178E-02 
560	 8.03573389457449E-02 
561	 8.05128511134956E-02 
562	 0.080465551626653 
563	 8.03268878766415E-02 
564	 8.05998247916266E-02 
565	 8.08066739167231E-02 
566	 8.07588855875047E-02 
567	 8.06288684672107E-02 
568	 8.04843515787719E-02 
569	 8.03911345276251E-02 
570	 8.06020498731116E-02 
571	 8.09493118672752E-02 
572	 8.06977483092159E-02 
573	 8.02596027371557E-02 
574	 7.99524101376308E-02 
575	 8.01835611820518E-02 
576	 8.05247645598107E-02 
577	 8.00782722155537E-02 
578	 7.97913459487664E-02 
579	 7.98563637439947E-02 
580	 7.96958175954071E-02 
581	 0.079576033776737 
582	 7.97184901802042E-02 
583	 7.96387188014873E-02 
584	 7.94170476187406E-02 
585	 7.95108779975924E-02 
586	 7.95073314172818E-02 
587	 7.93011968947891E-02 
588	 7.93202301362168E-02 
589	 7.94252230294652E-02 
590	 7.93840365208141E-02 
591	 7.92225584516107E-02 
592	 7.89835485414298E-02 
593	 7.87267883275991E-02 
594	 7.87052724751073E-02 
595	 7.90114126669502E-02 
596	 7.90367875285223E-02 
597	 0.079009488103457 
598	 7.95225649395741E-02 
599	 7.95073342767701E-02 
600	 7.89221679554131E-02 
601	 7.91551231539585E-02 
602	 7.93752253982689E-02 
603	 7.88775088045407E-02 
604	 7.89391183607981E-02 
605	 7.93311693068776E-02 
606	 7.88203427393775E-02 
607	 7.86913385409301E-02 
608	 0.079273464857567 
609	 7.92743614947882E-02 
610	 7.89035024474434E-02 
611	 7.85773615019127E-02 
612	 7.86562537364632E-02 
613	 7.89241095996766E-02 
614	 7.82663159141316E-02 
615	 7.77763832578037E-02 
616	 7.80433060248049E-02 
617	 7.79885489502501E-02 
618	 7.76882134260408E-02 
619	 7.75166144039997E-02 
620	 7.75257364112696E-02 
621	 7.76798046652757E-02 
622	 7.77438341636503E-02 
623	 7.75759041978676E-02 
624	 0.07711557024506 
625	 7.72275988815056E-02 
626	 7.77116140340957E-02 
627	 0.077628932869981 
628	 7.74402089256795E-02 
629	 0.077361584478502 
630	 7.76038586767857E-02 
631	 7.78900786791912E-02 
632	 7.78582305605471E-02 
633	 7.80869150712003E-02 
634	 7.83746224680936E-02 
635	 7.76269826039653E-02 
636	 7.68226255860115E-02 
637	 7.65658944774117E-02 
638	 7.65996294760048E-02 
639	 7.66271622767181E-02 
640	 7.61585193261818E-02 
641	 7.60441972497175E-02 
642	 7.63353511110351E-02 
643	 7.60273123032953E-02 
644	 7.56319446212952E-02 
645	 7.56101429189201E-02 
646	 7.55849529536302E-02 
647	 7.53775962018087E-02 
648	 7.46796933150112E-02 
649	 7.40731069390474E-02 
650	 7.38431848479175E-02 
651	 7.39534566732839E-02 
652	 0.074237403274703 
653	 7.45025720261416E-02 
654	 7.45412467980328E-02 
655	 0.074268976053093 
656	 7.36519094972301E-02 
657	 7.31216237145198E-02 
658	 7.29243021533358E-02 
659	 7.26008955159846E-02 
660	 7.22576326414423E-02 
661	 7.22080078184945E-02 
662	 7.14781804335072E-02 
663	 7.01972755871117E-02 
664	 7.00863626289291E-02 
665	 7.04219293202026E-02 
666	 7.04963272293978E-02 
667	 6.98749887097117E-02 
668	 6.90027794351828E-02 
669	 0.069212764415105 
670	 6.92197297677171E-02 
671	 6.87338773501472E-02 
672	 6.89365866904063E-02 
673	 6.92459337743847E-02 
674	 6.89202487051016E-02 
675	 6.88581788719278E-02 
676	 6.91537802444067E-02 
677	 6.94616577059043E-02 
678	 6.97137231606645E-02 
679	 6.98880884602414E-02 
680	 7.02157017415201E-02 
681	 7.05941583267126E-02 
682	 7.08124214704834E-02 
683	 7.11848962652752E-02 
684	 7.17541154841373E-02 
685	 7.22706354586484E-02 
686	 7.31212588985426E-02 
687	 7.45751246291151E-02 
688	 7.54931928217373E-02 
689	 7.61476229919269E-02 
690	 0.077793198564352 
691	 7.95290778418755E-02 
692	 8.11698923848201E-02 
693	 8.30391741434484E-02 
694	 8.51877295341153E-02 
695	 8.75352359549571E-02 
696	 8.96251322228736E-02 
697	 0.091429785858592 
698	 9.31971998221937E-02 
699	 9.50032134875135E-02 
700	 9.68502491324737E-02 
701	 9.85397196638079E-02 
702	 0.100335548512566 
703	 0.102626984555503 
704	 0.104472038881788 
705	 0.105812337007218 
706	 0.107234226231606 
707	 0.108691017645442 
708	 0.110149523123087 
709	 0.111553284531911 
710	 0.112876658777595 
711	 0.114090358458753 
712	 0.11541783135118 
713	 0.116858260715191 
714	 0.118178522041989 
715	 0.119087113151114 
716	 0.119405554925275 
717	 0.120211058726382 
718	 0.121656764147872 
719	 0.123147945493761 
720	 0.124132569498936 
721	 0.124491245271877 
722	 0.124869706838151 
723	 0.125298793723782 
724	 0.12573537724285 
725	 0.126769984472615 
726	 0.128060164735915 
727	 0.128354210413295 
728	 0.128735532907238 
729	 0.1296225033913 
730	 0.129851500429475 
731	 0.129948370100054 
732	 0.130791268999028 
733	 0.131323601695276 
734	 0.131434045047861 
735	 0.131522624923202 
736	 0.131838573528893 
737	 0.132490739035771 
738	 0.132872351886552 
739	 0.133078401569976 
740	 0.13344195597711 
741	 0.133979028735759 
742	 0.134562635082976 
743	 0.134610079640868 
744	 0.134675399928133 
745	 0.135206666718724 
746	 0.135543770652532 
747	 0.135646533577095 
748	 0.135682719525435 
749	 0.135835606838264 
750	 0.136126276384524 
751	 0.136133006751055 
752	 0.136300318152495 
753	 0.137086748543476 
754	 0.137572635432414 
755	 0.137663641509283 
756	 0.137698431103308 
757	 0.137591161094528 
758	 0.137397016400331 
759	 0.137782241176941 
760	 0.139140285500305 
761	 0.140794001381183 
762	 0.141370909178658 
763	 0.141055855598261 
764	 0.14092032373827 
765	 0.141052693933043 
766	 0.141395692117706 
767	 0.14151930294259 
768	 0.141558726381905 
769	 0.141708485477427 
770	 0.141619433688239 
771	 0.141363540058203 
772	 0.141473048778311 
773	 0.14178378698228 
774	 0.14213498450793 
775	 0.142137509445415 
776	 0.142089086051322 
777	 0.142643403910305 
778	 0.143034999665484 
779	 0.143094842208502 
780	 0.143143503583214 
781	 0.143351455467307 
782	 0.143814582385744 
783	 0.144090484757351 
784	 0.144245675253009 
785	 0.144618246631468 
786	 0.144718019769957 
787	 0.144517356069041 
788	 0.144655052028835 
789	 0.145010358822923 
790	 0.145420043941111 
791	 0.145680861585793 
792	 0.145872252088567 
793	 0.146347644271593 
794	 0.146541456917487 
795	 0.146362820008792 
796	 0.14649905610216 
797	 0.146559309641182 
798	 0.146155722279747 
799	 0.146077666280266 
800	 0.146346620507611 
801	 0.146575196449841 
802	 0.146853736833404 
803	 0.147159933313199 
804	 0.147315699807901 
805	 0.147383906369207 
806	 0.147462535126763 
807	 0.147820741481063 
808	 0.148404339081382 
809	 0.148990296577759 
810	 0.149001159648066 
811	 0.148347955706985 
812	 0.148269216177361 
813	 0.148814372866328 
814	 0.149857240004846 
815	 0.150187537927821 
816	 0.149904857940271 
817	 0.150578987774324 
818	 0.150784347344365 
819	 0.15024889578513 
820	 0.150970666066516 
821	 0.152140846482395 
822	 0.152625965535993 
823	 0.152488394790002 
824	 0.152148995719269 
825	 0.152809509248143 
826	 0.153287120620822 
827	 0.153182956925026 
828	 0.153387789190469 
829	 0.153309475808609 
830	 0.152215571177355 
831	 0.152267614298633 
832	 0.15351124357905 
833	 0.15483445203475 
834	 0.15497925474975 
835	 0.153801020146375 
836	 0.154130435062898 
837	 0.1551581982035 
838	 0.155685587075349 
839	 0.155584757222284 
840	 0.155184294837847 
841	 0.155554498791681 
842	 0.155998711857176 
843	 0.156219655834326 
844	 0.156302715201204 
845	 0.156382338941845 
846	 0.156609023825261 
847	 0.157151069036303 
848	 0.157526326758556 
849	 0.156105128597716 
850	 0.155654729756133 
851	 0.156964139443537 
852	 0.157132423536853 
853	 0.157025078797924 
854	 0.157773756078545 
855	 0.158588306265854 
856	 0.158998682640528 
857	 0.158199284084634 
858	 0.157707100683451 
859	 0.157879002121834 
860	 0.157395774303924 
861	 0.157231646184905 
862	 0.15826550371859 
863	 0.158650619973776 
864	 0.158555822221742 
865	 0.159254368971788 
866	 0.159637545049172 
867	 0.159621603083166 
868	 0.160692379760065 
869	 0.161332966037831 
870	 0.160519356177671 
871	 0.161204322755827 
872	 0.16257217190587 
873	 0.162165180448616 
874	 0.16171326662334 
875	 0.161619169825219 
876	 0.161232431135006 
877	 0.161262233437135 
878	 0.162082839821531 
879	 0.16235864765697 
880	 0.162539283784735 
881	 0.16368003311395 
882	 0.163854641801341 
883	 0.162883967075974 
884	 0.161802385591317 
885	 0.162270998255609 
886	 0.164727227568243 
887	 0.165124237044225 
888	 0.164428371674717 
889	 0.164543721952079 
890	 0.165188161861218 
891	 0.166000566672062 
892	 0.165921657405785 
893	 0.16574665013239 
894	 0.165851888863883 
895	 0.165956882976724 
896	 0.166471207003806 
897	 0.167788460414848 
898	 0.168463743001956 
899	 0.168500299432694 
900	 0.168726931517781 
901	 0.169486539893314 
902	 0.170340098403589 
903	 0.168681613587023 
904	 0.167224424438682 
905	 0.168027356790247 
906	 0.169222529451469 
907	 0.169852681085239 
908	 0.168715029396762 
909	 0.168375017301733 
910	 0.169432517331396 
911	 0.17093658961579 
912	 0.171792280364301 
913	 0.171707000669643 
914	 0.173556682568571 
915	 0.175362297163783 
916	 0.17446563605589 
917	 0.173530742830964 
918	 0.172665626589433 
919	 0.170128018504018 
920	 0.169740767143418 
921	 0.171822328372012 
922	 0.17040289052859 
923	 0.168953675087687 
924	 0.170521331618033 
925	 0.169597175219962 
926	 0.167645310571781 
927	 0.170051824536671 
928	 0.170637788336717 
929	 0.168153470702865 
930	 0.16807924107538 
931	 0.170182422066473 
932	 0.173185803844142 
933	 0.167557436570518 
934	 0.162796430671561 
935	 0.173940041376106 
936	 0.179521428046166 
937	 0.177432049472524 
938	 0.176851752855592 
939	 0.174693566054295 
940	 0.171506477417627 
941	 0.172642601328118 
942	 0.172937341556082 
943	 0.169352263335805 
944	 0.170864980979221 
945	 0.1753766931292 
946	 0.177875975116026 
947	 0.176667882455499 
948	 0.174681586948329 
949	 0.183849836718181 
950	 0.187033151540118 
951	 0.17951602244126 
952	 0.179757669772508 
953	 0.180202435485248 
954	 0.174130594776819 
955	 0.178924814714018 
956	 0.186036919682503 
957	 0.175352939302027 
958	 0.171077446925092 
959	 0.175120349717886 
960	 0.171239966615767 
961	 0.171164589249194 
962	 0.178421387799189 
963	 0.180570998156785 
964	 0.179423284774447 
965	 0.177755911381459 
966	 0.176525313867247 
967	 0.175148834004754 
968	 0.171805931021769 
969	 0.169095084417126 
970	 0.168403252666312 
971	 0.172022263802074 
972	 0.173825946240865 
973	 0.171510472804035 
974	 0.172698077419521 
975	 0.178613165970384 
976	 0.188567602040028 
977	 0.185679951918435 
978	 0.174935960786666 
979	 0.174268830828737 
980	 0.176049656052034 
981	 0.177342389241107 
982	 0.174919945608059 
983	 0.174128073853463 
984	 0.177025871347732 
985	 0.176419532905939 
986	 0.175658905998094 
987	 0.178561046855779 
988	 0.178516772089482 
989	 0.17683281584442 
990	 0.178460270774013 
991	 0.180728847939138 
992	 0.181499197077702 
993	 0.175587051284176 
994	 0.173093755410156 
995	 0.177243772618273 
996	 0.173488937896507 
997	 0.172452362581344 
998	 0.183643603805151 
999	 0.18175415484394 
1000	 0.174317797915207 
1001	 0.181706534209268 
1002	 0.179527934805291 
1003	 0.169415764874483 
1004	 0.177837194966787 
1005	 0.18593032070084 
1006	 0.185740106580241 
1007	 0.178683283491307 
1008	 0.17488778880528 
1009	 0.180660681644334 
1010	 0.178934765941918 
1011	 0.17417363783818 
1012	 0.175377497649082 
1013	 0.173352829460752 
1014	 0.170459742085407 
1015	 0.177270654956052 
1016	 0.178624005043739 
1017	 0.172696210261806 
1018	 0.172759929544425 
1019	 0.177923521296721 
1020	 0.185654875520085 
1021	 0.182791864654325 
1022	 0.180022831340896 
1023	 0.187760928407138 
1024	 0.191453029911812 
1025	 0.187739471197849 
1026	 0.175326426761398 
1027	 0.178160949167325 
1028	 0.193428931981 
1029	 0.193322820986628 
1030	 0.189165204833483 
1031	 0.184590992800513 
1032	 0.178787299446093 
1033	 0.175179962859372 
1034	 0.176837256936784 
1035	 0.187787083149374 
1036	 0.195412077428644 
1037	 0.187888430873515 
1038	 0.182002247638593 
1039	 0.181505445625058 
1040	 0.18668165133505 
1041	 0.193191620054192 
1042	 0.196232975933482 
1043	 0.186809438250942 
1044	 0.179407086587841 
1045	 0.180605646727416 
1046	 0.190839423185883 
1047	 0.189056724199198 
1048	 0.167258477713828 
1049	 0.164062211385718 
1050	 0.172116317276686 
1051	 0.179382607517741 
1052	 0.17484288652894 
1053	 0.166839525218487 
1054	 0.171551061631956 
1055	 0.185385138847268 
1056	 0.204771722424886 
1057	 0.226738305789988 
1058	 0.217163950200216 
1059	 0.181097208021596 
1060	 0.193051085408899 
1061	 0.198460874953709 
1062	 0.181094369985608 
1063	 0.195229109163448 
1064	 0.200913865676646 
1065	 0.176062791965846 
1066	 0.190636973341411 
1067	 0.206569502766509 
1068	 0.180371935437706 
1069	 0.170019017630551 
1070	 0.180453904132139 
1071	 0.198516927685087 
1072	 0.198486052732615 
1073	 0.181573397245384 
1074	 0.165771315065503 
1075	 0.173156950773887 
