Wavelength	AVE00024.asd
325	 0.053516913696432 
326	 6.51962811182264E-02 
327	 6.49834690421709E-02 
328	 0.057386790925027 
329	 5.88308327009519E-02 
330	 7.05286250391936E-02 
331	 6.41809997300332E-02 
332	 5.60580812395614E-02 
333	 6.25387358224586E-02 
334	 6.27980688805083E-02 
335	 5.91025560607566E-02 
336	 6.54866081594526E-02 
337	 7.02598754078426E-02 
338	 6.99082528928757E-02 
339	 6.66375767248186E-02 
340	 6.31018521199315E-02 
341	 6.13873571975165E-02 
342	 6.03023119641801E-02 
343	 6.02118500118648E-02 
344	 6.24400386430029E-02 
345	 6.24748571959524E-02 
346	 6.04057522233885E-02 
347	 6.20154699712469E-02 
348	 6.19972902955815E-02 
349	 5.74753350652777E-02 
350	 5.57388640772597E-02 
351	 5.66677887102199E-02 
352	 0.058594060069436 
353	 6.02631811034435E-02 
354	 6.11753607238629E-02 
355	 6.14068345350223E-02 
356	 6.12382814429186E-02 
357	 6.09358149397625E-02 
358	 6.07001856121009E-02 
359	 6.13404275179688E-02 
360	 6.40594220522667E-02 
361	 6.31586497282827E-02 
362	 5.94669690001427E-02 
363	 6.02690718165782E-02 
364	 6.11633118705318E-02 
365	 6.00550051494693E-02 
366	 5.93799657757277E-02 
367	 5.98793211092211E-02 
368	 6.21871274939302E-02 
369	 6.43582555370855E-02 
370	 6.52461106146951E-02 
371	 6.26756443755799E-02 
372	 6.12039829162482E-02 
373	 6.29524739481129E-02 
374	 6.31663168170603E-02 
375	 6.20683194729513E-02 
376	 6.07047659444272E-02 
377	 6.05273910052232E-02 
378	 6.14981938883511E-02 
379	 6.22503580864152E-02 
380	 6.28104885661426E-02 
381	 0.062982534251352 
382	 6.17124357582869E-02 
383	 6.07027647829372E-02 
384	 6.22643422949038E-02 
385	 6.38823902665465E-02 
386	 6.45820159463432E-02 
387	 0.06365187811043 
388	 6.28726527392266E-02 
389	 6.28870353554882E-02 
390	 6.21903407424544E-02 
391	 6.16195665144093E-02 
392	 6.22506234021484E-02 
393	 6.24812842016743E-02 
394	 6.25673002900571E-02 
395	 6.45418183242259E-02 
396	 6.48488714298119E-02 
397	 6.27428045942775E-02 
398	 6.23491369125664E-02 
399	 6.19848443572313E-02 
400	 5.97581126368793E-02 
401	 5.92503529387116E-02 
402	 6.02576560824182E-02 
403	 6.09399730170889E-02 
404	 6.04094784181528E-02 
405	 0.05892206567294 
406	 6.09781510867231E-02 
407	 6.33545402180014E-02 
408	 6.17518409918903E-02 
409	 6.06233835657928E-02 
410	 6.07519209656004E-02 
411	 0.061535038719176 
412	 6.14144083015948E-02 
413	 6.00689026962405E-02 
414	 6.06540839807477E-02 
415	 6.17664658077295E-02 
416	 6.12392420161894E-02 
417	 6.14447887389355E-02 
418	 0.062300439200595 
419	 6.18061482354326E-02 
420	 6.13358459992281E-02 
421	 6.15889983622326E-02 
422	 6.18922111057608E-02 
423	 6.20374099473514E-02 
424	 6.18327488008783E-02 
425	 0.061889102095125 
426	 6.23594324813387E-02 
427	 6.33008823046804E-02 
428	 6.34888544392779E-02 
429	 0.062367961123898 
430	 6.24133435917415E-02 
431	 0.063001425629013 
432	 6.25127877034886E-02 
433	 6.26796283936367E-02 
434	 6.34155430554086E-02 
435	 6.28531864512478E-02 
436	 6.20917252228251E-02 
437	 6.19250383357234E-02 
438	 6.22690898278177E-02 
439	 6.28963108183389E-02 
440	 6.34549540254559E-02 
441	 6.36094147261254E-02 
442	 6.33433122336198E-02 
443	 0.063035526028293 
444	 6.31748842972505E-02 
445	 0.064037986880347 
446	 6.42581614980624E-02 
447	 6.39635946168474E-02 
448	 0.063985481460795 
449	 0.063953175493661 
450	 6.38251532843701E-02 
451	 6.38861125315152E-02 
452	 6.40120258842071E-02 
453	 0.06407579285838 
454	 6.43677818222699E-02 
455	 6.47201478970068E-02 
456	 6.44660393471378E-02 
457	 6.45983254194407E-02 
458	 0.065355710985866 
459	 6.56475239986293E-02 
460	 6.54166858402182E-02 
461	 6.47374124446031E-02 
462	 6.44248478032333E-02 
463	 6.46113994622534E-02 
464	 6.50153187014483E-02 
465	 6.53683924788008E-02 
466	 6.54884639369796E-02 
467	 6.54211973985245E-02 
468	 6.51677052081561E-02 
469	 6.47152613405535E-02 
470	 6.49668378931573E-02 
471	 6.57190264432478E-02 
472	 6.53310853023878E-02 
473	 6.51941433437553E-02 
474	 6.59777807784503E-02 
475	 6.53832811744618E-02 
476	 0.064423526209668 
477	 6.54209562827527E-02 
478	 6.57786890632285E-02 
479	 6.50641277591435E-02 
480	 6.47275231238806E-02 
481	 6.49710078156175E-02 
482	 6.58667442145121E-02 
483	 6.66475052577871E-02 
484	 6.69187109732671E-02 
485	 0.06604253976172 
486	 6.56733206555949E-02 
487	 6.62056704849048E-02 
488	 6.59426965086917E-02 
489	 6.56335902404304E-02 
490	 6.60911112396104E-02 
491	 6.63921734387541E-02 
492	 6.63944323613333E-02 
493	 6.61808957631986E-02 
494	 6.61872499826123E-02 
495	 6.65046012090598E-02 
496	 6.62440141826772E-02 
497	 6.61255704253247E-02 
498	 6.71734814538647E-02 
499	 0.067553448250013 
500	 6.71581257177874E-02 
501	 6.72607538728923E-02 
502	 6.76311727233227E-02 
503	 6.80647928870654E-02 
504	 6.80298906083061E-02 
505	 6.78903475438049E-02 
506	 6.83634101183828E-02 
507	 6.87267173600799E-02 
508	 6.89637114489504E-02 
509	 6.99009758397633E-02 
510	 7.07101035800778E-02 
511	 7.07697446305347E-02 
512	 7.09475825985854E-02 
513	 7.14103845912209E-02 
514	 0.072240551436885 
515	 7.27480155522001E-02 
516	 7.28736361082841E-02 
517	 0.073905391082117 
518	 7.49991692776854E-02 
519	 7.51800493141842E-02 
520	 7.50823642871816E-02 
521	 7.51551757071202E-02 
522	 7.61920684649977E-02 
523	 7.72960398265671E-02 
524	 7.80219262002559E-02 
525	 7.83910584429359E-02 
526	 7.88723294851019E-02 
527	 8.01304084186201E-02 
528	 8.05733565214523E-02 
529	 8.02758711524781E-02 
530	 8.10030355030667E-02 
531	 8.17806309514282E-02 
532	 8.19887403397586E-02 
533	 8.21724196877486E-02 
534	 8.25446001612732E-02 
535	 0.083403001273456 
536	 0.083920079784867 
537	 0.08399317871478 
538	 8.45099000609432E-02 
539	 8.51704943433278E-02 
540	 8.56221454219161E-02 
541	 8.56077907744295E-02 
542	 8.54015078928724E-02 
543	 0.085854423953959 
544	 0.086324145433424 
545	 8.65840502451167E-02 
546	 8.69850714410356E-02 
547	 8.74330662128699E-02 
548	 8.77705550348105E-02 
549	 8.79051678562202E-02 
550	 8.78934408027501E-02 
551	 8.79313364850674E-02 
552	 8.83105521256907E-02 
553	 8.91417789502542E-02 
554	 8.97305862092566E-02 
555	 8.99449854332492E-02 
556	 8.97320951647812E-02 
557	 0.089631556169093 
558	 0.089819439707341 
559	 9.01075287203356E-02 
560	 9.03028789410354E-02 
561	 9.02439824620311E-02 
562	 9.01070250296801E-02 
563	 8.99787021816544E-02 
564	 8.99966531145786E-02 
565	 8.99085103479671E-02 
566	 8.96506792602526E-02 
567	 8.95594481680656E-02 
568	 8.94209358980533E-02 
569	 8.89309322281969E-02 
570	 8.86517036438181E-02 
571	 8.86295260979635E-02 
572	 8.85109627965691E-02 
573	 8.83369922038499E-02 
574	 8.81118529238069E-02 
575	 8.77179293769869E-02 
576	 8.73096958272579E-02 
577	 8.71867896936224E-02 
578	 0.087126007466508 
579	 8.70137913758439E-02 
580	 8.67170923535258E-02 
581	 8.63228235338013E-02 
582	 8.59522729283726E-02 
583	 8.61213601851712E-02 
584	 8.65826749590966E-02 
585	 8.64978783177599E-02 
586	 8.62489255394828E-02 
587	 8.59730643168541E-02 
588	 0.085545817876715 
589	 8.54514478400302E-02 
590	 8.62927466838988E-02 
591	 8.63171935993795E-02 
592	 8.54887918557783E-02 
593	 8.51637545412041E-02 
594	 8.49077056887629E-02 
595	 0.084559666707569 
596	 8.48179803556591E-02 
597	 8.52543318353605E-02 
598	 8.49831887774617E-02 
599	 0.084598917388191 
600	 8.43713684226301E-02 
601	 8.46598663036589E-02 
602	 8.48615353628344E-02 
603	 8.44668439768851E-02 
604	 8.41312822335601E-02 
605	 8.39232849635636E-02 
606	 8.36725039266277E-02 
607	 8.35398134316259E-02 
608	 8.35417822433028E-02 
609	 8.34127423357273E-02 
610	 8.31234697656205E-02 
611	 8.26765051861866E-02 
612	 8.22621951419291E-02 
613	 8.19557251871233E-02 
614	 8.18573097044062E-02 
615	 8.14701361108165E-02 
616	 8.06101177408769E-02 
617	 8.03720369055449E-02 
618	 8.06390484453022E-02 
619	 8.09643922251687E-02 
620	 8.09666802807875E-02 
621	 8.06076170381521E-02 
622	 8.04518973157001E-02 
623	 8.01677960825021E-02 
624	 7.94928649083396E-02 
625	 7.91906143725026E-02 
626	 7.92911900666133E-02 
627	 7.94495194195903E-02 
628	 7.97911542356096E-02 
629	 8.02232867555782E-02 
630	 8.00490091690809E-02 
631	 7.98564560387784E-02 
632	 8.04268377920186E-02 
633	 8.02859657102564E-02 
634	 7.94346864024224E-02 
635	 7.90161524886809E-02 
636	 7.88872887720616E-02 
637	 7.89368434298896E-02 
638	 7.88669321540608E-02 
639	 7.86603170823225E-02 
640	 7.83878727613269E-02 
641	 7.79602266783112E-02 
642	 7.74789122467363E-02 
643	 7.74662988004858E-02 
644	 7.73554695073846E-02 
645	 7.66527199719481E-02 
646	 7.58392552777178E-02 
647	 7.51941813436997E-02 
648	 7.52049770741308E-02 
649	 7.51187771863545E-02 
650	 7.46779124887872E-02 
651	 7.43525971905993E-02 
652	 7.41534358516747E-02 
653	 7.40405979093027E-02 
654	 7.36886931993773E-02 
655	 7.31715267234725E-02 
656	 7.31333422051046E-02 
657	 0.073062271333345 
658	 0.072689254629133 
659	 0.072414337692998 
660	 7.21634050865069E-02 
661	 7.17483067587375E-02 
662	 7.14037042276675E-02 
663	 0.071123802224067 
664	 7.05877456927911E-02 
665	 7.00491555457667E-02 
666	 6.97204672934799E-02 
667	 6.94273235893885E-02 
668	 0.069185642415488 
669	 6.91616940728706E-02 
670	 6.88705386555832E-02 
671	 6.82508257704068E-02 
672	 6.80384010639007E-02 
673	 6.81193964308788E-02 
674	 6.82855101848762E-02 
675	 6.84589830125456E-02 
676	 0.068643439732692 
677	 6.89826652830957E-02 
678	 6.92331696718031E-02 
679	 6.92779868273734E-02 
680	 6.92415208735505E-02 
681	 6.94368362419722E-02 
682	 7.03277609977869E-02 
683	 7.10153438374364E-02 
684	 7.14350887580631E-02 
685	 7.25450969209146E-02 
686	 7.36334808912386E-02 
687	 0.074123326664133 
688	 7.54021033396046E-02 
689	 0.077307284802542 
690	 7.91409044677248E-02 
691	 8.09374615194785E-02 
692	 8.27404992954374E-02 
693	 8.45139689527506E-02 
694	 8.67882880676709E-02 
695	 8.99651224166401E-02 
696	 9.31201657503959E-02 
697	 9.58355718693604E-02 
698	 9.75122848416775E-02 
699	 9.99188378705302E-02 
700	 0.103683681384391 
701	 0.106821578441224 
702	 0.109277232109775 
703	 0.111329920812023 
704	 0.113995167596434 
705	 0.117314500244397 
706	 0.12037356707444 
707	 0.123137349310067 
708	 0.12553730468927 
709	 0.127397785436565 
710	 0.128897868055639 
711	 0.130298164568495 
712	 0.132572377318332 
713	 0.135633253173433 
714	 0.137723385827498 
715	 0.139134761655567 
716	 0.140314354502244 
717	 0.142136309388969 
718	 0.144549192963531 
719	 0.146211839612998 
720	 0.147709766310245 
721	 0.149083197221848 
722	 0.149749636087973 
723	 0.150544762013085 
724	 0.15234607984444 
725	 0.153857779755512 
726	 0.154766787209601 
727	 0.155523860753133 
728	 0.156186798209314 
729	 0.156881286672018 
730	 0.158029529872167 
731	 0.159244944291879 
732	 0.159968877087805 
733	 0.160037537391187 
734	 0.159808410881865 
735	 0.160526617643595 
736	 0.161213008681766 
737	 0.161281000457547 
738	 0.161906617026448 
739	 0.162668446385918 
740	 0.162454721242039 
741	 0.162589406729006 
742	 0.16325732653104 
743	 0.163403829742186 
744	 0.163401874103197 
745	 0.163613005129144 
746	 0.164103816553737 
747	 0.164766768320341 
748	 0.165377924807575 
749	 0.1656308968178 
750	 0.165573989367554 
751	 0.166258161318781 
752	 0.166812612468759 
753	 0.166307533839235 
754	 0.166441163680345 
755	 0.167115455485718 
756	 0.167174594322606 
757	 0.16628416697698 
758	 0.164516010052338 
759	 0.164301787779967 
760	 0.167189198164232 
761	 0.173747838401441 
762	 0.175626141835265 
763	 0.173098814190803 
764	 0.172881695512245 
765	 0.173063386732057 
766	 0.17285859599969 
767	 0.171681483107411 
768	 0.170477292515727 
769	 0.170359384254965 
770	 0.170439720201571 
771	 0.170529016126635 
772	 0.170733766828916 
773	 0.17089997641089 
774	 0.170953580015285 
775	 0.17128715497161 
776	 0.171543506695264 
777	 0.170941671447361 
778	 0.171051096114692 
779	 0.171990905408083 
780	 0.172020333681358 
781	 0.172200699687654 
782	 0.173252657081938 
783	 0.17321853373656 
784	 0.172419575067069 
785	 0.172204144881745 
786	 0.171985427851749 
787	 0.17185538814943 
788	 0.172997756639131 
789	 0.174044158432705 
790	 0.173731115686395 
791	 0.173468281912149 
792	 0.173449803955625 
793	 0.173411096514901 
794	 0.173729072309633 
795	 0.174424273123998 
796	 0.175014069546039 
797	 0.175074129811538 
798	 0.174313451690631 
799	 0.174328978537981 
800	 0.175075477560846 
801	 0.175654907520641 
802	 0.175363262673169 
803	 0.174252076361619 
804	 0.174460746639346 
805	 0.175308875179099 
806	 0.17585846645354 
807	 0.176040433312875 
808	 0.175729903034717 
809	 0.174479606440798 
810	 0.17435018952981 
811	 0.175919809826809 
812	 0.176273726930451 
813	 0.175960761760237 
814	 0.176061459926962 
815	 0.177602863124572 
816	 0.17995827485544 
817	 0.180425383048498 
818	 0.179825304821367 
819	 0.178822450911541 
820	 0.178511676390637 
821	 0.178987242518901 
822	 0.180241646947363 
823	 0.181498742544981 
824	 0.182041320284874 
825	 0.180676816082772 
826	 0.179761408368143 
827	 0.180135605934918 
828	 0.180189048149236 
829	 0.180362750794929 
830	 0.181325757282483 
831	 0.182315168080207 
832	 0.182985949058226 
833	 0.183039585541102 
834	 0.18246867644195 
835	 0.181462176716076 
836	 0.180751047762151 
837	 0.180829788751805 
838	 0.182096488451359 
839	 0.182790598972222 
840	 0.182528744302324 
841	 0.18122345563167 
842	 0.181243949347622 
843	 0.183074110119576 
844	 0.182719493156632 
845	 0.181852032067182 
846	 0.182624270206287 
847	 0.182385067686819 
848	 0.181419987019785 
849	 0.182230004992925 
850	 0.182216834405439 
851	 0.180878337013829 
852	 0.181783241432508 
853	 0.183415634509885 
854	 0.183872423727325 
855	 0.184495578006691 
856	 0.184938098203666 
857	 0.183725159720365 
858	 0.182789422735942 
859	 0.182711428012465 
860	 0.182545607735735 
861	 0.182788455045598 
862	 0.183819953382534 
863	 0.183673621025068 
864	 0.182976500187936 
865	 0.184109378997488 
866	 0.185138651018482 
867	 0.185491647914227 
868	 0.185919240660046 
869	 0.18617635298863 
870	 0.186083639294174 
871	 0.185896019800703 
872	 0.185951565106847 
873	 0.186800076051907 
874	 0.187631919145622 
875	 0.18790769795808 
876	 0.18655440540324 
877	 0.1858910877428 
878	 0.187299240454019 
879	 0.187631521860781 
880	 0.187309285366538 
881	 0.18774247829087 
882	 0.187952990077363 
883	 0.187872417453258 
884	 0.188175255959135 
885	 0.188201093801609 
886	 0.187848399632538 
887	 0.189101456368896 
888	 0.190693949897237 
889	 0.190697273671112 
890	 0.190118962997981 
891	 0.18935855397781 
892	 0.18881227464594 
893	 0.18881221414675 
894	 0.189432113862303 
895	 0.189769963273344 
896	 0.19009765324563 
897	 0.190781258287366 
898	 0.190756400657851 
899	 0.190597244561317 
900	 0.192376770453845 
901	 0.193298379366459 
902	 0.192925213980073 
903	 0.193872449984629 
904	 0.194115999077338 
905	 0.192431431496579 
906	 0.192959194331194 
907	 0.193977014779149 
908	 0.191201634406025 
909	 0.190973326443491 
910	 0.193899018053874 
911	 0.194639606676574 
912	 0.195208727315734 
913	 0.196582622824171 
914	 0.197557043092597 
915	 0.19752827627973 
916	 0.196051954795694 
917	 0.196325273236384 
918	 0.197306933475907 
919	 0.194188103188559 
920	 0.19189047943211 
921	 0.192151339434005 
922	 0.194315795967087 
923	 0.195465260204872 
924	 0.19312383086565 
925	 0.189278431042934 
926	 0.186006933185161 
927	 0.18698798470781 
928	 0.19087444423344 
929	 0.195835218373467 
930	 0.195103020499108 
931	 0.192898718536536 
932	 0.193598721643126 
933	 0.20003660993673 
934	 0.20659248107895 
935	 0.203479445663899 
936	 0.196728434413764 
937	 0.190916996634282 
938	 0.192941782267246 
939	 0.19326033081232 
940	 0.191060886926851 
941	 0.197706104185054 
942	 0.199825815495195 
943	 0.189849048979285 
944	 0.191895530014324 
945	 0.198953609647879 
946	 0.194781924482518 
947	 0.19427132606667 
948	 0.197234148909682 
949	 0.190240631815102 
950	 0.185535909588042 
951	 0.188267722010154 
952	 0.196079772079772 
953	 0.19991679215095 
954	 0.193139410207401 
955	 0.192448900685536 
956	 0.196456224005033 
957	 0.197503701804984 
958	 0.198275420428119 
959	 0.198335449348154 
960	 0.193874172324332 
961	 0.193687480265492 
962	 0.199596347535067 
963	 0.198245786450997 
964	 0.191770128699446 
965	 0.184661449376365 
966	 0.191153881975171 
967	 0.201561008847443 
968	 0.193051130318838 
969	 0.190428190907614 
970	 0.19563099458651 
971	 0.189459073866848 
972	 0.184564808014031 
973	 0.18749776586637 
974	 0.189685857784374 
975	 0.189530461840306 
976	 0.186589495014596 
977	 0.189264269775343 
978	 0.194975470962728 
979	 0.195078916541021 
980	 0.191692666679696 
981	 0.187771915840911 
982	 0.191666562516346 
983	 0.193167141550155 
984	 0.18808375339641 
985	 0.187711456565261 
986	 0.191475916839634 
987	 0.19733039029854 
988	 0.20237131881367 
989	 0.204093392768035 
990	 0.19885190638691 
991	 0.198093540167597 
992	 0.201422259859501 
993	 0.193457260896828 
994	 0.189349262557651 
995	 0.195206508852045 
996	 0.197645649950274 
997	 0.197125169382597 
998	 0.195130458492811 
999	 0.192219439876551 
1000	 0.191791771148724 
1001	 0.199075584203003 
1002	 0.199262205647186 
1003	 0.193425519680921 
1004	 0.199288184536821 
1005	 0.199760023500385 
1006	 0.191829214195184 
1007	 0.198450029962713 
1008	 0.202924365244935 
1009	 0.193808189402505 
1010	 0.195885700125704 
1011	 0.202540551801728 
1012	 0.20089500248759 
1013	 0.19512303704811 
1014	 0.192312399683766 
1015	 0.208195180890861 
1016	 0.210889453696469 
1017	 0.196888499351309 
1018	 0.197331598446951 
1019	 0.202355761306289 
1020	 0.206394576009544 
1021	 0.209916512563032 
1022	 0.210965089912886 
1023	 0.20842964687635 
1024	 0.205268137311502 
1025	 0.202451601475086 
1026	 0.200358296787493 
1027	 0.204748106397043 
1028	 0.212309835086904 
1029	 0.21021060269995 
1030	 0.20361554961027 
1031	 0.196391288529686 
1032	 0.196022062724807 
1033	 0.200498189727541 
1034	 0.206187180137397 
1035	 0.202003427076001 
1036	 0.197657001044071 
1037	 0.203912245408986 
1038	 0.213170664202524 
1039	 0.214942152951496 
1040	 0.195665082935266 
1041	 0.18781357082485 
1042	 0.193667053882835 
1043	 0.18946332061155 
1044	 0.193305347582652 
1045	 0.206004238614147 
1046	 0.202696095772852 
1047	 0.202625950051656 
1048	 0.214012506332125 
1049	 0.21328791523417 
1050	 0.205962455544338 
1051	 0.199302920067299 
1052	 0.189555126626479 
1053	 0.182999926427841 
1054	 0.189041917567052 
1055	 0.197346399493342 
1056	 0.197440279234825 
1057	 0.167483591817554 
1058	 0.183659242741867 
1059	 0.243409522836596 
1060	 0.230430836368074 
1061	 0.193850929294539 
1062	 0.159811122321857 
1063	 0.1473262757024 
1064	 0.153748379597035 
1065	 0.173452541917972 
1066	 0.199491413392996 
1067	 0.225031314961889 
1068	 0.240985412718699 
1069	 0.236958030311442 
1070	 0.218454897470816 
1071	 0.198348568381665 
1072	 0.18057280233523 
1073	 0.172243291285369 
1074	 0.188644469364181 
1075	 0.19635873971412 
