Wavelength	AVE00035.asd
325	 4.34679181264829E-02 
326	 5.74531631310415E-02 
327	 6.88478153257388E-02 
328	 6.13218828376471E-02 
329	 5.85148167975517E-02 
330	 6.64495024697243E-02 
331	 6.61195362523358E-02 
332	 6.20349178503658E-02 
333	 5.96778899457315E-02 
334	 6.16326470717713E-02 
335	 0.065880166507261 
336	 6.72898908749061E-02 
337	 6.70430155084395E-02 
338	 6.54907006536782E-02 
339	 6.28376497251315E-02 
340	 6.06751790272729E-02 
341	 6.00546417569547E-02 
342	 5.74610035373299E-02 
343	 0.055472287019217 
344	 6.04962680795112E-02 
345	 6.06478503068462E-02 
346	 5.58543014933858E-02 
347	 5.87236868748228E-02 
348	 6.21210854714276E-02 
349	 6.10825072953195E-02 
350	 5.80370371510349E-02 
351	 5.54523634646922E-02 
352	 5.63363741833747E-02 
353	 5.84059640916069E-02 
354	 6.01564056835925E-02 
355	 5.84204034359572E-02 
356	 5.78243501956603E-02 
357	 6.08286419815979E-02 
358	 6.27438742978085E-02 
359	 6.37553055386254E-02 
360	 6.51804543002615E-02 
361	 6.23467319330686E-02 
362	 5.70705451083925E-02 
363	 5.83386323858805E-02 
364	 6.01498039289711E-02 
365	 0.059535999890794 
366	 5.96249702446452E-02 
367	 6.05835147592593E-02 
368	 6.22483580942812E-02 
369	 6.25990809450995E-02 
370	 6.15616644837963E-02 
371	 6.04713146592311E-02 
372	 6.06396064180738E-02 
373	 6.24348674788394E-02 
374	 6.28760103358466E-02 
375	 6.20919979137715E-02 
376	 6.07726971893583E-02 
377	 6.04813333266166E-02 
378	 6.08333716552917E-02 
379	 5.88464547181394E-02 
380	 0.059005661535207 
381	 6.24813262869354E-02 
382	 6.04646267478588E-02 
383	 5.79275667383054E-02 
384	 6.24601070591816E-02 
385	 6.46957843091578E-02 
386	 6.28689934195221E-02 
387	 5.82635087090697E-02 
388	 5.73833898673274E-02 
389	 6.17472745435905E-02 
390	 6.18421833069436E-02 
391	 6.03359117584785E-02 
392	 0.061288174528679 
393	 6.06469816086603E-02 
394	 5.93744300730048E-02 
395	 6.28486306816087E-02 
396	 6.39251765666969E-02 
397	 6.08154618103997E-02 
398	 6.02983544862107E-02 
399	 6.06073803149037E-02 
400	 5.95076592562066E-02 
401	 5.91398743691648E-02 
402	 5.96571832777834E-02 
403	 6.07353586650678E-02 
404	 6.10210776362295E-02 
405	 0.060254229164925 
406	 6.09049348252268E-02 
407	 6.18466236374915E-02 
408	 6.14620791895323E-02 
409	 6.07666556403696E-02 
410	 6.02479702529807E-02 
411	 6.06365291789099E-02 
412	 6.07533875397025E-02 
413	 0.060229009438162 
414	 6.06148292580762E-02 
415	 6.10716941387805E-02 
416	 6.03538660595333E-02 
417	 6.04250926156646E-02 
418	 6.12772542096895E-02 
419	 6.14884512297158E-02 
420	 6.12222890026751E-02 
421	 6.06899030337692E-02 
422	 6.07453374390073E-02 
423	 6.11438425514798E-02 
424	 6.13718818684314E-02 
425	 6.17749414172846E-02 
426	 6.23212843273448E-02 
427	 6.28045075166257E-02 
428	 6.24078785184556E-02 
429	 6.09447610710272E-02 
430	 6.13960808514585E-02 
431	 6.26096585577117E-02 
432	 0.062034237810547 
433	 6.16533787661587E-02 
434	 0.061758142959351 
435	 6.14399779565826E-02 
436	 6.12959889577844E-02 
437	 6.16535236562318E-02 
438	 6.15112147295785E-02 
439	 6.13384533894371E-02 
440	 6.23126806061308E-02 
441	 6.28277160187968E-02 
442	 6.25728783448202E-02 
443	 6.23805631775336E-02 
444	 6.26300431210287E-02 
445	 6.35014059950037E-02 
446	 6.36551337700933E-02 
447	 6.33082163601921E-02 
448	 6.35108203074121E-02 
449	 0.063357362897748 
450	 6.28574190917264E-02 
451	 6.35825804279874E-02 
452	 0.0641581574001 
453	 6.32283827092287E-02 
454	 6.28843997727252E-02 
455	 6.33419388400471E-02 
456	 0.064048919799039 
457	 6.44156022970951E-02 
458	 6.42294583011142E-02 
459	 6.41274069278394E-02 
460	 6.41223156509659E-02 
461	 6.41566431739084E-02 
462	 6.39903359738625E-02 
463	 0.063820820572701 
464	 6.44434594444113E-02 
465	 6.50190601033615E-02 
466	 6.50765368121994E-02 
467	 6.47753781169375E-02 
468	 6.42801398196219E-02 
469	 6.37997610826313E-02 
470	 6.36734457987535E-02 
471	 6.39633581550984E-02 
472	 6.45437338430967E-02 
473	 6.49303717150325E-02 
474	 6.48450133697834E-02 
475	 6.47676533748211E-02 
476	 6.48589349059472E-02 
477	 6.52724880520712E-02 
478	 6.57015250476983E-02 
479	 6.58086503613139E-02 
480	 6.46117843111697E-02 
481	 6.37857572182539E-02 
482	 6.46341189589778E-02 
483	 6.57445466627647E-02 
484	 0.066373147309876 
485	 6.52853628351067E-02 
486	 6.48291598703113E-02 
487	 6.55667539597296E-02 
488	 6.53186510587932E-02 
489	 6.46949740917831E-02 
490	 6.44687743590447E-02 
491	 6.49764966144202E-02 
492	 6.57578445694012E-02 
493	 6.53495507937062E-02 
494	 6.51384200584794E-02 
495	 6.56269025541485E-02 
496	 6.59234021616395E-02 
497	 6.60278003644097E-02 
498	 6.60494797078064E-02 
499	 6.59793583592147E-02 
500	 6.59570614715249E-02 
501	 6.63632768939286E-02 
502	 6.69760803146575E-02 
503	 6.75836311089724E-02 
504	 6.77736529519446E-02 
505	 0.067764770555881 
506	 0.068001760660385 
507	 6.83296083774297E-02 
508	 6.86558097053714E-02 
509	 6.87038698345142E-02 
510	 0.068935959764526 
511	 6.96845333668896E-02 
512	 7.02805629810908E-02 
513	 7.08014103940571E-02 
514	 7.17672336722652E-02 
515	 7.24310831494023E-02 
516	 7.26159354439366E-02 
517	 7.29947227599129E-02 
518	 7.35205721207607E-02 
519	 7.40774892105241E-02 
520	 7.45740916320164E-02 
521	 7.50455268527381E-02 
522	 7.56359976242185E-02 
523	 7.63363571753996E-02 
524	 7.71249819983231E-02 
525	 7.78553528435649E-02 
526	 0.078537031598565 
527	 7.92103647992737E-02 
528	 7.96026198580065E-02 
529	 7.98035423543664E-02 
530	 8.03927745548936E-02 
531	 8.08378503681942E-02 
532	 8.08766943201546E-02 
533	 8.15534676366239E-02 
534	 0.082501270068936 
535	 8.27268298381638E-02 
536	 8.27773732633822E-02 
537	 8.29111459316885E-02 
538	 8.34822024577266E-02 
539	 0.084105121418621 
540	 8.43897050949558E-02 
541	 8.45306474661179E-02 
542	 8.46559389475098E-02 
543	 8.49411036187818E-02 
544	 8.55366736619188E-02 
545	 8.63563842766257E-02 
546	 8.64656378191247E-02 
547	 8.63229448653471E-02 
548	 8.66346584444903E-02 
549	 8.70049330165804E-02 
550	 8.73360789331227E-02 
551	 8.76039789246914E-02 
552	 8.79074206665496E-02 
553	 8.83017481987131E-02 
554	 8.87275233158126E-02 
555	 8.90306328484508E-02 
556	 8.89376228500283E-02 
557	 8.89068927219077E-02 
558	 8.90798920701336E-02 
559	 8.93437070623643E-02 
560	 8.94762537590408E-02 
561	 8.92832194942016E-02 
562	 8.88234571308825E-02 
563	 0.088412116401036 
564	 8.88683796480181E-02 
565	 8.90007376047711E-02 
566	 8.84475160714067E-02 
567	 8.83195404402686E-02 
568	 8.83923594915037E-02 
569	 8.82529362577343E-02 
570	 8.79459882773937E-02 
571	 8.75316374786539E-02 
572	 8.71650623257064E-02 
573	 8.69359278058835E-02 
574	 0.08689311690571 
575	 8.69357808811539E-02 
576	 8.69729565636417E-02 
577	 8.68841220156354E-02 
578	 8.67541057045152E-02 
579	 8.65521220255805E-02 
580	 8.60024053986758E-02 
581	 8.55665157853717E-02 
582	 8.56242079614886E-02 
583	 8.55851847925407E-02 
584	 8.53898364426568E-02 
585	 8.51616841793695E-02 
586	 8.50630496464978E-02 
587	 8.51180114384588E-02 
588	 8.49184038105944E-02 
589	 8.48204826680227E-02 
590	 8.53188148998553E-02 
591	 0.085170660145359 
592	 8.44323681944704E-02 
593	 8.42302857400685E-02 
594	 8.43457341177031E-02 
595	 8.45976050279621E-02 
596	 8.45197836741233E-02 
597	 8.42529487029812E-02 
598	 0.084170892576686 
599	 8.40627711983981E-02 
600	 8.38972794078579E-02 
601	 8.37945182041222E-02 
602	 8.36949824745759E-02 
603	 8.35363833010692E-02 
604	 8.32093115027799E-02 
605	 8.28813578179372E-02 
606	 8.30758899770153E-02 
607	 8.30129337742924E-02 
608	 8.24598217005152E-02 
609	 8.21044803339764E-02 
610	 8.19452712277665E-02 
611	 8.18940626572025E-02 
612	 8.16937969759601E-02 
613	 8.12502004687532E-02 
614	 8.04926502358688E-02 
615	 0.079796070405085 
616	 7.94667092334355E-02 
617	 7.98234206455376E-02 
618	 8.03079231915093E-02 
619	 7.99002528183825E-02 
620	 7.96193943714312E-02 
621	 7.96858724620498E-02 
622	 7.97008562896397E-02 
623	 7.94832731523211E-02 
624	 7.89362993749758E-02 
625	 7.88610914327797E-02 
626	 7.92128702038522E-02 
627	 7.95384083481506E-02 
628	 7.94329149870289E-02 
629	 7.88837283744349E-02 
630	 7.90760471371151E-02 
631	 7.94002777966242E-02 
632	 0.078987186901949 
633	 7.90632846810407E-02 
634	 7.95287329229982E-02 
635	 7.90804906597286E-02 
636	 7.86563274502441E-02 
637	 7.87444238491109E-02 
638	 0.078507280476212 
639	 7.80315177076247E-02 
640	 0.077670079434549 
641	 7.71683164636467E-02 
642	 7.66173947603775E-02 
643	 7.67421444489613E-02 
644	 7.65760438110501E-02 
645	 7.53425418582131E-02 
646	 7.47341629048458E-02 
647	 7.47405056136692E-02 
648	 0.074475201339356 
649	 7.40851741520634E-02 
650	 7.36617998454427E-02 
651	 7.35615889000669E-02 
652	 7.35235096026848E-02 
653	 7.32020526630347E-02 
654	 7.27168328997657E-02 
655	 7.21735195515347E-02 
656	 7.18691795182214E-02 
657	 7.18357218968601E-02 
658	 7.19635961247955E-02 
659	 7.14219489077363E-02 
660	 0.07072071633395 
661	 7.08420699493339E-02 
662	 7.07797278652864E-02 
663	 7.03104207664164E-02 
664	 6.98594049397464E-02 
665	 6.91772718797241E-02 
666	 6.81435314908632E-02 
667	 6.79503328481492E-02 
668	 6.84275722834707E-02 
669	 6.87822624883253E-02 
670	 6.83891982467218E-02 
671	 6.72617045812225E-02 
672	 6.71254774899225E-02 
673	 6.74708713198509E-02 
674	 6.75536386890749E-02 
675	 6.80858660291188E-02 
676	 6.88554248402252E-02 
677	 6.88199319782895E-02 
678	 6.87343557131498E-02 
679	 6.89725409761287E-02 
680	 6.90506972206001E-02 
681	 6.91754868019974E-02 
682	 6.97455092800896E-02 
683	 7.03857014182665E-02 
684	 7.10481478157525E-02 
685	 7.21024289919869E-02 
686	 7.29894527337442E-02 
687	 7.32748655781063E-02 
688	 7.43315952644424E-02 
689	 0.076135983844757 
690	 7.82135897401571E-02 
691	 8.03479378304285E-02 
692	 8.23894650569931E-02 
693	 8.38557630113017E-02 
694	 8.56761938241995E-02 
695	 8.87109726654374E-02 
696	 9.19672486490815E-02 
697	 9.50068687970809E-02 
698	 9.73424611202874E-02 
699	 9.99111024181906E-02 
700	 0.103035543207472 
701	 0.105819340482966 
702	 0.108255120366533 
703	 0.110489497599332 
704	 0.113369361096552 
705	 0.116796142055317 
706	 0.119588928577547 
707	 0.122169084818373 
708	 0.124733349478493 
709	 0.126576283827955 
710	 0.128116117248018 
711	 0.13027576761238 
712	 0.132409461183405 
713	 0.134404098285739 
714	 0.136769668404518 
715	 0.138832858654518 
716	 0.140073150596828 
717	 0.141495687323861 
718	 0.143393054461215 
719	 0.145605256535276 
720	 0.147438147976425 
721	 0.148479375927132 
722	 0.148437088463871 
723	 0.148723093123876 
724	 0.150877660674538 
725	 0.152536746486014 
726	 0.153320427353075 
727	 0.154352506911147 
728	 0.155341739538441 
729	 0.156213301985141 
730	 0.157369494823737 
731	 0.158322310612742 
732	 0.158381932457748 
733	 0.158591574951874 
734	 0.159164549800797 
735	 0.159897121191125 
736	 0.160500602426125 
737	 0.160793126080931 
738	 0.161261798932778 
739	 0.16175697073676 
740	 0.161853690111478 
741	 0.162089441272956 
742	 0.162509971164595 
743	 0.162507940643826 
744	 0.162672595237098 
745	 0.163435754833182 
746	 0.163546654870033 
747	 0.16324759994361 
748	 0.163620199691229 
749	 0.164192884515142 
750	 0.16474655567242 
751	 0.164952412120746 
752	 0.165191995760281 
753	 0.16586722724166 
754	 0.166218865067908 
755	 0.166261670627259 
756	 0.166709825691802 
757	 0.165933577206589 
758	 0.163552612845757 
759	 0.163347228345599 
760	 0.166430502048125 
761	 0.171609097098157 
762	 0.172872002772294 
763	 0.170952158119241 
764	 0.171870666025864 
765	 0.172398417353315 
766	 0.171598074450437 
767	 0.170616358152139 
768	 0.169934888531296 
769	 0.170043988268563 
770	 0.169814830144556 
771	 0.169210629028931 
772	 0.169077210081505 
773	 0.169402858051994 
774	 0.170116231635005 
775	 0.170727829928805 
776	 0.171011546487924 
777	 0.170708737526885 
778	 0.170830585590838 
779	 0.171438999683231 
780	 0.171313010355232 
781	 0.171149614627613 
782	 0.171483858205885 
783	 0.171603791066579 
784	 0.171548417416429 
785	 0.171656222185862 
786	 0.171604525990118 
787	 0.171472272409085 
788	 0.172165831928794 
789	 0.172695261703043 
790	 0.172186024885208 
791	 0.172157930677371 
792	 0.172626199519621 
793	 0.172932428080577 
794	 0.17306521875236 
795	 0.173061773100964 
796	 0.173336563612763 
797	 0.173490233930744 
798	 0.173153205780969 
799	 0.173312251511011 
800	 0.173892323274992 
801	 0.174118191297578 
802	 0.174565843008322 
803	 0.175187324407672 
804	 0.174577822187481 
805	 0.173766941779671 
806	 0.173952770344729 
807	 0.174689029471156 
808	 0.175325365897552 
809	 0.174147291504336 
810	 0.173608802764038 
811	 0.174655313692599 
812	 0.175703644930314 
813	 0.176165950452994 
814	 0.175496975770219 
815	 0.176449855536603 
816	 0.178682219956585 
817	 0.17877908491051 
818	 0.178260690471405 
819	 0.177884720383399 
820	 0.177670361574 
821	 0.177918294173571 
822	 0.178951802299248 
823	 0.179940202526297 
824	 0.180508240097381 
825	 0.180566034015025 
826	 0.179767192642862 
827	 0.17841192286293 
828	 0.179159951353005 
829	 0.180924612700836 
830	 0.181984851238175 
831	 0.182255017143588 
832	 0.181997850031758 
833	 0.182067642671312 
834	 0.182596709119475 
835	 0.183239899507648 
836	 0.181448503837159 
837	 0.179935510480852 
838	 0.18183511856527 
839	 0.182727221273512 
840	 0.182009762082677 
841	 0.180656923932226 
842	 0.180073817582379 
843	 0.180879685092885 
844	 0.182280656338486 
845	 0.183112639864289 
846	 0.182255667532884 
847	 0.181885753521193 
848	 0.182141718612711 
849	 0.182053690787101 
850	 0.181411759658989 
851	 0.180507643704521 
852	 0.181694061118472 
853	 0.183050300364386 
854	 0.182447338602643 
855	 0.183146063562914 
856	 0.184393683425882 
857	 0.182631008196368 
858	 0.181455240753955 
859	 0.181880406226855 
860	 0.182242825819117 
861	 0.182775571836772 
862	 0.183707264851656 
863	 0.184141748271912 
864	 0.184210843568284 
865	 0.184641232698657 
866	 0.185021252807043 
867	 0.185144964016821 
868	 0.184642487616606 
869	 0.184544012403892 
870	 0.185567091979946 
871	 0.186239315635115 
872	 0.18628940454822 
873	 0.18566409062799 
874	 0.1852728083136 
875	 0.185428641220489 
876	 0.18599137026595 
877	 0.186353441667856 
878	 0.186250072592211 
879	 0.18740088197966 
880	 0.18870636501801 
881	 0.188076252099309 
882	 0.186917411780556 
883	 0.185981278114662 
884	 0.186395732151107 
885	 0.186747353515519 
886	 0.186449843920403 
887	 0.187518219558347 
888	 0.188853892880192 
889	 0.188764696977343 
890	 0.188725552513291 
891	 0.188943859771329 
892	 0.188801728928346 
893	 0.189669820286643 
894	 0.19154837448775 
895	 0.190004313174606 
896	 0.18790477781614 
897	 0.189050856250663 
898	 0.190412698308574 
899	 0.191916935444981 
900	 0.19534755958214 
901	 0.195741099890769 
902	 0.192752971888559 
903	 0.192379161266332 
904	 0.193221353078058 
905	 0.193998023198806 
906	 0.194631600351236 
907	 0.194325468149578 
908	 0.191649714085252 
909	 0.192574816164288 
910	 0.196962043249806 
911	 0.197147269065335 
912	 0.196243996338377 
913	 0.195944316522412 
914	 0.194493937620701 
915	 0.193740550973549 
916	 0.195892221880483 
917	 0.196222438978575 
918	 0.194888122445896 
919	 0.19512156431321 
920	 0.19531894323477 
921	 0.194907710683031 
922	 0.193856901090144 
923	 0.192323044194597 
924	 0.190564093163674 
925	 0.1898052878434 
926	 0.189631510426634 
927	 0.188526741866986 
928	 0.190413390977971 
929	 0.195415684866035 
930	 0.196486186567015 
931	 0.195882064951314 
932	 0.194678130595958 
933	 0.184699802033595 
934	 0.17837447894293 
935	 0.195095399126757 
936	 0.198793277111765 
937	 0.1902838958771 
938	 0.195257406296726 
939	 0.19167212991079 
940	 0.179769900146593 
941	 0.189935069972555 
942	 0.199420194373408 
943	 0.193010901666617 
944	 0.194122584966875 
945	 0.198186824489864 
946	 0.193125650843395 
947	 0.191719549951225 
948	 0.193991927232318 
949	 0.188398280640951 
950	 0.185682049605893 
951	 0.189580353799477 
952	 0.194012782012782 
953	 0.196678808532075 
954	 0.196034333005371 
955	 0.193617935034006 
956	 0.190597778679031 
957	 0.188039712517182 
958	 0.188046867439967 
959	 0.190927895740181 
960	 0.195602863337628 
961	 0.200494054420041 
962	 0.202986363813528 
963	 0.194335386874423 
964	 0.185540817949747 
965	 0.187788677918382 
966	 0.190610670674485 
967	 0.191208791462781 
968	 0.187414929500653 
969	 0.188317966429167 
970	 0.193335853635532 
971	 0.190429278424166 
972	 0.189536712711979 
973	 0.19448714122048 
974	 0.190823996172209 
975	 0.187385634876676 
976	 0.194534834182057 
977	 0.191620560654326 
978	 0.182419128884729 
979	 0.182753491021215 
980	 0.188346555996474 
981	 0.194419088332873 
982	 0.188559295555003 
983	 0.184616448755015 
984	 0.189236109894806 
985	 0.191449742374425 
986	 0.192966323876131 
987	 0.196409033073727 
988	 0.198060995076878 
989	 0.198766476398067 
990	 0.201813125605078 
991	 0.199736312709648 
992	 0.192942286669558 
993	 0.189823346218461 
994	 0.191545034532128 
995	 0.197417302431391 
996	 0.200528259226006 
997	 0.199940511458871 
998	 0.195739235546101 
999	 0.192843264783728 
1000	 0.193428693628132 
1001	 0.19929681481668 
1002	 0.198490206039753 
1003	 0.191656036568428 
1004	 0.191809521862302 
1005	 0.194126960398966 
1006	 0.196069233206591 
1007	 0.194552943099212 
1008	 0.19227847418405 
1009	 0.191624802413753 
1010	 0.19290205663936 
1011	 0.193427314964654 
1012	 0.190025045511596 
1013	 0.195637719803378 
1014	 0.206295384653835 
1015	 0.206169575016846 
1016	 0.199218571951398 
1017	 0.188530979808991 
1018	 0.18230658392165 
1019	 0.182981448010164 
1020	 0.190518854822953 
1021	 0.196036347927343 
1022	 0.199958253042455 
1023	 0.204182429406626 
1024	 0.208364223774157 
1025	 0.210001394426963 
1026	 0.205391102272452 
1027	 0.205504734530946 
1028	 0.209221220340885 
1029	 0.203472795332425 
1030	 0.20298512018153 
1031	 0.208736299292051 
1032	 0.199353831938869 
1033	 0.198160314547357 
1034	 0.21546982341279 
1035	 0.214703510068203 
1036	 0.208288356558386 
1037	 0.211880647588592 
1038	 0.21354596129944 
1039	 0.210251190760433 
1040	 0.20030607423564 
1041	 0.203309087325875 
1042	 0.210732357025451 
1043	 0.177768297535452 
1044	 0.179431402390868 
1045	 0.222644207382253 
1046	 0.209966586983154 
1047	 0.186392010593046 
1048	 0.183684753472671 
1049	 0.213913426388135 
1050	 0.229199111213839 
1051	 0.189292172594258 
1052	 0.191262612215347 
1053	 0.209783558401628 
1054	 0.184168834861456 
1055	 0.177749144816386 
1056	 0.19302250522619 
1057	 0.203730301449085 
1058	 0.21091646304283 
1059	 0.212185741049627 
1060	 0.202621523102458 
1061	 0.194233328317297 
1062	 0.191274661861712 
1063	 0.190796551064954 
1064	 0.17575491993173 
1065	 0.144451154358406 
1066	 0.161753976407952 
1067	 0.197751319226054 
1068	 0.209635131516053 
1069	 0.197987564536723 
1070	 0.175278501761859 
1071	 0.163309761037383 
1072	 0.161076748333029 
1073	 0.165775335569699 
1074	 0.17017950642058 
1075	 0.176098098644956 
