Wavelength	AVE00057.asd
325	 3.70603823696019E-02 
326	 3.20664444883991E-02 
327	 3.49312819477946E-02 
328	 3.64594297909792E-02 
329	 3.45953568939952E-02 
330	 2.95994221907506E-02 
331	 2.62529341569695E-02 
332	 2.81773604722526E-02 
333	 3.75100036491786E-02 
334	 3.99998406843291E-02 
335	 3.67808391623701E-02 
336	 3.58809691354598E-02 
337	 3.68377249411515E-02 
338	 0.038763867482848 
339	 3.77953929445365E-02 
340	 3.50329106606406E-02 
341	 3.21163941994777E-02 
342	 3.50753756826298E-02 
343	 4.04838884286683E-02 
344	 0.040790744499108 
345	 0.039472942459342 
346	 3.82735136422828E-02 
347	 4.05374795335195E-02 
348	 4.04057124643999E-02 
349	 3.48907590115948E-02 
350	 3.32406569513429E-02 
351	 3.44421515528045E-02 
352	 3.48251264665222E-02 
353	 3.66545866342342E-02 
354	 3.85896660636193E-02 
355	 0.034208876199593 
356	 3.11275011698076E-02 
357	 3.35591781606894E-02 
358	 3.58884554151646E-02 
359	 3.67464224040995E-02 
360	 3.53184273565884E-02 
361	 0.034255641349232 
362	 3.43101330571571E-02 
363	 0.035625389304965 
364	 0.035239233820296 
365	 3.24088834235938E-02 
366	 3.32327760030543E-02 
367	 3.52591267856829E-02 
368	 3.44508886175553E-02 
369	 3.46563999809925E-02 
370	 3.57117099672097E-02 
371	 3.39758339486582E-02 
372	 3.35512887279805E-02 
373	 3.59274242505443E-02 
374	 3.49016494074944E-02 
375	 3.31968464973946E-02 
376	 3.52844372948718E-02 
377	 3.58659075768243E-02 
378	 3.48704844194738E-02 
379	 3.64529591326402E-02 
380	 3.71182747074468E-02 
381	 3.55135539061674E-02 
382	 3.47439782518062E-02 
383	 0.03499843049335 
384	 0.036088324934563 
385	 3.51167369328917E-02 
386	 3.28675754695405E-02 
387	 3.36911700330867E-02 
388	 3.58198052775615E-02 
389	 3.77437570452922E-02 
390	 3.60472333039215E-02 
391	 3.35775075433389E-02 
392	 3.38631212182661E-02 
393	 3.44538531092363E-02 
394	 3.49293585951346E-02 
395	 3.57035273172265E-02 
396	 3.58233028095708E-02 
397	 3.52643077508528E-02 
398	 3.64006496544393E-02 
399	 3.69263119705953E-02 
400	 3.45498418247185E-02 
401	 3.41489534614898E-02 
402	 0.035379367298652 
403	 3.51313544317254E-02 
404	 3.51162699024142E-02 
405	 3.57747443909696E-02 
406	 3.54049695394069E-02 
407	 3.48893177876654E-02 
408	 3.54545479972596E-02 
409	 3.59229054833487E-02 
410	 3.60673748486819E-02 
411	 3.60717571251002E-02 
412	 3.59217528597322E-02 
413	 0.035669274988463 
414	 3.56790721653356E-02 
415	 3.54803913731392E-02 
416	 3.44303739447887E-02 
417	 3.45463528475266E-02 
418	 3.57429786094467E-02 
419	 3.63483019817998E-02 
420	 0.036317341967695 
421	 3.57533262886962E-02 
422	 3.57764234275804E-02 
423	 3.59141008720285E-02 
424	 3.52681075667891E-02 
425	 3.52570640307974E-02 
426	 3.58721821070919E-02 
427	 3.56843280538321E-02 
428	 3.56218718276527E-02 
429	 3.62256377395033E-02 
430	 3.68363956249623E-02 
431	 3.70189766518896E-02 
432	 3.62022679136718E-02 
433	 3.59744023760951E-02 
434	 0.036485351847506 
435	 3.65463926730188E-02 
436	 0.036441962634092 
437	 3.64006080680532E-02 
438	 3.66428432257729E-02 
439	 3.69497507383526E-02 
440	 3.68812714730709E-02 
441	 0.03657760555212 
442	 3.62510127786602E-02 
443	 3.65936169471148E-02 
444	 3.68733742401348E-02 
445	 3.65706216522289E-02 
446	 3.70163458536648E-02 
447	 3.77917698003135E-02 
448	 0.037465074705594 
449	 3.73352733559675E-02 
450	 3.77087961957361E-02 
451	 3.78196038761489E-02 
452	 3.78061883563498E-02 
453	 3.78482280812997E-02 
454	 3.79901570742008E-02 
455	 3.81239003549938E-02 
456	 3.79311288911375E-02 
457	 3.76186601078574E-02 
458	 0.037417329025803 
459	 3.80766561867273E-02 
460	 3.87374714110864E-02 
461	 3.83529337427638E-02 
462	 3.83474500127391E-02 
463	 3.87386925077101E-02 
464	 3.84904461957341E-02 
465	 3.84631018423074E-02 
466	 3.89622198629021E-02 
467	 3.88302799801182E-02 
468	 3.84707973899542E-02 
469	 3.86562714566078E-02 
470	 0.038738558945722 
471	 3.86723018290913E-02 
472	 0.03890752146257 
473	 3.91081242499868E-02 
474	 3.90391753764307E-02 
475	 3.86079591401248E-02 
476	 3.82472097927574E-02 
477	 3.87169025013774E-02 
478	 3.91216076793881E-02 
479	 3.92140060703454E-02 
480	 3.92719764024221E-02 
481	 3.90794764669772E-02 
482	 3.85388271242948E-02 
483	 3.86443326748987E-02 
484	 3.92221352457728E-02 
485	 3.94560618068179E-02 
486	 3.95759374741681E-02 
487	 3.96346796986832E-02 
488	 3.96548880570651E-02 
489	 3.96148612738905E-02 
490	 3.95084311877507E-02 
491	 3.97138373328446E-02 
492	 0.040062254716223 
493	 3.98697050706713E-02 
494	 3.98595781277965E-02 
495	 4.02524179704825E-02 
496	 4.03381179153571E-02 
497	 4.02575248966561E-02 
498	 4.02791916793166E-02 
499	 4.01397477386024E-02 
500	 4.00063686609669E-02 
501	 0.040677929629382 
502	 4.10812167133754E-02 
503	 4.06936107077917E-02 
504	 4.09274872204687E-02 
505	 4.14680040012743E-02 
506	 4.14835196364221E-02 
507	 4.16339861156947E-02 
508	 4.19894913915733E-02 
509	 4.20583687193042E-02 
510	 4.21734432646431E-02 
511	 4.26064591889132E-02 
512	 4.32322159024014E-02 
513	 4.38521146817043E-02 
514	 4.40972798743913E-02 
515	 4.41395953888569E-02 
516	 0.044204131759365 
517	 4.51303959378996E-02 
518	 4.60120749193056E-02 
519	 4.58678182588679E-02 
520	 0.046366824144184 
521	 4.73601241368836E-02 
522	 4.75330675432634E-02 
523	 4.75807916988128E-02 
524	 4.78718540335357E-02 
525	 4.86608061848658E-02 
526	 4.94567020550934E-02 
527	 4.95296647715069E-02 
528	 4.97577691069768E-02 
529	 5.02333955340666E-02 
530	 5.04688366913467E-02 
531	 5.05616976429545E-02 
532	 5.06096234120486E-02 
533	 5.08241627770207E-02 
534	 5.12273276862425E-02 
535	 5.18214764082232E-02 
536	 0.052183096257132 
537	 5.22363924778775E-02 
538	 5.23580225748717E-02 
539	 5.25957613461444E-02 
540	 5.29620603965732E-02 
541	 5.31903432347593E-02 
542	 5.33273903365918E-02 
543	 5.36919286423203E-02 
544	 5.38808426320954E-02 
545	 5.37852363761083E-02 
546	 5.38346231540406E-02 
547	 5.40025011860625E-02 
548	 5.41956510606176E-02 
549	 0.054580763850738 
550	 5.50189025507676E-02 
551	 5.48859650990468E-02 
552	 5.49827952645138E-02 
553	 5.56938074094507E-02 
554	 0.055666021816061 
555	 5.53109815580685E-02 
556	 5.57535392730939E-02 
557	 5.60696028762538E-02 
558	 5.60520634190608E-02 
559	 5.61943835743063E-02 
560	 0.056190381151122 
561	 0.055795025022058 
562	 5.58236437151131E-02 
563	 5.61260311857339E-02 
564	 5.58781466940939E-02 
565	 5.57368831601793E-02 
566	 0.055895645908927 
567	 5.58389186263355E-02 
568	 5.56574710691461E-02 
569	 5.55252462385218E-02 
570	 5.55349960885538E-02 
571	 5.56384794394774E-02 
572	 5.55849105060499E-02 
573	 5.54839566317936E-02 
574	 5.53770462951543E-02 
575	 0.055003316230136 
576	 5.46539716409905E-02 
577	 5.49296671589959E-02 
578	 5.50079646452809E-02 
579	 5.47414649983515E-02 
580	 5.47268361959731E-02 
581	 5.48011991005953E-02 
582	 5.47951813004185E-02 
583	 5.46916736955426E-02 
584	 5.44746391809876E-02 
585	 0.05406624116481 
586	 5.39064571902633E-02 
587	 5.41013686953311E-02 
588	 5.40181100243696E-02 
589	 5.38152093605406E-02 
590	 5.37808503887902E-02 
591	 5.38100218537442E-02 
592	 5.38188976868028E-02 
593	 5.36221047943279E-02 
594	 5.34054113514072E-02 
595	 5.32897898231191E-02 
596	 5.32308325493885E-02 
597	 5.33450368283831E-02 
598	 5.38707299703826E-02 
599	 5.41421893605929E-02 
600	 5.39136391466608E-02 
601	 5.31055764257039E-02 
602	 5.26505870925916E-02 
603	 5.32803524886072E-02 
604	 5.34039517935009E-02 
605	 0.053082108443387 
606	 0.053298986817526 
607	 5.32625528294571E-02 
608	 0.052754742974063 
609	 5.24268035317925E-02 
610	 5.22154423713937E-02 
611	 5.19659745452643E-02 
612	 5.20383247109512E-02 
613	 5.22865963249043E-02 
614	 5.20038239028975E-02 
615	 5.14726411105298E-02 
616	 5.09594610282505E-02 
617	 5.11141004882398E-02 
618	 5.14086524666127E-02 
619	 5.07292873076552E-02 
620	 5.06749257092229E-02 
621	 5.13655055899181E-02 
622	 0.051144967836856 
623	 5.07119284391798E-02 
624	 5.07289932016674E-02 
625	 5.07380565372977E-02 
626	 5.06774689265639E-02 
627	 5.05839755579887E-02 
628	 5.05278377902841E-02 
629	 5.05270604666593E-02 
630	 5.04872502225651E-02 
631	 5.04252372346118E-02 
632	 5.03725934309616E-02 
633	 5.02001835980591E-02 
634	 5.00200386112914E-02 
635	 5.03410302411349E-02 
636	 5.04356313228209E-02 
637	 4.99109373142284E-02 
638	 4.93479767491277E-02 
639	 4.90040829548242E-02 
640	 4.91942840349212E-02 
641	 0.049281959977398 
642	 4.90243288045531E-02 
643	 4.83645007537685E-02 
644	 4.78544497204098E-02 
645	 4.79423833290329E-02 
646	 4.79107678189418E-02 
647	 4.76708126160415E-02 
648	 4.73568519357956E-02 
649	 4.71384945719515E-02 
650	 4.70608826771147E-02 
651	 4.68192377488794E-02 
652	 4.67122179640506E-02 
653	 4.71108193469566E-02 
654	 4.70602166418564E-02 
655	 4.65144288415399E-02 
656	 4.62788593912861E-02 
657	 4.59490828124394E-02 
658	 4.54077170309803E-02 
659	 4.54637943997594E-02 
660	 4.56530724960646E-02 
661	 4.51248968267073E-02 
662	 4.43496068773456E-02 
663	 4.36120451439217E-02 
664	 4.34665969317854E-02 
665	 4.34477903383619E-02 
666	 4.31722046052389E-02 
667	 4.31393462007001E-02 
668	 0.043230998890753 
669	 4.29986800659591E-02 
670	 0.042567369137397 
671	 4.20878857859298E-02 
672	 4.21067546207328E-02 
673	 4.23805629198134E-02 
674	 4.25700154782346E-02 
675	 4.24845826708793E-02 
676	 4.22560713557686E-02 
677	 4.24073746937727E-02 
678	 4.28313298285748E-02 
679	 4.33516546922684E-02 
680	 4.30839942185427E-02 
681	 4.27195214126892E-02 
682	 4.35145810798242E-02 
683	 4.40977462695318E-02 
684	 4.43675446849663E-02 
685	 4.56801127789382E-02 
686	 4.67659966311789E-02 
687	 4.66095942780722E-02 
688	 4.79623801042463E-02 
689	 5.00300047126693E-02 
690	 5.01399487472273E-02 
691	 5.07866612064703E-02 
692	 5.26015414925419E-02 
693	 5.44685753659599E-02 
694	 5.62083822300669E-02 
695	 0.057663113031486 
696	 5.95939456928379E-02 
697	 6.17714748914255E-02 
698	 6.32144696864081E-02 
699	 6.46785577022788E-02 
700	 6.64646501631875E-02 
701	 6.81613813193748E-02 
702	 6.99344388946482E-02 
703	 7.20655158952797E-02 
704	 7.37737005842025E-02 
705	 7.49946247498574E-02 
706	 7.60633940959933E-02 
707	 7.74188933166131E-02 
708	 7.92732400281697E-02 
709	 8.08543258049272E-02 
710	 8.19835441368159E-02 
711	 8.25205253464903E-02 
712	 8.34815059326304E-02 
713	 8.50314896498999E-02 
714	 8.63513423481965E-02 
715	 8.72456801331812E-02 
716	 8.76559655194501E-02 
717	 8.89023123136327E-02 
718	 9.09061030651955E-02 
719	 9.21606518644595E-02 
720	 9.26661178622781E-02 
721	 0.092677360057264 
722	 9.31881953704371E-02 
723	 9.40512617692026E-02 
724	 9.50023575678556E-02 
725	 9.57276471209668E-02 
726	 9.61617134116875E-02 
727	 9.65661047553729E-02 
728	 0.097054908435502 
729	 9.76659385827691E-02 
730	 9.81663836201799E-02 
731	 9.85216018844074E-02 
732	 9.87320599404992E-02 
733	 9.90478186289905E-02 
734	 9.93595544273497E-02 
735	 9.89540178829746E-02 
736	 9.89124608792733E-02 
737	 9.98255452409692E-02 
738	 0.10001118040084 
739	 9.98041609311188E-02 
740	 0.100296804890449 
741	 0.100649952288122 
742	 0.100680179761636 
743	 0.100675797039539 
744	 0.100885119092025 
745	 0.101459598239483 
746	 0.101651672969487 
747	 0.10160399638878 
748	 0.102015426948966 
749	 0.102285195473229 
750	 0.102289726680203 
751	 0.102581959917521 
752	 0.102871439451041 
753	 0.102822268450233 
754	 0.10264426792075 
755	 0.102532230344864 
756	 0.102942992913172 
757	 0.103072659078064 
758	 0.10266480944031 
759	 0.103133124104308 
760	 0.104185240012443 
761	 0.10345436949026 
762	 0.103604077661624 
763	 0.104574345337391 
764	 0.104382890031747 
765	 0.104372234312723 
766	 0.104852582432967 
767	 0.104880799629364 
768	 0.104576774603827 
769	 0.104089196233878 
770	 0.104143611922551 
771	 0.104724427527041 
772	 0.105025531272851 
773	 0.105235824595164 
774	 0.105456284057478 
775	 0.105446365775918 
776	 0.105395575780725 
777	 0.105694596138231 
778	 0.10597264077808 
779	 0.106109148938701 
780	 0.10612153107401 
781	 0.106124631877745 
782	 0.106202262748823 
783	 0.106182794810881 
784	 0.1061706597488 
785	 0.106444466322684 
786	 0.106708794503562 
787	 0.106847298826512 
788	 0.106829549589318 
789	 0.106851519640302 
790	 0.10707508864097 
791	 0.10713871686941 
792	 0.107022080905596 
793	 0.106770321957784 
794	 0.107025893764474 
795	 0.107741756516426 
796	 0.107349845729047 
797	 0.10682412241216 
798	 0.107203222533917 
799	 0.107651616551833 
800	 0.108096068125426 
801	 0.108938563020931 
802	 0.108873734613853 
803	 0.107733266032475 
804	 0.107637596050156 
805	 0.108252192996854 
806	 0.108981751644788 
807	 0.108940291888077 
808	 0.108295805300034 
809	 0.108075894732097 
810	 0.108280530782229 
811	 0.108819143028044 
812	 0.108816666239375 
813	 0.108697754095191 
814	 0.109110626693421 
815	 0.109299698581923 
816	 0.109286903596064 
817	 0.109774910446637 
818	 0.110158415533033 
819	 0.110188937286584 
820	 0.110044507958298 
821	 0.109986789977271 
822	 0.110304041114611 
823	 0.111005374108238 
824	 0.111647860986019 
825	 0.111058474976079 
826	 0.110797187233718 
827	 0.11138007030968 
828	 0.111507800336724 
829	 0.111292968433404 
830	 0.11103920587869 
831	 0.111238367891793 
832	 0.111698389756892 
833	 0.111564459104952 
834	 0.111189445859301 
835	 0.110871711339298 
836	 0.11139031783041 
837	 0.111940490927008 
838	 0.11157775242239 
839	 0.111251978126528 
840	 0.111321389687359 
841	 0.112289437192708 
842	 0.112712759501356 
843	 0.11215976171144 
844	 0.112204209400883 
845	 0.112537082339935 
846	 0.112650962055301 
847	 0.112309852118631 
848	 0.111760810148604 
849	 0.111857907016357 
850	 0.112019787099424 
851	 0.112076511957631 
852	 0.112480178959842 
853	 0.112870126431571 
854	 0.112860525401245 
855	 0.113117273659505 
856	 0.113492437338961 
857	 0.113376886274085 
858	 0.112686222061689 
859	 0.111799539362712 
860	 0.112810702124284 
861	 0.113668320016642 
862	 0.112490378899866 
863	 0.112349238140967 
864	 0.113083312219731 
865	 0.11291266727899 
866	 0.112896630611251 
867	 0.113216910222231 
868	 0.113106546987355 
869	 0.113029309846327 
870	 0.113373747267928 
871	 0.113854667806941 
872	 0.114413350276825 
873	 0.115109651484591 
874	 0.114656886239542 
875	 0.113346424504052 
876	 0.114146700892844 
877	 0.114545227022916 
878	 0.113080112044908 
879	 0.113580063093642 
880	 0.114822543500039 
881	 0.11400401755181 
882	 0.11406603399759 
883	 0.115199216397775 
884	 0.11527831981156 
885	 0.115014539512586 
886	 0.11490750762099 
887	 0.115517621002445 
888	 0.116140698380359 
889	 0.115796364477075 
890	 0.116302364004428 
891	 0.117400203116527 
892	 0.116890318859237 
893	 0.116339989307487 
894	 0.116404336340267 
895	 0.11619215375997 
896	 0.116169148718932 
897	 0.116919496764148 
898	 0.117833855060967 
899	 0.118490463538968 
900	 0.118347114690862 
901	 0.117863184291129 
902	 0.117436727170627 
903	 0.117921414308283 
904	 0.118452147651417 
905	 0.118292793228696 
906	 0.117295696195021 
907	 0.116362419856803 
908	 0.117128616590506 
909	 0.117371339976631 
910	 0.11671614994955 
911	 0.116392616861728 
912	 0.116228226724702 
913	 0.11641679846714 
914	 0.118968042657775 
915	 0.120858179985786 
916	 0.118479281228827 
917	 0.119287998161472 
918	 0.122602889151856 
919	 0.122827526571624 
920	 0.120159665871512 
921	 0.115857814264042 
922	 0.11614759261512 
923	 0.117587336149473 
924	 0.11691716892289 
925	 0.116451444336373 
926	 0.11697075049221 
927	 0.119430829511603 
928	 0.121767849311583 
929	 0.122297274220068 
930	 0.117569672557525 
931	 0.113532361875481 
932	 0.115260816578506 
933	 0.11790810437592 
934	 0.118549090691171 
935	 0.114565547890493 
936	 0.116200558953833 
937	 0.121055356381985 
938	 0.116190594985655 
939	 0.116144591915377 
940	 0.121411588485663 
941	 0.112401857690322 
942	 0.106453914151679 
943	 0.115115242554258 
944	 0.118859673750827 
945	 0.118041929342977 
946	 0.117427152010996 
947	 0.118619465042292 
948	 0.120119546452743 
949	 0.114767331619303 
950	 0.113177100070168 
951	 0.118652689615622 
952	 0.122793960966873 
953	 0.122205853783759 
954	 0.115359456154492 
955	 0.11343497040597 
956	 0.115717963699571 
957	 0.117450915662525 
958	 0.118115965153707 
959	 0.117478310466354 
960	 0.116093095933136 
961	 0.113645587411831 
962	 0.111004665645691 
963	 0.113033117322584 
964	 0.116227683677258 
965	 0.116807840338795 
966	 0.117102911712092 
967	 0.117492430747614 
968	 0.11805713205183 
969	 0.117903376887349 
970	 0.116700787361308 
971	 0.113486063139769 
972	 0.114221827771891 
973	 0.120526380404301 
974	 0.121618734274748 
975	 0.116372178494647 
976	 0.105853672795401 
977	 0.109262211375261 
978	 0.120901927034377 
979	 0.120665004898383 
980	 0.119666601451959 
981	 0.120044534956486 
982	 0.117784805038565 
983	 0.117523310480489 
984	 0.120682431492339 
985	 0.119116126214953 
986	 0.117487271948854 
987	 0.121071664972365 
988	 0.122254950203661 
989	 0.121638042947744 
990	 0.123196359905765 
991	 0.124978591816444 
992	 0.125080973370323 
993	 0.118669258214213 
994	 0.113721414739052 
995	 0.113681442339496 
996	 0.11095255190095 
997	 0.110440500601858 
998	 0.116826012311993 
999	 0.12316150980374 
1000	 0.127626900273591 
1001	 0.129909076260946 
1002	 0.12561912099082 
1003	 0.118423904812759 
1004	 0.124322409183154 
1005	 0.12498854158198 
1006	 0.116499299857097 
1007	 0.120747488438555 
1008	 0.125622677942072 
1009	 0.12218374564666 
1010	 0.123665291195349 
1011	 0.128239308117844 
1012	 0.131054056432864 
1013	 0.132053197927056 
1014	 0.128980935024912 
1015	 0.115899712390377 
1016	 0.112337996652427 
1017	 0.120984503275833 
1018	 0.124692825270847 
1019	 0.124252568799042 
1020	 0.120735115536334 
1021	 0.118574960496103 
1022	 0.11936390501361 
1023	 0.123393079195717 
1024	 0.120153765909273 
1025	 0.114635479260238 
1026	 0.117772130188351 
1027	 0.122529650071264 
1028	 0.126667784026765 
1029	 0.128319368247209 
1030	 0.127454494330769 
1031	 0.125752798657601 
1032	 0.130618037131472 
1033	 0.133425160352305 
1034	 0.128656932917518 
1035	 0.118423866840886 
1036	 0.107902276469482 
1037	 0.103010017053544 
1038	 0.112380716437012 
1039	 0.124759635901736 
1040	 0.118710729506804 
1041	 0.130034626225794 
1042	 0.152576050839744 
1043	 0.143101184357156 
1044	 0.127822863451621 
1045	 0.115422297092018 
1046	 0.104957886162852 
1047	 0.104305976645383 
1048	 0.116696851564915 
1049	 0.131961867503963 
1050	 0.136804452611733 
1051	 0.125128848758586 
1052	 0.135974219178711 
1053	 0.149900123768613 
1054	 0.129420750158474 
1055	 0.118892113672423 
1056	 0.122480183666613 
1057	 0.124255544268137 
1058	 0.128615823741524 
1059	 0.13334238974756 
1060	 0.129450722000724 
1061	 0.117955109663556 
1062	 0.105219748018763 
1063	 0.131394253977813 
1064	 0.137623086924736 
1065	 9.35301426471072E-02 
1066	 0.091376413703743 
1067	 0.114418174128837 
1068	 0.128790770091488 
1069	 0.129155655423661 
1070	 0.125658254542469 
1071	 0.136771890461994 
1072	 0.127774189289015 
1073	 0.109454523463957 
1074	 0.130636291884822 
1075	 0.128006801940042 
