Wavelength	AVE00021.asd
325	 4.51852671072373E-02 
326	 5.77279538709468E-02 
327	 0.062098416915159 
328	 5.79931275080725E-02 
329	 5.91577193988565E-02 
330	 6.78363935979798E-02 
331	 6.65586248591271E-02 
332	 6.51949150569631E-02 
333	 7.33979723774044E-02 
334	 7.15359443555842E-02 
335	 6.31213283722355E-02 
336	 6.39391921543061E-02 
337	 6.30662644416179E-02 
338	 0.059136287976373 
339	 6.09879670530221E-02 
340	 6.36940440943605E-02 
341	 6.30965944224545E-02 
342	 6.25123427434121E-02 
343	 6.16466685353221E-02 
344	 5.86836687946596E-02 
345	 5.89159723727816E-02 
346	 0.061943983783845 
347	 6.10641882314826E-02 
348	 5.83221694306638E-02 
349	 5.56091823302716E-02 
350	 5.49861674506557E-02 
351	 5.54083330656258E-02 
352	 5.46946188338796E-02 
353	 0.055987993301306 
354	 5.87627553753414E-02 
355	 5.85667505525568E-02 
356	 0.057455515238845 
357	 5.70326724580621E-02 
358	 0.058752543645663 
359	 6.12634457311348E-02 
360	 6.23648758165338E-02 
361	 6.05340661197893E-02 
362	 5.71598890290733E-02 
363	 5.74073374312673E-02 
364	 5.92806810666592E-02 
365	 6.12460332115403E-02 
366	 6.09753468463815E-02 
367	 6.04304042865294E-02 
368	 6.25582483789535E-02 
369	 6.16908317214432E-02 
370	 5.84324076680825E-02 
371	 5.92849538840228E-02 
372	 6.11496746514429E-02 
373	 6.22428058755959E-02 
374	 6.32900525305348E-02 
375	 6.32980198328816E-02 
376	 6.09833381053381E-02 
377	 0.060772837052251 
378	 6.20872421355917E-02 
379	 5.94855325845057E-02 
380	 5.70776484705466E-02 
381	 5.68397543989212E-02 
382	 5.64260190904518E-02 
383	 0.056886055996397 
384	 5.97954863011151E-02 
385	 6.12599501542096E-02 
386	 6.08506957511851E-02 
387	 0.060510597766316 
388	 0.059916895808204 
389	 5.92884022601214E-02 
390	 6.05340873075009E-02 
391	 6.12300506189868E-02 
392	 5.85305131822563E-02 
393	 5.94406808753406E-02 
394	 6.33283691375391E-02 
395	 6.44613064682185E-02 
396	 6.30102527734629E-02 
397	 0.0598242281997 
398	 0.058253044828286 
399	 5.80078449233598E-02 
400	 5.83913745588393E-02 
401	 5.88138833311386E-02 
402	 5.90730015312728E-02 
403	 5.91418487704802E-02 
404	 5.89571094546789E-02 
405	 5.86487153640594E-02 
406	 5.91044657718425E-02 
407	 5.98806605027619E-02 
408	 6.03390051370099E-02 
409	 6.01742887689488E-02 
410	 5.97584200638099E-02 
411	 6.04193388671366E-02 
412	 0.060735379391988 
413	 6.01756047061251E-02 
414	 5.99032291979672E-02 
415	 5.98759488669936E-02 
416	 5.98786219433412E-02 
417	 6.00511440312017E-02 
418	 6.03170293997242E-02 
419	 6.03689577271346E-02 
420	 6.04657397788667E-02 
421	 6.07460290638729E-02 
422	 6.12017007592042E-02 
423	 0.061452606397796 
424	 6.09663149669715E-02 
425	 6.05583653067942E-02 
426	 6.05977869425475E-02 
427	 6.16648326089935E-02 
428	 6.20313158437424E-02 
429	 6.08606564374809E-02 
430	 6.12820615606326E-02 
431	 6.22941553448718E-02 
432	 6.15702852584941E-02 
433	 6.10643087032801E-02 
434	 6.10758922635668E-02 
435	 6.07290442558707E-02 
436	 0.060462767203812 
437	 0.060562346019096 
438	 6.06876727229817E-02 
439	 6.09594353651574E-02 
440	 6.17727468170372E-02 
441	 0.061819916089894 
442	 6.11043131909844E-02 
443	 0.061341995742281 
444	 6.21077213238653E-02 
445	 6.29031886152695E-02 
446	 6.26110036600039E-02 
447	 6.18405433511072E-02 
448	 6.24372726962202E-02 
449	 6.25855402250808E-02 
450	 0.061986180646151 
451	 6.22505754688167E-02 
452	 6.28599927894722E-02 
453	 6.32077035942752E-02 
454	 6.34756598717174E-02 
455	 6.35894062609468E-02 
456	 6.32558587261916E-02 
457	 6.31319752519772E-02 
458	 6.34269658758462E-02 
459	 6.35549556339118E-02 
460	 0.063564423599512 
461	 0.063570703097652 
462	 6.34391191760633E-02 
463	 6.32634839461894E-02 
464	 6.33641150698967E-02 
465	 6.36704988838996E-02 
466	 6.40550926538705E-02 
467	 6.39162375146026E-02 
468	 0.063636190447411 
469	 6.38637479915392E-02 
470	 6.42366092876934E-02 
471	 0.064437208049311 
472	 6.36491372841306E-02 
473	 6.32116030632513E-02 
474	 6.38667548669391E-02 
475	 6.41686444931214E-02 
476	 6.41408656683794E-02 
477	 6.41986158981127E-02 
478	 0.064121803408471 
479	 6.38964503812197E-02 
480	 6.36125699298091E-02 
481	 6.35579626119911E-02 
482	 6.39697893252622E-02 
483	 6.48950772050017E-02 
484	 6.57520028601716E-02 
485	 6.51105289044622E-02 
486	 6.48744244807848E-02 
487	 6.54462832877767E-02 
488	 6.49160951980873E-02 
489	 6.41767476083528E-02 
490	 6.42306764374001E-02 
491	 0.064820796970811 
492	 6.55141665708951E-02 
493	 0.065278933470192 
494	 6.51950678498922E-02 
495	 0.065603243647759 
496	 6.54755609944745E-02 
497	 6.51998796961942E-02 
498	 6.53924609891262E-02 
499	 6.53648624389068E-02 
500	 6.52075226498356E-02 
501	 6.57536599935602E-02 
502	 6.65141856318187E-02 
503	 6.71228130243038E-02 
504	 6.73145754165611E-02 
505	 6.73087258513666E-02 
506	 6.75343951757641E-02 
507	 6.75806683945946E-02 
508	 6.75854236802945E-02 
509	 0.06854460327772 
510	 6.94300352134739E-02 
511	 6.94797688978747E-02 
512	 6.99629212474787E-02 
513	 7.07985355590446E-02 
514	 7.13215651981202E-02 
515	 7.16790772020112E-02 
516	 7.20038002758532E-02 
517	 7.27970148137621E-02 
518	 7.37026933753279E-02 
519	 7.42850152183422E-02 
520	 7.42818717431813E-02 
521	 7.41198053586449E-02 
522	 7.50588763745107E-02 
523	 7.59619121734594E-02 
524	 7.63818014626765E-02 
525	 7.69785000644401E-02 
526	 7.79575991214455E-02 
527	 0.079524806578502 
528	 0.0799684919164 
529	 7.94482651363394E-02 
530	 8.02020414649988E-02 
531	 8.08707863769603E-02 
532	 8.06507533036696E-02 
533	 8.08782875380448E-02 
534	 0.081591139237629 
535	 8.25401458571224E-02 
536	 8.29220692568201E-02 
537	 8.27186517634744E-02 
538	 8.32861200285333E-02 
539	 0.083905360499737 
540	 8.38490577829211E-02 
541	 8.39144534757007E-02 
542	 8.41971881035192E-02 
543	 0.084482977524774 
544	 8.49614386044937E-02 
545	 8.56187301990519E-02 
546	 8.59162836253987E-02 
547	 8.60551093785186E-02 
548	 8.63624450577865E-02 
549	 8.66805105483193E-02 
550	 8.69787884135912E-02 
551	 8.72691823402808E-02 
552	 8.75446415303352E-02 
553	 8.78114778201372E-02 
554	 8.81845099896555E-02 
555	 8.85384348260933E-02 
556	 8.86258129369131E-02 
557	 0.088559420377966 
558	 0.088460832845449 
559	 8.86934623761973E-02 
560	 8.88960763617573E-02 
561	 0.08874810385761 
562	 8.87340916765129E-02 
563	 8.88428941663348E-02 
564	 8.87992217030713E-02 
565	 8.87783668232082E-02 
566	 8.87868490812004E-02 
567	 8.84779952876098E-02 
568	 8.80182118761067E-02 
569	 8.76578048187684E-02 
570	 8.72913823446833E-02 
571	 8.70154832787655E-02 
572	 8.72279550112556E-02 
573	 8.72896801318397E-02 
574	 8.68432823678805E-02 
575	 8.64314856607127E-02 
576	 8.62235232027369E-02 
577	 8.63930925028752E-02 
578	 8.64339754272653E-02 
579	 0.086196681662181 
580	 8.58966817301745E-02 
581	 8.55038210243092E-02 
582	 8.50222145768614E-02 
583	 8.49153402292932E-02 
584	 8.51247471423019E-02 
585	 8.53210017198002E-02 
586	 8.53419834047403E-02 
587	 8.51016883131541E-02 
588	 8.46693932465505E-02 
589	 8.44128825160142E-02 
590	 8.47838218259438E-02 
591	 8.46374521128585E-02 
592	 8.40049707819108E-02 
593	 8.39357229729374E-02 
594	 0.083870214534191 
595	 8.35640925647952E-02 
596	 8.37916203875232E-02 
597	 8.41864163682665E-02 
598	 8.39425301871435E-02 
599	 8.36799766074866E-02 
600	 8.35707695231556E-02 
601	 8.34978098635032E-02 
602	 8.34298180378159E-02 
603	 8.33242546459998E-02 
604	 8.29353078137447E-02 
605	 8.24661574654926E-02 
606	 8.25598086712308E-02 
607	 8.25211817222447E-02 
608	 0.08217255725198 
609	 8.23512485783566E-02 
610	 8.23167246327332E-02 
611	 8.10858759422939E-02 
612	 8.06371294541113E-02 
613	 0.081024637323387 
614	 8.07113577992992E-02 
615	 8.02160884513801E-02 
616	 7.98555332940432E-02 
617	 7.95467060648949E-02 
618	 7.93556649631452E-02 
619	 7.93859917777117E-02 
620	 7.95775708756071E-02 
621	 7.97424848174488E-02 
622	 7.92312097530262E-02 
623	 7.86396498095307E-02 
624	 7.85276305798381E-02 
625	 7.86389266353947E-02 
626	 7.88364092756183E-02 
627	 0.078894558688413 
628	 7.89986402941587E-02 
629	 0.079134576521184 
630	 7.87966245800284E-02 
631	 7.84703752704465E-02 
632	 0.078789020600789 
633	 7.84556762662667E-02 
634	 7.77052983651248E-02 
635	 7.84345158804419E-02 
636	 7.87744836650394E-02 
637	 7.77704064804047E-02 
638	 7.73512155507747E-02 
639	 7.73349711991417E-02 
640	 7.69212998910506E-02 
641	 7.66584512129275E-02 
642	 7.66350068982792E-02 
643	 0.076572069594492 
644	 7.62800691514267E-02 
645	 7.56284726221099E-02 
646	 7.50785015680605E-02 
647	 7.47430565929981E-02 
648	 7.46682678525293E-02 
649	 7.45336579547928E-02 
650	 7.42068097410345E-02 
651	 7.38560148701231E-02 
652	 0.073435617562236 
653	 7.28731476152838E-02 
654	 7.24752544359435E-02 
655	 7.22030032787264E-02 
656	 7.16552602268308E-02 
657	 7.12523585843917E-02 
658	 7.11992087716907E-02 
659	 0.071058174645889 
660	 7.07206368349211E-02 
661	 0.070076907036261 
662	 6.98169530640709E-02 
663	 6.99405895129415E-02 
664	 0.069532373613002 
665	 0.06896202865488 
666	 6.85475069074073E-02 
667	 6.79320545634693E-02 
668	 0.067390186495656 
669	 0.067743069222321 
670	 6.80264641973585E-02 
671	 6.78509383712042E-02 
672	 6.72520756477368E-02 
673	 6.68652928269561E-02 
674	 6.73818167818886E-02 
675	 6.77989469844069E-02 
676	 6.79048603868018E-02 
677	 6.77922544584369E-02 
678	 6.78986323419782E-02 
679	 6.84141736421363E-02 
680	 6.87458408134283E-02 
681	 6.90221507819695E-02 
682	 6.95661848988692E-02 
683	 7.00496829146653E-02 
684	 7.05408451043491E-02 
685	 7.16943815632688E-02 
686	 7.30673406156072E-02 
687	 7.42356455841181E-02 
688	 7.54310055246008E-02 
689	 7.65647967198636E-02 
690	 7.74901756944208E-02 
691	 7.92303332931834E-02 
692	 8.18652312028845E-02 
693	 8.37458958703746E-02 
694	 8.57140246690257E-02 
695	 8.86235042201994E-02 
696	 9.17553992048361E-02 
697	 9.46895995540718E-02 
698	 9.67751983088732E-02 
699	 9.91543707710523E-02 
700	 0.10218246367024 
701	 0.104307850604401 
702	 0.10643310649158 
703	 0.110016159225664 
704	 0.113166114266341 
705	 0.115653970432879 
706	 0.118341619655413 
707	 0.121073384126331 
708	 0.123686256767026 
709	 0.125692079765784 
710	 0.127368930864593 
711	 0.129348967487003 
712	 0.131323087414394 
713	 0.13324798985971 
714	 0.135379707875047 
715	 0.137363829331972 
716	 0.138961495996108 
717	 0.140433490487597 
718	 0.142135243388605 
719	 0.144773490013123 
720	 0.14654989747095 
721	 0.147012278701243 
722	 0.147598000252778 
723	 0.14842422075743 
724	 0.149486489643659 
725	 0.151015633451844 
726	 0.152624845003499 
727	 0.153394327179087 
728	 0.154008475690383 
729	 0.15478993781632 
730	 0.155349156421906 
731	 0.155935170746269 
732	 0.156929649848616 
733	 0.157585033025899 
734	 0.157906653236445 
735	 0.15850030161156 
736	 0.159026990914435 
737	 0.159293275239976 
738	 0.159821815744324 
739	 0.160545866460281 
740	 0.161241617284664 
741	 0.161516341617154 
742	 0.161342234429251 
743	 0.161169216411641 
744	 0.161204255934597 
745	 0.161611059080873 
746	 0.162402647592236 
747	 0.163209281485835 
748	 0.163240885270705 
749	 0.162918576130674 
750	 0.162623810737408 
751	 0.163469392847869 
752	 0.16438217045702 
753	 0.164194648783223 
754	 0.164453370877785 
755	 0.165056833238851 
756	 0.164951390960923 
757	 0.163922912823698 
758	 0.162078793194379 
759	 0.16151652385232 
760	 0.164129571755179 
761	 0.171880253031158 
762	 0.17344241072858 
763	 0.169679051018284 
764	 0.170770944401463 
765	 0.171282141471146 
766	 0.169730960206943 
767	 0.168552811912255 
768	 0.168030835388893 
769	 0.16836844971595 
770	 0.168670574600842 
771	 0.168664092185608 
772	 0.16825952523726 
773	 0.1681089138688 
774	 0.168568582259362 
775	 0.16859295623357 
776	 0.168456680407696 
777	 0.168909439072965 
778	 0.169675968277648 
779	 0.17037908576193 
780	 0.169858310988876 
781	 0.169372104231371 
782	 0.169889758412955 
783	 0.170282477795542 
784	 0.170446138075693 
785	 0.170623939493898 
786	 0.170195336866686 
787	 0.169363045545905 
788	 0.170044163019311 
789	 0.170970836469259 
790	 0.170899925750593 
791	 0.170651537259333 
792	 0.170631404198785 
793	 0.171515770908161 
794	 0.172023711963477 
795	 0.171886281934193 
796	 0.172473196248147 
797	 0.172838050145186 
798	 0.172051199665987 
799	 0.171856442633442 
800	 0.172245245119945 
801	 0.172184940089394 
802	 0.172355242348417 
803	 0.172834764411131 
804	 0.172670259101862 
805	 0.172325111534558 
806	 0.172388928646786 
807	 0.173183418369588 
808	 0.174211544971726 
809	 0.173858895687345 
810	 0.173551941573666 
811	 0.17374943534315 
812	 0.173059857614896 
813	 0.172402375440247 
814	 0.173138134644369 
815	 0.174919261052143 
816	 0.176958782090199 
817	 0.177308783838692 
818	 0.177251016145175 
819	 0.17732004320642 
820	 0.176825161773602 
821	 0.176543419801711 
822	 0.177393127184224 
823	 0.178299592684961 
824	 0.178698289374032 
825	 0.177810801338607 
826	 0.177640699249115 
827	 0.178745525997114 
828	 0.178686250753648 
829	 0.178567655061274 
830	 0.17993841877872 
831	 0.180397528827555 
832	 0.179974287799223 
833	 0.180410825303929 
834	 0.180453715565557 
835	 0.179694010971789 
836	 0.178800405997855 
837	 0.178470738600147 
838	 0.179375843679271 
839	 0.180581010144951 
840	 0.181288827520809 
841	 0.179821208325678 
842	 0.179156182384478 
843	 0.180275414891534 
844	 0.180546703647894 
845	 0.180207946486653 
846	 0.17978604126239 
847	 0.179370581795187 
848	 0.179354498583043 
849	 0.180976526905426 
850	 0.180952072558207 
851	 0.178695063696901 
852	 0.179545087889512 
853	 0.181424870789392 
854	 0.181684398531059 
855	 0.182135486369388 
856	 0.182583067386383 
857	 0.181776949734386 
858	 0.180824461295435 
859	 0.180260459607887 
860	 0.18054053521498 
861	 0.181139004492242 
862	 0.181507906439404 
863	 0.18161702527311 
864	 0.181731316117695 
865	 0.182519541366685 
866	 0.183282422013768 
867	 0.1836967901558 
868	 0.183732646317435 
869	 0.183186212710843 
870	 0.1821171838171 
871	 0.182529776605869 
872	 0.184089814168036 
873	 0.185611814927444 
874	 0.186115445247781 
875	 0.185392556786793 
876	 0.184132493339832 
877	 0.183787377383791 
878	 0.18504993397265 
879	 0.184532497743821 
880	 0.183496549661022 
881	 0.184718443104937 
882	 0.186115521562169 
883	 0.186829068514098 
884	 0.186027390310123 
885	 0.184933141444682 
886	 0.184513161747977 
887	 0.18595402222255 
888	 0.18740509814697 
889	 0.186337941335799 
890	 0.186655813620216 
891	 0.188266573839861 
892	 0.188000998414196 
893	 0.187099903288208 
894	 0.186298090901381 
895	 0.186493999124805 
896	 0.187551834701045 
897	 0.189037886522754 
898	 0.188720555489286 
899	 0.187915356461034 
900	 0.191591324314551 
901	 0.191961167212822 
902	 0.187983094981984 
903	 0.18676002586143 
904	 0.187744154045615 
905	 0.190041113030617 
906	 0.191059593874692 
907	 0.190882681605986 
908	 0.190472278784517 
909	 0.191149824672778 
910	 0.19276420136127 
911	 0.192923557386676 
912	 0.193278738686251 
913	 0.19425149677391 
914	 0.192020339354406 
915	 0.189015002984476 
916	 0.188656419085015 
917	 0.190949302602196 
918	 0.193764287059113 
919	 0.19161162615166 
920	 0.190150106311197 
921	 0.190894431126663 
922	 0.190445733460167 
923	 0.190417090776425 
924	 0.191980041586512 
925	 0.190050468949448 
926	 0.186569335421698 
927	 0.187720517651979 
928	 0.189488382840053 
929	 0.189596269234454 
930	 0.18377637972711 
931	 0.179128453862098 
932	 0.181992758265626 
933	 0.18580737915171 
934	 0.189522172023982 
935	 0.192685179604123 
936	 0.199852814192001 
937	 0.205326144908086 
938	 0.192497452457484 
939	 0.183714528205805 
940	 0.184908592771703 
941	 0.19115059625953 
942	 0.193394972726258 
943	 0.187007708027642 
944	 0.191140282078804 
945	 0.196288753837674 
946	 0.183520338242084 
947	 0.179961077150614 
948	 0.187839942270398 
949	 0.189997209900866 
950	 0.188184500986838 
951	 0.18496821466799 
952	 0.190921228921229 
953	 0.197235616383081 
954	 0.196207617397876 
955	 0.200092575128453 
956	 0.203986613701618 
957	 0.196390534916182 
958	 0.185193585728133 
959	 0.176894691398654 
960	 0.183249077765787 
961	 0.191640652380782 
962	 0.194990482214415 
963	 0.193130882573035 
964	 0.190045929820043 
965	 0.190107062679053 
966	 0.198315146707237 
967	 0.204437311758692 
968	 0.186903264182548 
969	 0.181158340498058 
970	 0.190604506534744 
971	 0.188584807669803 
972	 0.188344341236958 
973	 0.194556511069685 
974	 0.187169723533234 
975	 0.178849919205721 
976	 0.185200726379895 
977	 0.188097802812545 
978	 0.186829780469315 
979	 0.187349910561097 
980	 0.18807421856302 
981	 0.1877419360813 
982	 0.18226560738847 
983	 0.181708673802125 
984	 0.189162314241043 
985	 0.185906670638544 
986	 0.182518445694594 
987	 0.190688771524472 
988	 0.194835533620129 
989	 0.194150859552667 
990	 0.192774787176892 
991	 0.192310571030387 
992	 0.191670443131801 
993	 0.183035193101424 
994	 0.182246927970474 
995	 0.193578510163872 
996	 0.191498996784425 
997	 0.186254450418823 
998	 0.189406739337459 
999	 0.193681318681319 
1000	 0.196270083254997 
1001	 0.194497072372116 
1002	 0.194051605193426 
1003	 0.195696141292878 
1004	 0.1969444312482 
1005	 0.19544440621164 
1006	 0.191475760456274 
1007	 0.192009900106022 
1008	 0.195049560635225 
1009	 0.197798319859961 
1010	 0.194170160433596 
1011	 0.185892527471849 
1012	 0.176747532197334 
1013	 0.186203498033021 
1014	 0.206439093918599 
1015	 0.208431442712085 
1016	 0.2015227681937 
1017	 0.190915084302117 
1018	 0.187995254107783 
1019	 0.186414714264366 
1020	 0.184643743546271 
1021	 0.198590136838019 
1022	 0.210254402777742 
1023	 0.203485306314606 
1024	 0.193897442305394 
1025	 0.187561757736468 
1026	 0.189330126080451 
1027	 0.196584111006291 
1028	 0.203066027341277 
1029	 0.194348253228575 
1030	 0.184623205275821 
1031	 0.179570598720365 
1032	 0.176381910528474 
1033	 0.184907014312225 
1034	 0.205654940292314 
1035	 0.205141314358351 
1036	 0.19971276814826 
1037	 0.207788324940071 
1038	 0.200200115937149 
1039	 0.186011227675454 
1040	 0.187122841522836 
1041	 0.188328121898988 
1042	 0.186509743694659 
1043	 0.184932777387685 
1044	 0.174430017969602 
1045	 0.161160676938903 
1046	 0.187622476633545 
1047	 0.20617151615391 
1048	 0.194359229931521 
1049	 0.203645848491329 
1050	 0.212218847238243 
1051	 0.198415163511273 
1052	 0.207210946916067 
1053	 0.216926789931289 
1054	 0.186387988720194 
1055	 0.173310925504226 
1056	 0.179917516471387 
1057	 0.180071930338917 
1058	 0.18837319019579 
1059	 0.201969407950551 
1060	 0.194060884906323 
1061	 0.183977598970827 
1062	 0.180871252004353 
1063	 0.187812280177869 
1064	 0.185723910486193 
1065	 0.168207414834734 
1066	 0.183701016331612 
1067	 0.221111614519482 
1068	 0.256542919422475 
1069	 0.24680439127297 
1070	 0.208517371469615 
1071	 0.183509638522052 
1072	 0.170267156704077 
1073	 0.161409522876307 
1074	 0.131536301779888 
1075	 0.139129584847107 
