Wavelength	AVE00040.asd
325	 2.56652403708868E-02 
326	 2.69437177415442E-02 
327	 3.94432097844988E-02 
328	 0.040426101239746 
329	 3.79213190181731E-02 
330	 3.47030831398906E-02 
331	 2.74489231419992E-02 
332	 2.59275803379922E-02 
333	 3.79941367558599E-02 
334	 3.68518768239511E-02 
335	 2.73960351603122E-02 
336	 3.16358178172634E-02 
337	 3.57451713475985E-02 
338	 3.64842487459961E-02 
339	 3.95024158273082E-02 
340	 3.98445425551469E-02 
341	 3.44138607418848E-02 
342	 3.74683869789304E-02 
343	 0.043076420722442 
344	 3.58840773397437E-02 
345	 3.33937637900217E-02 
346	 3.80568318521298E-02 
347	 0.040426567275763 
348	 3.94374868833829E-02 
349	 3.51497312379267E-02 
350	 3.23300320945877E-02 
351	 3.19121985326009E-02 
352	 3.40190721914887E-02 
353	 0.037023689610515 
354	 3.89781653012415E-02 
355	 3.52260605487193E-02 
356	 3.22005251799172E-02 
357	 3.36293264640154E-02 
358	 3.59132990167273E-02 
359	 3.72866401816708E-02 
360	 3.59935141029539E-02 
361	 3.48582882359907E-02 
362	 3.46631023725474E-02 
363	 3.55308219178082E-02 
364	 3.49977227473636E-02 
365	 0.032479879536691 
366	 3.33445786991244E-02 
367	 3.50108941434552E-02 
368	 3.33740333740334E-02 
369	 3.39465889471433E-02 
370	 3.67620408178051E-02 
371	 3.78700503740421E-02 
372	 3.82641648263963E-02 
373	 3.80922880885646E-02 
374	 3.47636316323263E-02 
375	 3.20292209954763E-02 
376	 0.035054946221047 
377	 3.52933615392664E-02 
378	 3.28443168831494E-02 
379	 3.49642504516248E-02 
380	 3.76323509913852E-02 
381	 3.86336956255935E-02 
382	 3.78354323924812E-02 
383	 3.68953692907704E-02 
384	 3.79336570005529E-02 
385	 3.75193806822997E-02 
386	 0.035814953210765 
387	 3.57879437803889E-02 
388	 3.60963028521644E-02 
389	 3.59786402012661E-02 
390	 3.45389282681846E-02 
391	 3.37157683659479E-02 
392	 3.56993090501923E-02 
393	 3.69197662139837E-02 
394	 3.68119166587681E-02 
395	 3.61968991247756E-02 
396	 3.53735473970412E-02 
397	 3.48154704467307E-02 
398	 3.62907207232786E-02 
399	 3.68234090379036E-02 
400	 3.35861483685148E-02 
401	 3.26923850728674E-02 
402	 3.41086124226973E-02 
403	 3.50950094315355E-02 
404	 3.54608107756544E-02 
405	 3.51554723370108E-02 
406	 3.47520761999569E-02 
407	 3.46863728327504E-02 
408	 3.53798794510186E-02 
409	 3.58905035962628E-02 
410	 3.59725826554279E-02 
411	 3.56645386755324E-02 
412	 3.51480277353783E-02 
413	 0.034639937824807 
414	 3.47541697441785E-02 
415	 3.50296259049212E-02 
416	 3.48054208909507E-02 
417	 3.51460317982057E-02 
418	 3.59173869296898E-02 
419	 3.60209380938753E-02 
420	 3.57611275921341E-02 
421	 3.53588219789502E-02 
422	 3.51309526489077E-02 
423	 3.50558400434466E-02 
424	 3.50277318653261E-02 
425	 3.50247309600455E-02 
426	 3.50329399859907E-02 
427	 3.49849779843889E-02 
428	 3.52661309758813E-02 
429	 3.60249730129137E-02 
430	 3.64628364543936E-02 
431	 3.64160844263348E-02 
432	 3.58022109314333E-02 
433	 3.56190024581334E-02 
434	 3.59683376217844E-02 
435	 3.60588881759039E-02 
436	 3.61727052753567E-02 
437	 3.64440073894363E-02 
438	 3.62308798590915E-02 
439	 3.59031830132544E-02 
440	 0.036319759098222 
441	 3.64577780804103E-02 
442	 3.61738094076194E-02 
443	 3.62561129422483E-02 
444	 3.63458613355969E-02 
445	 3.61916046618995E-02 
446	 3.66112381878655E-02 
447	 3.72662810193174E-02 
448	 3.71309651341954E-02 
449	 3.69278186309862E-02 
450	 3.69600021868005E-02 
451	 0.037452726897347 
452	 3.78995649172278E-02 
453	 3.78140646863295E-02 
454	 3.78827608895109E-02 
455	 3.80354002664504E-02 
456	 3.77037818389051E-02 
457	 3.72495301730702E-02 
458	 3.69763080962398E-02 
459	 3.76883122645731E-02 
460	 3.82790695502951E-02 
461	 3.74292479335858E-02 
462	 3.74906977411731E-02 
463	 3.84318067796691E-02 
464	 3.84503286102663E-02 
465	 3.82957223523634E-02 
466	 3.83134441665103E-02 
467	 3.82348878230256E-02 
468	 0.038100543594913 
469	 3.79992977979167E-02 
470	 3.79660108179223E-02 
471	 0.03802167596839 
472	 3.81648342689635E-02 
473	 3.84335118153463E-02 
474	 3.87929325180295E-02 
475	 3.88532942674783E-02 
476	 3.86055139650138E-02 
477	 3.81016307861501E-02 
478	 3.79723179423888E-02 
479	 3.82752396281152E-02 
480	 3.83373115797047E-02 
481	 3.83190645621725E-02 
482	 3.83612256018897E-02 
483	 3.83921119318175E-02 
484	 3.83916490520275E-02 
485	 0.038298997957342 
486	 3.84511549233251E-02 
487	 3.88328446433963E-02 
488	 3.86447827803258E-02 
489	 3.84379502858998E-02 
490	 3.88008821450753E-02 
491	 3.92113750673136E-02 
492	 3.95595681725027E-02 
493	 3.99182802531046E-02 
494	 3.99368203673875E-02 
495	 3.95542292915699E-02 
496	 3.93987230682638E-02 
497	 3.94642764060696E-02 
498	 3.96559159860197E-02 
499	 3.94700998466795E-02 
500	 3.91640683327102E-02 
501	 4.01036548897209E-02 
502	 4.08642830468961E-02 
503	 4.06721287889373E-02 
504	 4.07953008567126E-02 
505	 4.11566444391386E-02 
506	 4.13619396561618E-02 
507	 0.041413397610506 
508	 4.14045180850356E-02 
509	 4.17374290505549E-02 
510	 4.20683902299269E-02 
511	 4.21581996344288E-02 
512	 4.26420650026777E-02 
513	 4.33600769414789E-02 
514	 4.37272671340455E-02 
515	 4.39790774900562E-02 
516	 4.42323717105969E-02 
517	 4.47372313295672E-02 
518	 0.045136271674061 
519	 4.50668419159162E-02 
520	 4.56300888473148E-02 
521	 4.66300021053417E-02 
522	 4.69356117091498E-02 
523	 4.72731689510914E-02 
524	 4.79109294091378E-02 
525	 0.048336840059994 
526	 4.86393240016412E-02 
527	 4.90103988019216E-02 
528	 4.94461279739923E-02 
529	 0.049833895942316 
530	 4.97883068104632E-02 
531	 4.97491992074359E-02 
532	 5.00110905906851E-02 
533	 5.03706394572664E-02 
534	 5.07499654866521E-02 
535	 5.10618444303714E-02 
536	 5.13672157563173E-02 
537	 5.16812808163037E-02 
538	 5.19887795770839E-02 
539	 5.22784779124266E-02 
540	 5.25345019531851E-02 
541	 5.26826951032371E-02 
542	 5.27854335929792E-02 
543	 5.30520189983711E-02 
544	 5.32664024723234E-02 
545	 5.33576683134383E-02 
546	 5.34707660774486E-02 
547	 0.053657064895193 
548	 5.39611967147146E-02 
549	 0.054285277829809 
550	 0.054510449887852 
551	 5.43063848585273E-02 
552	 5.43015571075391E-02 
553	 5.48428013386781E-02 
554	 5.52559384901048E-02 
555	 5.54195310429728E-02 
556	 5.52826937720313E-02 
557	 5.52925670631309E-02 
558	 5.55288224630648E-02 
559	 5.55596462970577E-02 
560	 5.55553160755414E-02 
561	 5.56771782824974E-02 
562	 5.57055175270581E-02 
563	 5.56653738937592E-02 
564	 5.57466281837403E-02 
565	 5.57026185910287E-02 
566	 5.54934094588681E-02 
567	 5.55500879191505E-02 
568	 5.56000609667174E-02 
569	 5.52537685947942E-02 
570	 5.49984553148614E-02 
571	 5.48846751132603E-02 
572	 5.45876621492574E-02 
573	 5.45258774234086E-02 
574	 5.48516578922935E-02 
575	 5.45815924405787E-02 
576	 5.40981207790108E-02 
577	 5.43609310845893E-02 
578	 5.44795699807579E-02 
579	 5.42357958070789E-02 
580	 5.39324137797184E-02 
581	 5.38350319142219E-02 
582	 5.41138884227233E-02 
583	 5.39057088318451E-02 
584	 5.34376710931609E-02 
585	 5.37465779518663E-02 
586	 5.39124019157148E-02 
587	 0.053657743002999 
588	 5.37344110249156E-02 
589	 5.38010560718726E-02 
590	 5.33427593607855E-02 
591	 5.33066558501142E-02 
592	 0.053635615016508 
593	 5.34101403205848E-02 
594	 5.29707298514518E-02 
595	 5.25902013267222E-02 
596	 5.27491943169821E-02 
597	 5.32056100676263E-02 
598	 5.34481457529232E-02 
599	 5.33737899785668E-02 
600	 5.30201935868422E-02 
601	 5.27700347423005E-02 
602	 5.26947096586295E-02 
603	 5.28178223374042E-02 
604	 5.27936599932814E-02 
605	 5.26294031491892E-02 
606	 5.25044654770542E-02 
607	 5.25044022577965E-02 
608	 0.052569436166756 
609	 5.20471050269012E-02 
610	 0.051525959395674 
611	 5.17998472148385E-02 
612	 5.18428279714715E-02 
613	 0.051469434714634 
614	 5.09165998444832E-02 
615	 5.05800207567154E-02 
616	 5.07004138410641E-02 
617	 5.10151513401327E-02 
618	 5.11595786279454E-02 
619	 5.05679962230638E-02 
620	 5.02931148445434E-02 
621	 5.05360944569968E-02 
622	 5.07042334794883E-02 
623	 5.05114847422425E-02 
624	 4.97881044657069E-02 
625	 4.95960493834957E-02 
626	 4.98903197285733E-02 
627	 4.99900898328673E-02 
628	 5.00872526818497E-02 
629	 0.050209504787379 
630	 5.02380365349653E-02 
631	 5.02387043954947E-02 
632	 5.03025042214849E-02 
633	 5.00102932813772E-02 
634	 4.95409501074824E-02 
635	 4.98332394779533E-02 
636	 0.049950033963804 
637	 0.049399076361435 
638	 0.049036393984119 
639	 4.88696419394377E-02 
640	 4.87023422872579E-02 
641	 4.85708000220725E-02 
642	 4.84628819744741E-02 
643	 0.048316374719721 
644	 0.04819961474405 
645	 4.81488399913769E-02 
646	 0.047838820970072 
647	 4.72681084203838E-02 
648	 4.65133491689675E-02 
649	 4.62057660567805E-02 
650	 0.046495278323569 
651	 4.65187972089132E-02 
652	 4.63576587031489E-02 
653	 4.62042163530362E-02 
654	 4.63211407834031E-02 
655	 4.64765892093132E-02 
656	 4.55576326442554E-02 
657	 0.044867030152079 
658	 4.50906556374689E-02 
659	 4.49738076788743E-02 
660	 0.04472732069699 
661	 4.49828092759288E-02 
662	 4.44995755671173E-02 
663	 4.32684279049569E-02 
664	 0.042771838400074 
665	 4.27045376785626E-02 
666	 4.27427800248878E-02 
667	 4.26544553928873E-02 
668	 4.24360937953826E-02 
669	 0.042202009213704 
670	 4.21209262741995E-02 
671	 4.21944922109352E-02 
672	 4.19989770630809E-02 
673	 4.17483878423723E-02 
674	 0.041719993494137 
675	 0.041643829316873 
676	 0.041601901266918 
677	 4.20120285545221E-02 
678	 0.042531628979514 
679	 4.28879388494821E-02 
680	 4.25803205055282E-02 
681	 4.22236596011446E-02 
682	 4.28650643557368E-02 
683	 4.34853349300621E-02 
684	 4.39981418132828E-02 
685	 4.53953930199698E-02 
686	 4.66402332560028E-02 
687	 4.68375231512929E-02 
688	 0.047546746435403 
689	 0.048731057567969 
690	 4.97751951693199E-02 
691	 5.08006212054988E-02 
692	 5.19325799526046E-02 
693	 0.053468340405676 
694	 5.53731701575856E-02 
695	 5.74918978707669E-02 
696	 0.059393988092152 
697	 6.10449749174564E-02 
698	 6.26551870354519E-02 
699	 6.45152532849359E-02 
700	 6.65915789186247E-02 
701	 6.76884888642046E-02 
702	 0.068778176925651 
703	 7.13485239496553E-02 
704	 7.34179777070898E-02 
705	 7.47125474029218E-02 
706	 7.59589116567099E-02 
707	 7.74167784443224E-02 
708	 7.91934440560265E-02 
709	 8.06154607256171E-02 
710	 8.17023760211458E-02 
711	 0.082665212837871 
712	 8.38300614112097E-02 
713	 8.51949794689111E-02 
714	 8.62760662363633E-02 
715	 0.087035455313835 
716	 8.75412818919674E-02 
717	 8.88406083804126E-02 
718	 9.07525511886702E-02 
719	 9.16282341596214E-02 
720	 9.22314999189841E-02 
721	 0.092784105761445 
722	 9.28243029697611E-02 
723	 9.32434826806819E-02 
724	 9.50370543763915E-02 
725	 9.59733831330052E-02 
726	 9.59033407077756E-02 
727	 9.63878576367352E-02 
728	 9.68238117994356E-02 
729	 9.70120570721107E-02 
730	 9.75375126058783E-02 
731	 9.82175522224425E-02 
732	 9.87244640354962E-02 
733	 9.89639913648499E-02 
734	 9.90008322233993E-02 
735	 9.90431984042817E-02 
736	 9.93432824458269E-02 
737	 9.99955885141959E-02 
738	 0.10028991640565 
739	 0.100313861786153 
740	 0.100434477682141 
741	 0.100491959530516 
742	 0.100513343635075 
743	 0.100732398031814 
744	 0.101053308265103 
745	 0.101381151732471 
746	 0.101647137762045 
747	 0.101872582043309 
748	 0.1021554184745 
749	 0.102428299771386 
750	 0.10263594951546 
751	 0.1026665900224 
752	 0.102535202717594 
753	 0.102296852990975 
754	 0.102601137943456 
755	 0.103215978723318 
756	 0.103061803855171 
757	 0.10305359790794 
758	 0.10357388046861 
759	 0.10399226509554 
760	 0.104393708597166 
761	 0.104702581518188 
762	 0.104738361824549 
763	 0.104634960662449 
764	 0.104624325737669 
765	 0.104679174943584 
766	 0.104770350967621 
767	 0.104870534300005 
768	 0.104835452827658 
769	 0.104469079816726 
770	 0.104281098374082 
771	 0.104457463938505 
772	 0.105148913967255 
773	 0.105802923544487 
774	 0.105991484300497 
775	 0.105504022441397 
776	 0.104981366804925 
777	 0.105615245474581 
778	 0.106075863952242 
779	 0.106037734367142 
780	 0.10599831362038 
781	 0.105956027758716 
782	 0.10592906126184 
783	 0.106157192519453 
784	 0.106509053907441 
785	 0.106611392219657 
786	 0.106911235106192 
787	 0.107351637111056 
788	 0.106933960526771 
789	 0.106535496504471 
790	 0.106955421630051 
791	 0.107029647873815 
792	 0.106682161077572 
793	 0.106157305872292 
794	 0.106339374412593 
795	 0.107240228411068 
796	 0.106988776509738 
797	 0.106673888842328 
798	 0.10742940810141 
799	 0.107742384822249 
800	 0.107743137472399 
801	 0.108745120618841 
802	 0.10885080138627 
803	 0.107672754877159 
804	 0.107423326325127 
805	 0.10792989479732 
806	 0.108756837842298 
807	 0.10878163231956 
808	 0.108288308642552 
809	 0.108927985434736 
810	 0.109224741268363 
811	 0.108709808546542 
812	 0.108727237978926 
813	 0.109013786405437 
814	 0.109081357841812 
815	 0.109344466878214 
816	 0.109792246222574 
817	 0.11012598202215 
818	 0.110286068744071 
819	 0.110285891431438 
820	 0.110393116655893 
821	 0.11042870019985 
822	 0.110178147222652 
823	 0.11073212689221 
824	 0.11163921349126 
825	 0.110939368820434 
826	 0.110539232758888 
827	 0.111123179872711 
828	 0.111525826575434 
829	 0.111723884614393 
830	 0.111809950354664 
831	 0.111503046768607 
832	 0.111068207966017 
833	 0.111385586189866 
834	 0.111636994936423 
835	 0.111559469209258 
836	 0.11185236211381 
837	 0.112230817841504 
838	 0.112310246277107 
839	 0.111882734415219 
840	 0.111394675583212 
841	 0.112287634306442 
842	 0.112883507184473 
843	 0.112488972202296 
844	 0.111579178953977 
845	 0.111318704672722 
846	 0.112828714970478 
847	 0.112923797645774 
848	 0.111710463032699 
849	 0.111479952931543 
850	 0.111664778454002 
851	 0.112032026140726 
852	 0.11211476683725 
853	 0.112550840215583 
854	 0.113943369334601 
855	 0.114329633883512 
856	 0.11369767928557 
857	 0.113084392977753 
858	 0.11214312162142 
859	 0.11118905258548 
860	 0.112112612145509 
861	 0.112886115472157 
862	 0.111677803933952 
863	 0.111793077636842 
864	 0.112863052447907 
865	 0.112542694553825 
866	 0.112221670918422 
867	 0.112365295299596 
868	 0.112816943603095 
869	 0.113667849363308 
870	 0.114846360481305 
871	 0.114998250714948 
872	 0.114618530881903 
873	 0.115115410090542 
874	 0.11497990386527 
875	 0.114248471537913 
876	 0.115044582294772 
877	 0.115270776754407 
878	 0.113727051266568 
879	 0.11368915708394 
880	 0.114420042609768 
881	 0.113981781867186 
882	 0.11406281804796 
883	 0.114861557886452 
884	 0.115676123917429 
885	 0.115513527416529 
886	 0.114192536045486 
887	 0.114644139894224 
888	 0.115868617830808 
889	 0.116120575846072 
890	 0.116465045552713 
891	 0.117012429054589 
892	 0.117514071204437 
893	 0.117469148298965 
894	 0.116718066116548 
895	 0.116067697354363 
896	 0.115582267584663 
897	 0.115354299719295 
898	 0.117250202073925 
899	 0.11969372523229 
900	 0.118004785903825 
901	 0.117023836692057 
902	 0.117849271008671 
903	 0.117572188381864 
904	 0.117183317109819 
905	 0.117455225722948 
906	 0.117523809110634 
907	 0.117549848479869 
908	 0.118078340258478 
909	 0.1173600233992 
910	 0.115917728175471 
911	 0.117874771437127 
912	 0.118861813894519 
913	 0.117005211120149 
914	 0.118097401547908 
915	 0.119564225416381 
916	 0.117753932198556 
917	 0.118407951962222 
918	 0.121268216869358 
919	 0.123041708067484 
920	 0.121404023079652 
921	 0.117031233556517 
922	 0.118537021885014 
923	 0.119884235943052 
924	 0.1158450433513 
925	 0.115117696642126 
926	 0.118193548594925 
927	 0.122917134233324 
928	 0.124053911138302 
929	 0.120601833445491 
930	 0.120244010249403 
931	 0.119356938281869 
932	 0.116074167561721 
933	 0.119778741808992 
934	 0.125516183372305 
935	 0.124088118219575 
936	 0.122994163131738 
937	 0.123000076078782 
938	 0.121388625156533 
939	 0.120211095533286 
940	 0.119582248141796 
941	 0.116344671337824 
942	 0.115753670112291 
943	 0.120896190258153 
944	 0.124180903929044 
945	 0.122066935129872 
946	 0.110642675739526 
947	 0.113179726019785 
948	 0.127759382613425 
949	 0.129367458320872 
950	 0.124251192547387 
951	 0.117345887414198 
952	 0.120151310193469 
953	 0.122958448640304 
954	 0.117206580929606 
955	 0.118500030523347 
956	 0.122100204014303 
957	 0.114883146978982 
958	 0.11530444266576 
959	 0.123380994022459 
960	 0.12359775327181 
961	 0.121226357244636 
962	 0.118904032789988 
963	 0.115338751277472 
964	 0.115162162466204 
965	 0.121874777676584 
966	 0.122258411909943 
967	 0.118097064858596 
968	 0.117173918953575 
969	 0.115523030670487 
970	 0.112914924408882 
971	 0.110947415857201 
972	 0.114038878475567 
973	 0.122158315322248 
974	 0.120194507732564 
975	 0.114319024836613 
976	 0.113036783128875 
977	 0.116487292645577 
978	 0.121123563213892 
979	 0.119420553122808 
980	 0.117217381582901 
981	 0.117042536043622 
982	 0.121945724707917 
983	 0.12327144759896 
984	 0.117731188489751 
985	 0.11696785595635 
986	 0.116913753798554 
987	 0.112858605766235 
988	 0.116292408277799 
989	 0.122984811704642 
990	 0.120572504547038 
991	 0.123268504280353 
992	 0.129699142238156 
993	 0.12018447602795 
994	 0.111475739305472 
995	 0.112702998022813 
996	 0.121796870098111 
997	 0.127455515496552 
998	 0.120750240799299 
999	 0.123469938305896 
1000	 0.131900407267413 
1001	 0.133230742499289 
1002	 0.133700846485866 
1003	 0.133471565319535 
1004	 0.128549512631715 
1005	 0.122464154887177 
1006	 0.118616375822722 
1007	 0.123994204658257 
1008	 0.129378347532545 
1009	 0.127345180106257 
1010	 0.119380774617676 
1011	 0.117726309833272 
1012	 0.136652111678709 
1013	 0.140170725926945 
1014	 0.127867017992059 
1015	 0.118272626286166 
1016	 0.118693278181907 
1017	 0.128198019043307 
1018	 0.129911946389207 
1019	 0.130891816532993 
1020	 0.132736787038943 
1021	 0.119792153040459 
1022	 0.110431922204334 
1023	 0.122101697422332 
1024	 0.126312227872875 
1025	 0.124297519606721 
1026	 0.126648949712137 
1027	 0.121375778720946 
1028	 0.111804094959319 
1029	 0.115658309284286 
1030	 0.12870926598026 
1031	 0.144489706396868 
1032	 0.141617988133461 
1033	 0.131525269365528 
1034	 0.122951635284227 
1035	 0.121757427833504 
1036	 0.121863868763479 
1037	 0.116826289864561 
1038	 0.123563340089094 
1039	 0.131175035270137 
1040	 0.116782145060617 
1041	 0.11496656800801 
1042	 0.128517383163944 
1043	 0.140465050233675 
1044	 0.139883434849849 
1045	 0.126386761394577 
1046	 0.11992433532341 
1047	 0.11754712221854 
1048	 0.11787711500204 
1049	 0.126340827408328 
1050	 0.127942342634956 
1051	 0.113082371206642 
1052	 0.124187220452173 
1053	 0.141992585320106 
1054	 0.128189751809983 
1055	 0.124726952443532 
1056	 0.129837036322686 
1057	 0.115096507427518 
1058	 0.111697222527171 
1059	 0.125531015469976 
1060	 0.141661804854656 
1061	 0.131359646288854 
1062	 9.32521941312819E-02 
1063	 0.105014267073888 
1064	 0.126419386148727 
1065	 0.128464386303651 
1066	 0.127599753404157 
1067	 0.129391988041376 
1068	 0.137776941709151 
1069	 0.144904583212709 
1070	 0.146535476134217 
1071	 0.138933035101144 
1072	 0.128236331129089 
1073	 0.121372157716497 
1074	 0.128439509116556 
1075	 0.142174821030159 
