Wavelength	AVE00049.asd
325	 4.47232950484101E-02 
326	 0.047181781879658 
327	 5.52423611549943E-02 
328	 4.75919976659053E-02 
329	 4.17964185899577E-02 
330	 4.27948465845122E-02 
331	 3.87862195758771E-02 
332	 3.42852623520256E-02 
333	 3.42407640075826E-02 
334	 3.63345560811076E-02 
335	 3.89786870710322E-02 
336	 3.95931203200417E-02 
337	 4.02153760997206E-02 
338	 4.09169251294783E-02 
339	 3.97793338861965E-02 
340	 3.54257023069033E-02 
341	 2.82679273502367E-02 
342	 3.53268112045062E-02 
343	 4.73140581580155E-02 
344	 4.31652244629944E-02 
345	 0.037371712656544 
346	 3.47983352115979E-02 
347	 3.76735349029467E-02 
348	 3.91570407581299E-02 
349	 3.53047661805963E-02 
350	 3.30617634615276E-02 
351	 3.29617639995302E-02 
352	 3.42209037454279E-02 
353	 3.56921592474833E-02 
354	 3.67662854331755E-02 
355	 3.72176678038799E-02 
356	 0.036228522124049 
357	 3.38097141299723E-02 
358	 3.38074485681474E-02 
359	 3.48929953732035E-02 
360	 3.43705189128699E-02 
361	 3.56252603631386E-02 
362	 3.79370772893472E-02 
363	 0.036475806075855 
364	 3.43176228224814E-02 
365	 3.34364813795939E-02 
366	 3.50372422243422E-02 
367	 0.036723975529805 
368	 3.52306722877589E-02 
369	 3.52196949297515E-02 
370	 3.68516156567598E-02 
371	 3.70824960812014E-02 
372	 3.67334472050965E-02 
373	 3.62599482935419E-02 
374	 3.57874386142842E-02 
375	 3.54910624183775E-02 
376	 3.55450913357012E-02 
377	 3.53207510771924E-02 
378	 0.034979741385056 
379	 3.56208490457177E-02 
380	 3.59523976114953E-02 
381	 3.54773120703755E-02 
382	 3.56301051776642E-02 
383	 3.57039416259407E-02 
384	 3.46378424195851E-02 
385	 3.39357893553178E-02 
386	 3.41473045431413E-02 
387	 3.56678948457709E-02 
388	 0.037042978977699 
389	 3.74440226338776E-02 
390	 3.67705492943075E-02 
391	 3.53227106659436E-02 
392	 3.34928496044486E-02 
393	 3.43741721458348E-02 
394	 3.71126967421415E-02 
395	 3.76942448526208E-02 
396	 3.70380725663434E-02 
397	 3.57997138158597E-02 
398	 3.52980147779928E-02 
399	 3.50331195304082E-02 
400	 3.43626621206505E-02 
401	 3.43057947033955E-02 
402	 3.46671037096531E-02 
403	 3.45050126463392E-02 
404	 3.46751753335299E-02 
405	 3.53384206631036E-02 
406	 3.52360570894755E-02 
407	 0.034927783099633 
408	 3.52195737876603E-02 
409	 3.54412240968914E-02 
410	 3.54884889536878E-02 
411	 3.54920479979294E-02 
412	 3.55311907340867E-02 
413	 0.035609563653885 
414	 3.55172537458468E-02 
415	 3.52108175861142E-02 
416	 3.46575415690091E-02 
417	 3.47456781347292E-02 
418	 3.54387710134165E-02 
419	 3.60406485654875E-02 
420	 3.61433052128733E-02 
421	 3.56151758473214E-02 
422	 3.52915388073382E-02 
423	 3.52227617968436E-02 
424	 3.53135938260365E-02 
425	 3.54046714355329E-02 
426	 3.54553188172106E-02 
427	 3.54501752758016E-02 
428	 3.58178151059887E-02 
429	 0.036686687600271 
430	 3.68242242648536E-02 
431	 3.64838157951605E-02 
432	 3.63762588507475E-02 
433	 0.036169663251085 
434	 3.59790744363835E-02 
435	 3.64907092769383E-02 
436	 0.036744319468201 
437	 3.61999467075694E-02 
438	 3.60620768663719E-02 
439	 3.62844077210251E-02 
440	 3.64749412061967E-02 
441	 3.65028769921518E-02 
442	 3.63715214814425E-02 
443	 3.63442080677946E-02 
444	 3.63909219982564E-02 
445	 3.65073198807579E-02 
446	 3.71031386611359E-02 
447	 3.77300959081314E-02 
448	 3.72279782565124E-02 
449	 3.70044941116184E-02 
450	 3.74080263266354E-02 
451	 3.75775590434745E-02 
452	 3.75999064199551E-02 
453	 3.76164040297698E-02 
454	 0.037802433781154 
455	 3.80618607677158E-02 
456	 3.80737539442959E-02 
457	 3.77417471785587E-02 
458	 3.72590452820051E-02 
459	 3.79919071795975E-02 
460	 3.87634646691943E-02 
461	 3.81070420167551E-02 
462	 3.81754975952312E-02 
463	 0.038906696132781 
464	 3.85108724205592E-02 
465	 3.82688027624718E-02 
466	 3.87102042729718E-02 
467	 3.86682220363767E-02 
468	 3.83514952012921E-02 
469	 3.82524584868231E-02 
470	 3.81693441860241E-02 
471	 3.81246885430413E-02 
472	 3.83189691090706E-02 
473	 3.86005381698342E-02 
474	 3.88190454412426E-02 
475	 3.86432343281003E-02 
476	 3.83140894618952E-02 
477	 3.82961286086957E-02 
478	 3.86528603930564E-02 
479	 3.91913697273781E-02 
480	 3.91244013080089E-02 
481	 3.86361703620971E-02 
482	 3.79859008875978E-02 
483	 3.81492694686523E-02 
484	 3.89085543404294E-02 
485	 3.93441679333157E-02 
486	 3.96554097837596E-02 
487	 3.98074974053705E-02 
488	 0.039513624997312 
489	 0.039220393384983 
490	 3.93767959742041E-02 
491	 3.95616416822097E-02 
492	 3.96922749200269E-02 
493	 3.97918622631379E-02 
494	 3.98746301921739E-02 
495	 3.99377270124194E-02 
496	 0.039899536327431 
497	 3.99319805690273E-02 
498	 4.02617033035615E-02 
499	 4.01483390240512E-02 
500	 3.97823319131686E-02 
501	 4.04882917759361E-02 
502	 4.10230369064069E-02 
503	 4.07644528480789E-02 
504	 4.12444702507112E-02 
505	 4.18810216658537E-02 
506	 4.13876424051844E-02 
507	 4.10900819192478E-02 
508	 4.12682998219554E-02 
509	 4.13307143127104E-02 
510	 0.041651821627207 
511	 4.24882830153609E-02 
512	 4.31998359415316E-02 
513	 4.36594025748156E-02 
514	 4.38472015569981E-02 
515	 4.40517893390579E-02 
516	 4.44228654924726E-02 
517	 0.045043454590912 
518	 4.56014502821634E-02 
519	 4.57775850597934E-02 
520	 4.62212553034981E-02 
521	 4.68784802055692E-02 
522	 4.72440979140386E-02 
523	 4.76132392930761E-02 
524	 4.80844003947652E-02 
525	 4.83729268493095E-02 
526	 4.86165651890911E-02 
527	 4.90411234134221E-02 
528	 4.95323837120155E-02 
529	 4.99840024252803E-02 
530	 5.02007059181413E-02 
531	 5.02362522251142E-02 
532	 5.01803958537911E-02 
533	 5.04534981513713E-02 
534	 5.09277918168765E-02 
535	 5.12199722112411E-02 
536	 5.15630459207495E-02 
537	 5.19751910726045E-02 
538	 5.22257669313031E-02 
539	 5.24762382274799E-02 
540	 5.28694148976185E-02 
541	 5.29711177271901E-02 
542	 5.28777772590991E-02 
543	 5.30797284682669E-02 
544	 5.32140413574344E-02 
545	 5.32077194273182E-02 
546	 5.35472218851831E-02 
547	 5.39955761050463E-02 
548	 0.054191442030633 
549	 5.43667000015375E-02 
550	 5.45649155295295E-02 
551	 0.054726713345854 
552	 5.49757738914128E-02 
553	 5.53421928261345E-02 
554	 5.53669265245573E-02 
555	 5.52915283941868E-02 
556	 5.56927424831309E-02 
557	 5.59833078237495E-02 
558	 5.60078849320001E-02 
559	 5.60150304807909E-02 
560	 5.59238865939519E-02 
561	 5.56859747460431E-02 
562	 5.57822051993034E-02 
563	 5.60599637437088E-02 
564	 5.58921204679588E-02 
565	 5.56494626187973E-02 
566	 5.55244446266621E-02 
567	 0.055710695817277 
568	 5.59747215710438E-02 
569	 0.055997970240402 
570	 5.55862055120688E-02 
571	 5.49822368802903E-02 
572	 5.51492138024755E-02 
573	 5.53964981202912E-02 
574	 5.52707214017564E-02 
575	 5.47281706508464E-02 
576	 5.42570830985694E-02 
577	 5.47896525313734E-02 
578	 5.48717159860479E-02 
579	 5.43269227080853E-02 
580	 5.46025312945696E-02 
581	 5.48947669652029E-02 
582	 5.44893571913202E-02 
583	 5.41725128452467E-02 
584	 5.40522314552623E-02 
585	 5.40169678496537E-02 
586	 5.40235461731739E-02 
587	 5.40370362309457E-02 
588	 5.40628583049647E-02 
589	 5.39699857744503E-02 
590	 5.36027011417897E-02 
591	 5.33599334359567E-02 
592	 5.33329619703565E-02 
593	 5.34395955930373E-02 
594	 5.35608090233965E-02 
595	 5.35987540822282E-02 
596	 5.34160651858668E-02 
597	 5.32538400961838E-02 
598	 0.053592385088986 
599	 5.35355902148217E-02 
600	 5.29895907091118E-02 
601	 5.28027775160095E-02 
602	 5.29361628603478E-02 
603	 5.32759014542024E-02 
604	 5.31953695733327E-02 
605	 5.28433420723183E-02 
606	 5.29397159294655E-02 
607	 0.052893916590779 
608	 5.25451907879332E-02 
609	 5.23797056190565E-02 
610	 5.23291058441154E-02 
611	 0.052251282532231 
612	 5.21900616497328E-02 
613	 5.20885114847563E-02 
614	 0.051758421388691 
615	 0.051366182184193 
616	 5.10616524235931E-02 
617	 5.11269429131029E-02 
618	 5.12494766880477E-02 
619	 5.07977096665988E-02 
620	 5.07314370051254E-02 
621	 5.11424486303213E-02 
622	 5.11648606580352E-02 
623	 5.08473148723715E-02 
624	 5.03113453735988E-02 
625	 5.02265068021116E-02 
626	 5.05276927123452E-02 
627	 5.07061271021399E-02 
628	 5.07701382053726E-02 
629	 5.06846919993622E-02 
630	 5.03921466322773E-02 
631	 5.01838757007986E-02 
632	 5.04091360377109E-02 
633	 5.04127271933872E-02 
634	 5.02037690309275E-02 
635	 5.04019634077863E-02 
636	 5.04818424366786E-02 
637	 5.01217297732574E-02 
638	 4.93925194222755E-02 
639	 4.87262430135534E-02 
640	 4.88469410506754E-02 
641	 4.91126968492982E-02 
642	 4.92089663715246E-02 
643	 0.0487965754044 
644	 4.82839700255596E-02 
645	 4.80381296182978E-02 
646	 4.78760982709844E-02 
647	 4.76707973649831E-02 
648	 4.71128747149986E-02 
649	 4.68778073680387E-02 
650	 4.71179667418889E-02 
651	 4.70064503919415E-02 
652	 4.66813106474903E-02 
653	 4.63925324945725E-02 
654	 4.63144256247564E-02 
655	 4.63681231789372E-02 
656	 0.046097136607774 
657	 4.57996649579667E-02 
658	 4.56412451403867E-02 
659	 4.53724641412552E-02 
660	 4.50346396612516E-02 
661	 4.47590862154209E-02 
662	 4.41774336842031E-02 
663	 4.33805474094856E-02 
664	 0.04314507918603 
665	 4.31561616651139E-02 
666	 0.043123858196252 
667	 4.31528664897184E-02 
668	 4.31392782107971E-02 
669	 0.042817512063647 
670	 4.24837814873692E-02 
671	 4.22658924703113E-02 
672	 4.21478162995329E-02 
673	 4.21379513139977E-02 
674	 4.22391369365011E-02 
675	 4.23583864337016E-02 
676	 4.24796083914126E-02 
677	 4.26304494949471E-02 
678	 4.28961585783802E-02 
679	 4.32232774176357E-02 
680	 4.28350264361951E-02 
681	 0.042403948856719 
682	 4.31057476936893E-02 
683	 4.40436817270771E-02 
684	 4.49268404152185E-02 
685	 4.57861984513836E-02 
686	 4.65464072123249E-02 
687	 4.71387715632149E-02 
688	 0.047935864605985 
689	 4.88634204065987E-02 
690	 4.96893568110249E-02 
691	 5.08902607849908E-02 
692	 5.25572367699735E-02 
693	 5.41984728090399E-02 
694	 5.58459338041386E-02 
695	 0.057505605098037 
696	 5.93487689223237E-02 
697	 0.061280360787666 
698	 6.30067513634219E-02 
699	 6.48652176976816E-02 
700	 6.68752098412685E-02 
701	 6.82211946644132E-02 
702	 6.95105535042749E-02 
703	 0.071686286909183 
704	 7.34643076277834E-02 
705	 7.47115910058989E-02 
706	 7.60069480227798E-02 
707	 7.74191447349973E-02 
708	 7.89724841922367E-02 
709	 8.04305031117003E-02 
710	 8.17468740841644E-02 
711	 8.29305852410344E-02 
712	 0.083934803355108 
713	 8.48735480616736E-02 
714	 8.63884488348652E-02 
715	 8.76078362225318E-02 
716	 8.78009894169508E-02 
717	 8.86464885791182E-02 
718	 9.02895964269225E-02 
719	 9.17053898002718E-02 
720	 9.25408401649008E-02 
721	 9.27099164791209E-02 
722	 9.24433302447938E-02 
723	 0.092610485608509 
724	 9.41718507096161E-02 
725	 9.52267590440922E-02 
726	 9.54930355419739E-02 
727	 9.58587851636441E-02 
728	 9.64315197375346E-02 
729	 9.72309457540715E-02 
730	 9.77858300896308E-02 
731	 9.81683020533619E-02 
732	 9.85703118457309E-02 
733	 9.87255877991231E-02 
734	 0.098670759340254 
735	 9.86160499811975E-02 
736	 9.88203071802063E-02 
737	 9.93942166972433E-02 
738	 9.96650373550734E-02 
739	 9.97746252358503E-02 
740	 0.100192664135581 
741	 0.100437171839442 
742	 0.100437160661 
743	 0.100507301821882 
744	 0.100740082056789 
745	 0.101173960148941 
746	 0.101368886015392 
747	 0.101424739868658 
748	 0.101809217674639 
749	 0.102030280822387 
750	 0.10199567258455 
751	 0.102229732536233 
752	 0.102456295010327 
753	 0.102370764781765 
754	 0.102615727114187 
755	 0.103068331449813 
756	 0.103002770785569 
757	 0.10290741589278 
758	 0.103014814508661 
759	 0.103327439255967 
760	 0.103887057878465 
761	 0.104155407560134 
762	 0.104692943086833 
763	 0.105243450752086 
764	 0.104941765697601 
765	 0.104622519235391 
766	 0.10455605607953 
767	 0.104313970327951 
768	 0.10402844963641 
769	 0.103879335543518 
770	 0.103853133267616 
771	 0.104037906838604 
772	 0.104763242476385 
773	 0.105359563602292 
774	 0.105382794772947 
775	 0.105196514933965 
776	 0.105112914532154 
777	 0.105600754101618 
778	 0.105805088021391 
779	 0.105613658835962 
780	 0.105798919179544 
781	 0.105863897301336 
782	 0.105465396403348 
783	 0.105416823804171 
784	 0.105736451587138 
785	 0.106196190038796 
786	 0.106425384435568 
787	 0.106372425491453 
788	 0.106576064876461 
789	 0.106782668898304 
790	 0.106741138356122 
791	 0.106675820596251 
792	 0.106610589394092 
793	 0.106392171522666 
794	 0.106889895858753 
795	 0.107996174232868 
796	 0.10751468492656 
797	 0.106640883266751 
798	 0.106691507642381 
799	 0.106977248131675 
800	 0.107384432784284 
801	 0.107997890066954 
802	 0.108316855165713 
803	 0.108133255698879 
804	 0.107570317432135 
805	 0.107282776377812 
806	 0.107893494744461 
807	 0.108070489482858 
808	 0.10778000222215 
809	 0.107683897202329 
810	 0.108143169876879 
811	 0.109089760355576 
812	 0.108835218466458 
813	 0.108193164692276 
814	 0.108431594534804 
815	 0.108912932090307 
816	 0.10944413377622 
817	 0.109992842290404 
818	 0.109961989329705 
819	 0.109330196634591 
820	 0.109403855180047 
821	 0.109823966308907 
822	 0.110061601887026 
823	 0.110865737789084 
824	 0.111650444003934 
825	 0.110343754983521 
826	 0.10973686104591 
827	 0.110750460994402 
828	 0.110991994419644 
829	 0.110930983875008 
830	 0.111379359561487 
831	 0.111458565851617 
832	 0.111132002573571 
833	 0.110754227516406 
834	 0.110778245945803 
835	 0.111312779345449 
836	 0.111652786898379 
837	 0.111799101804466 
838	 0.11183374938728 
839	 0.111902342831741 
840	 0.112027257570029 
841	 0.112182151151237 
842	 0.112157246553551 
843	 0.111950685799142 
844	 0.112040832908196 
845	 0.112573278190766 
846	 0.113565489647849 
847	 0.112721089457135 
848	 0.11071336923636 
849	 0.1107332021709 
850	 0.111744257525459 
851	 0.11300494984501 
852	 0.112547563208015 
853	 0.111954136985831 
854	 0.112995580863571 
855	 0.113546406772742 
856	 0.113283898062718 
857	 0.112467033470517 
858	 0.11168515260032 
859	 0.111366179640789 
860	 0.112294401160439 
861	 0.112884350233188 
862	 0.111791180068213 
863	 0.112317316918606 
864	 0.113896245609852 
865	 0.113708556626332 
866	 0.113644433256003 
867	 0.113952729192039 
868	 0.112671730807955 
869	 0.112179382188711 
870	 0.114138585358577 
871	 0.114730473521182 
872	 0.113894696676154 
873	 0.112609691909243 
874	 0.112884142084604 
875	 0.114646587126725 
876	 0.114772951492253 
877	 0.113797332751618 
878	 0.11249650444944 
879	 0.113641250238312 
880	 0.115663382009674 
881	 0.115449025337209 
882	 0.114802822771412 
883	 0.114346064759751 
884	 0.114391847548423 
885	 0.11524663297213 
886	 0.1165971349837 
887	 0.115076635933714 
888	 0.113402104390191 
889	 0.115520808934588 
890	 0.116105872700514 
891	 0.115072520366228 
892	 0.116416875518126 
893	 0.117193295890737 
894	 0.11629520578325 
895	 0.115954213903311 
896	 0.116102729382622 
897	 0.116470604563934 
898	 0.117784210262965 
899	 0.11916068086692 
900	 0.118277744542335 
901	 0.117242303011441 
902	 0.116969462596575 
903	 0.118111186053488 
904	 0.118445524653515 
905	 0.116608620337004 
906	 0.116959544524282 
907	 0.118344952347114 
908	 0.117506381840219 
909	 0.117416303501675 
910	 0.118488566765477 
911	 0.119135530616276 
912	 0.118514087521097 
913	 0.116922163597516 
914	 0.119955033711629 
915	 0.122445165017883 
916	 0.117852254639248 
917	 0.11775235340131 
918	 0.121597699705539 
919	 0.121609173242314 
920	 0.119298470785012 
921	 0.116490889646996 
922	 0.120550174890142 
923	 0.123154672575562 
924	 0.117313370865663 
925	 0.115663378381923 
926	 0.118226214931002 
927	 0.120141129407489 
928	 0.11930516377698 
929	 0.115854519227536 
930	 0.116198225024057 
931	 0.118392505073087 
932	 0.120886811382499 
933	 0.125076953140267 
934	 0.127095767588204 
935	 0.122033199519095 
936	 0.121708637788212 
937	 0.125415989592988 
938	 0.123539074214012 
939	 0.12329250970286 
940	 0.124629101217066 
941	 0.116669639573969 
942	 0.112175487416169 
943	 0.119515024330927 
944	 0.124072403271664 
945	 0.124423509808702 
946	 0.12152940703302 
947	 0.12083842834245 
948	 0.122032685421019 
949	 0.117954265156323 
950	 0.118506462099195 
951	 0.125734616528333 
952	 0.12790625469291 
953	 0.122584182115654 
954	 0.11058820326768 
955	 0.115628112615492 
956	 0.127408251631021 
957	 0.120490444150782 
958	 0.115750886646647 
959	 0.11719727586773 
960	 0.119558436047257 
961	 0.121714703893702 
962	 0.122699855466677 
963	 0.121018502412837 
964	 0.120459957176659 
965	 0.124221879357652 
966	 0.124274791206436 
967	 0.121246215373807 
968	 0.118763373522516 
969	 0.117723909750034 
970	 0.117640967334478 
971	 0.114524728736662 
972	 0.114595921946642 
973	 0.11975416182405 
974	 0.119318393388318 
975	 0.115522579990186 
976	 0.112327725560561 
977	 0.115330580449329 
978	 0.121615720789909 
979	 0.122847111069806 
980	 0.122191982783317 
981	 0.120866490025333 
982	 0.120085066676871 
983	 0.119883975436659 
984	 0.120310447356559 
985	 0.12198808154313 
986	 0.121330999949242 
987	 0.115394910775351 
988	 0.117536938302976 
989	 0.123707799754674 
990	 0.121018873421855 
991	 0.121279422729018 
992	 0.125144621774684 
993	 0.123235237518532 
994	 0.118241558777853 
995	 0.113574752881032 
996	 0.119857062412982 
997	 0.127698231915085 
998	 0.12778880688464 
999	 0.128346596319196 
1000	 0.129393444424782 
1001	 0.128788016580299 
1002	 0.12775536876377 
1003	 0.126151638057985 
1004	 0.121587535965188 
1005	 0.122620507799383 
1006	 0.130267778911016 
1007	 0.130108625047649 
1008	 0.128550188802163 
1009	 0.130205162803843 
1010	 0.12546766110851 
1011	 0.120402671419646 
1012	 0.124216465049814 
1013	 0.127135715187716 
1014	 0.127062330622558 
1015	 0.124507046959626 
1016	 0.120655718029534 
1017	 0.118170838760397 
1018	 0.124153915616409 
1019	 0.131700701421413 
1020	 0.13493518999989 
1021	 0.128622605439164 
1022	 0.119648155369993 
1023	 0.115793728601584 
1024	 0.119190938522633 
1025	 0.126011435319351 
1026	 0.129213411883461 
1027	 0.127935118959035 
1028	 0.124314837460375 
1029	 0.125575687361616 
1030	 0.130560290615203 
1031	 0.136891279556026 
1032	 0.135731461376959 
1033	 0.132089779728057 
1034	 0.128803468249626 
1035	 0.120781488424424 
1036	 0.118694881087961 
1037	 0.131622284946441 
1038	 0.126882875481437 
1039	 0.115360207252845 
1040	 0.125539210321054 
1041	 0.134669197236299 
1042	 0.138344374304188 
1043	 0.142106391295709 
1044	 0.135373546116081 
1045	 0.119284482913271 
1046	 0.115506186542071 
1047	 0.118742797509236 
1048	 0.123382103989155 
1049	 0.116775446770434 
1050	 0.115906332237452 
1051	 0.134758509726025 
1052	 0.147603686988503 
1053	 0.149653158387012 
1054	 0.141891138688188 
1055	 0.128360785137598 
1056	 0.117766027276234 
1057	 0.126062522921934 
1058	 0.136308553670503 
1059	 0.142141144649742 
1060	 0.145492970425756 
1061	 0.138332625548607 
1062	 0.120813209997919 
1063	 0.118288142317049 
1064	 0.124221379685016 
1065	 0.131170556543876 
1066	 0.128853125403607 
1067	 0.127217305958299 
1068	 0.138236116863601 
1069	 0.154131863477187 
1070	 0.161349046023183 
1071	 0.142537443489963 
1072	 0.136400242193253 
1073	 0.143164005805515 
1074	 0.133574973286113 
1075	 0.156204442982551 
