Wavelength	AVE00041.asd
325	 3.75312560059124E-02 
326	 3.84511462831168E-02 
327	 0.035859013102739 
328	 4.15447902780442E-02 
329	 4.34392963543501E-02 
330	 3.77329307687388E-02 
331	 2.82568106265212E-02 
332	 2.48818419370963E-02 
333	 3.54275517635571E-02 
334	 4.09013397878939E-02 
335	 3.99108950992305E-02 
336	 3.68049193475403E-02 
337	 3.49599294512334E-02 
338	 3.56007896728429E-02 
339	 3.84455483871438E-02 
340	 3.82012896264419E-02 
341	 3.17545221799776E-02 
342	 3.32988749765157E-02 
343	 3.88563551153465E-02 
344	 3.71927320941255E-02 
345	 0.035390521075262 
346	 3.55981037642342E-02 
347	 3.87597778661977E-02 
348	 4.00467027168256E-02 
349	 3.67988501168627E-02 
350	 0.034443221818078 
351	 3.40846530345625E-02 
352	 3.61092778205489E-02 
353	 3.83288061958049E-02 
354	 3.89422347359123E-02 
355	 3.41132890692105E-02 
356	 3.03563950658608E-02 
357	 3.14741778658632E-02 
358	 0.034013301703453 
359	 3.59271445157393E-02 
360	 3.50138716905211E-02 
361	 3.58893343319231E-02 
362	 3.81093190530018E-02 
363	 3.62731452530544E-02 
364	 0.034270669541922 
365	 3.41978349518488E-02 
366	 3.51531250562326E-02 
367	 3.56788141673368E-02 
368	 0.034005565009502 
369	 3.47478735368191E-02 
370	 3.72406734315429E-02 
371	 3.54418239635996E-02 
372	 3.49028921511284E-02 
373	 0.037747496361917 
374	 3.67460232731931E-02 
375	 3.41655556066542E-02 
376	 3.40631377830289E-02 
377	 3.37265516342098E-02 
378	 3.34118886268566E-02 
379	 3.58485977266348E-02 
380	 3.82511414766792E-02 
381	 3.90605927016171E-02 
382	 3.88037452157395E-02 
383	 3.76640355986603E-02 
384	 0.035842319734906 
385	 0.035121237627245 
386	 3.54369326813424E-02 
387	 0.034910857761447 
388	 3.49948512316755E-02 
389	 3.58799533970816E-02 
390	 3.48970789381582E-02 
391	 3.33890524247107E-02 
392	 3.31439046929703E-02 
393	 3.51700619418883E-02 
394	 3.79437540126366E-02 
395	 3.68988059344821E-02 
396	 0.03508827045258 
397	 3.41230659757345E-02 
398	 3.50378971117648E-02 
399	 0.035570183394593 
400	 3.35474021503899E-02 
401	 3.38335763711566E-02 
402	 3.56402810171112E-02 
403	 3.48457410479444E-02 
404	 0.034227957624458 
405	 3.47325120730867E-02 
406	 3.47397563727577E-02 
407	 3.47669882507388E-02 
408	 3.55875144977086E-02 
409	 3.59580275288566E-02 
410	 3.58644224982651E-02 
411	 3.61960557507928E-02 
412	 3.61109712553274E-02 
413	 3.53704119827594E-02 
414	 3.50269434767757E-02 
415	 3.49936596851978E-02 
416	 3.50049801672598E-02 
417	 3.55568701037786E-02 
418	 0.036456650276695 
419	 3.70081622661092E-02 
420	 3.66001693256522E-02 
421	 3.52453125508599E-02 
422	 3.55114435662061E-02 
423	 3.64508496105467E-02 
424	 3.62688338240659E-02 
425	 3.61850712922186E-02 
426	 3.62804551542024E-02 
427	 3.56495969869544E-02 
428	 3.56150559971194E-02 
429	 3.68241078389001E-02 
430	 3.72225494255043E-02 
431	 3.69322853517437E-02 
432	 3.66428440883206E-02 
433	 0.036411603679002 
434	 3.63589415425066E-02 
435	 3.66994332367072E-02 
436	 3.70111978793155E-02 
437	 3.70014869994993E-02 
438	 3.66865963904821E-02 
439	 3.63759473112255E-02 
440	 3.66252666230616E-02 
441	 0.036802349993151 
442	 3.67624046995109E-02 
443	 3.67455899914388E-02 
444	 0.036870276503528 
445	 3.72124057958386E-02 
446	 0.037654418749694 
447	 0.037902704012651 
448	 3.72953035239512E-02 
449	 3.71914198760109E-02 
450	 0.037820178571368 
451	 3.76914911293687E-02 
452	 3.76628310303651E-02 
453	 3.85745197075364E-02 
454	 3.86632132354574E-02 
455	 3.79904282439723E-02 
456	 3.76733298750869E-02 
457	 3.75369035123392E-02 
458	 3.76100784851317E-02 
459	 3.82092457230069E-02 
460	 3.87556909159223E-02 
461	 3.85742414608791E-02 
462	 3.87858675173306E-02 
463	 3.92863335303567E-02 
464	 3.89651384631092E-02 
465	 3.84842048644478E-02 
466	 3.82245010829328E-02 
467	 3.82572326665389E-02 
468	 3.83991368681177E-02 
469	 0.038362021656012 
470	 3.84161486105532E-02 
471	 3.85885416803236E-02 
472	 3.87286848775435E-02 
473	 3.89120761357249E-02 
474	 3.91317365010548E-02 
475	 3.89505181893597E-02 
476	 3.85929754623186E-02 
477	 3.85163495003852E-02 
478	 3.88050763069846E-02 
479	 3.93111807648046E-02 
480	 3.93668031381627E-02 
481	 3.90976017386308E-02 
482	 3.86934032864698E-02 
483	 3.90037468519375E-02 
484	 3.96249780616363E-02 
485	 3.91837047842425E-02 
486	 0.03906011915167 
487	 3.95769135352155E-02 
488	 3.96275762388526E-02 
489	 3.95066420341253E-02 
490	 3.95961020219957E-02 
491	 4.00501124010709E-02 
492	 4.05594229275552E-02 
493	 4.01923220265212E-02 
494	 0.039942180553904 
495	 4.01826579372514E-02 
496	 4.02705510437635E-02 
497	 4.03131446466116E-02 
498	 4.05250897343735E-02 
499	 4.03965563175589E-02 
500	 4.00610736738966E-02 
501	 4.04091459796627E-02 
502	 4.06995507005137E-02 
503	 4.05721013224567E-02 
504	 4.09654342152746E-02 
505	 4.16037120450762E-02 
506	 4.18611988544127E-02 
507	 4.18789616391369E-02 
508	 0.041808206834549 
509	 4.20611814643271E-02 
510	 4.25469124918515E-02 
511	 4.31433239664186E-02 
512	 4.34210588338265E-02 
513	 4.35811408642318E-02 
514	 4.43358053687849E-02 
515	 4.47402931845626E-02 
516	 4.46341139373019E-02 
517	 4.51656004369229E-02 
518	 4.57733894426863E-02 
519	 4.57976961541186E-02 
520	 4.62568457508448E-02 
521	 4.70544124597192E-02 
522	 4.74098272049628E-02 
523	 4.76221241898856E-02 
524	 4.78769166749634E-02 
525	 4.84620112415323E-02 
526	 0.049177778709439 
527	 4.96997756431591E-02 
528	 5.00420492364165E-02 
529	 5.02228865953003E-02 
530	 5.03081739725766E-02 
531	 5.04644224058946E-02 
532	 5.07946354805146E-02 
533	 5.11088281320718E-02 
534	 5.14203568419365E-02 
535	 5.18250976551133E-02 
536	 5.21797128600866E-02 
537	 5.24254978573035E-02 
538	 5.25349072999058E-02 
539	 5.26153740276082E-02 
540	 5.27791843793747E-02 
541	 5.31493197632339E-02 
542	 5.35828949909078E-02 
543	 5.36500799676337E-02 
544	 5.36915266011202E-02 
545	 5.38575534049765E-02 
546	 5.41199717788396E-02 
547	 5.43491278869721E-02 
548	 0.054379121333242 
549	 5.46919237141207E-02 
550	 5.52000451994628E-02 
551	 5.51905425873725E-02 
552	 5.51433279799058E-02 
553	 5.53346761248285E-02 
554	 0.055300160123642 
555	 5.53335592696174E-02 
556	 5.61348952478634E-02 
557	 0.056462621479726 
558	 5.61367086323185E-02 
559	 0.056398950478358 
560	 5.66306699467765E-02 
561	 5.62689776155012E-02 
562	 5.62457062667199E-02 
563	 5.64807385968416E-02 
564	 5.62898247126332E-02 
565	 0.056166949393067 
566	 5.62530122368741E-02 
567	 5.61590715273574E-02 
568	 5.59482477713813E-02 
569	 5.57452299478363E-02 
570	 5.55665619859755E-02 
571	 5.54423161910716E-02 
572	 5.54180091729385E-02 
573	 0.055454930196364 
574	 5.54845491117766E-02 
575	 5.51725156844506E-02 
576	 5.47892224534829E-02 
577	 5.49107116607681E-02 
578	 5.50043248238684E-02 
579	 0.054935490257453 
580	 5.48934888348016E-02 
581	 5.49157173254386E-02 
582	 5.50090984743785E-02 
583	 5.48734412914824E-02 
584	 5.45977755983352E-02 
585	 5.45709252510814E-02 
586	 5.44332532121906E-02 
587	 5.41210740224436E-02 
588	 5.41823145411973E-02 
589	 5.42518168715727E-02 
590	 0.053804268331272 
591	 5.38819648940968E-02 
592	 5.43247500768659E-02 
593	 5.37963861217899E-02 
594	 5.32006186388136E-02 
595	 5.30992370283568E-02 
596	 5.34257575166272E-02 
597	 5.38827432367302E-02 
598	 5.39937757948699E-02 
599	 5.38412401463153E-02 
600	 5.35173214885822E-02 
601	 5.33208047218889E-02 
602	 5.32924992630134E-02 
603	 0.053423163016454 
604	 5.32164172503958E-02 
605	 5.29209116327568E-02 
606	 5.35129179592705E-02 
607	 5.35728748437294E-02 
608	 5.27330692756621E-02 
609	 5.25592714260467E-02 
610	 5.26759552041735E-02 
611	 5.24339251285565E-02 
612	 5.21852705300296E-02 
613	 5.20031130827174E-02 
614	 5.18960990009509E-02 
615	 5.16602069743585E-02 
616	 5.12659517359431E-02 
617	 0.051627033879122 
618	 5.20118216294318E-02 
619	 5.09043260400391E-02 
620	 5.04624295369214E-02 
621	 0.05104505253651 
622	 5.12140612233944E-02 
623	 5.10205644383225E-02 
624	 5.05887304874307E-02 
625	 5.04085828707752E-02 
626	 5.05292064608029E-02 
627	 5.08220155570025E-02 
628	 5.09516067820839E-02 
629	 0.050802847586915 
630	 5.07217086880819E-02 
631	 5.06874351133739E-02 
632	 5.06345997442334E-02 
633	 5.06710666798537E-02 
634	 5.07482721228455E-02 
635	 5.06140004781507E-02 
636	 5.06055652603204E-02 
637	 5.08119027666654E-02 
638	 5.02337338622788E-02 
639	 4.93723413529449E-02 
640	 0.049357239920949 
641	 4.91495721353819E-02 
642	 4.85873346265992E-02 
643	 4.83575541213311E-02 
644	 4.83329753012228E-02 
645	 4.83559375457567E-02 
646	 4.81111879535681E-02 
647	 4.77334487126734E-02 
648	 4.77851921034228E-02 
649	 4.76868073771056E-02 
650	 0.047303935921661 
651	 0.047267035324654 
652	 4.72838466825943E-02 
653	 4.69509321944582E-02 
654	 4.68178583196088E-02 
655	 4.68127754137079E-02 
656	 4.62121253156616E-02 
657	 4.56842038449157E-02 
658	 4.56145462360894E-02 
659	 4.55628573022822E-02 
660	 4.54918612264675E-02 
661	 4.54714764669605E-02 
662	 4.49644424371807E-02 
663	 4.40502136680206E-02 
664	 4.37222539562983E-02 
665	 4.36024237276432E-02 
666	 0.043354983095986 
667	 4.32094602658747E-02 
668	 4.31392856750451E-02 
669	 4.30088825123268E-02 
670	 4.28641291857135E-02 
671	 4.27564736235168E-02 
672	 4.29263950933493E-02 
673	 4.29868531580907E-02 
674	 0.0425000119155 
675	 4.23086912309452E-02 
676	 4.25013740152594E-02 
677	 4.26978271899957E-02 
678	 4.29708694440778E-02 
679	 0.043288211661895 
680	 4.31921929792679E-02 
681	 0.043107616671008 
682	 4.37785618271637E-02 
683	 4.44866593118794E-02 
684	 0.045036098636138 
685	 4.55837259274185E-02 
686	 4.60814272258456E-02 
687	 4.65613887294079E-02 
688	 4.80880678774681E-02 
689	 5.00066703328244E-02 
690	 5.07706380699949E-02 
691	 0.051590349113712 
692	 5.28557249242111E-02 
693	 5.42932138330673E-02 
694	 5.60001783199279E-02 
695	 5.79935886478621E-02 
696	 5.97200550539164E-02 
697	 6.12050136447047E-02 
698	 6.28520137039254E-02 
699	 6.48351385441197E-02 
700	 6.70907141088425E-02 
701	 6.86511166899575E-02 
702	 7.01065171539722E-02 
703	 7.24200115623314E-02 
704	 7.39156555816235E-02 
705	 7.46562694156068E-02 
706	 7.61787972680517E-02 
707	 7.79658466168018E-02 
708	 7.96353490529483E-02 
709	 0.081011808947366 
710	 8.20820567671321E-02 
711	 8.28544285475199E-02 
712	 0.084033555871252 
713	 8.56191775782848E-02 
714	 8.65975918023044E-02 
715	 8.70973988636575E-02 
716	 8.73717037695322E-02 
717	 8.88335494785473E-02 
718	 9.12135460344681E-02 
719	 9.22423572702506E-02 
720	 9.26574805344881E-02 
721	 9.28608059090296E-02 
722	 9.31360563084573E-02 
723	 9.38511943730948E-02 
724	 9.53597800738951E-02 
725	 9.57433169874426E-02 
726	 9.52024559567397E-02 
727	 9.59199393272554E-02 
728	 9.69482738697067E-02 
729	 9.77761612099923E-02 
730	 9.82975631418603E-02 
731	 0.098589742074524 
732	 9.88022582306418E-02 
733	 9.90386005636577E-02 
734	 0.099289369648316 
735	 9.93511928325074E-02 
736	 9.94773860325105E-02 
737	 9.98066883607142E-02 
738	 9.99658816669621E-02 
739	 0.100123845811664 
740	 0.100736924091007 
741	 0.100826237377249 
742	 0.100368789807786 
743	 0.100583475119897 
744	 0.101139076412111 
745	 0.101688283815727 
746	 0.101937172298451 
747	 0.101992246896506 
748	 0.102304357157158 
749	 0.102366182908784 
750	 0.102141656257585 
751	 0.102428691163163 
752	 0.1028192348596 
753	 0.102835177447581 
754	 0.102897102400915 
755	 0.102989069429661 
756	 0.102796668955893 
757	 0.102691775777566 
758	 0.102889756208868 
759	 0.103704924356908 
760	 0.104794268988671 
761	 0.10390353759491 
762	 0.104211549277634 
763	 0.105488191895295 
764	 0.105115681463107 
765	 0.104532336678701 
766	 0.104336053908433 
767	 0.104573315158359 
768	 0.104764705492689 
769	 0.104327788426944 
770	 0.104285149569499 
771	 0.10465943662798 
772	 0.104480003389908 
773	 0.104667004196987 
774	 0.105653490596919 
775	 0.105510546915381 
776	 0.104915362099965 
777	 0.1055776094916 
778	 0.106296009076951 
779	 0.106657888874725 
780	 0.106532169348536 
781	 0.106440034765915 
782	 0.106738116325951 
783	 0.106449818451674 
784	 0.106008318412662 
785	 0.10668150914424 
786	 0.107162816382257 
787	 0.107072956382534 
788	 0.10685706929189 
789	 0.10677250943149 
790	 0.107016642864576 
791	 0.107137848226339 
792	 0.107058414769414 
793	 0.106708612015189 
794	 0.107053640888873 
795	 0.108097733069908 
796	 0.10790957402203 
797	 0.107435607961951 
798	 0.107711484354721 
799	 0.107883863646429 
800	 0.107980220511752 
801	 0.108599643658528 
802	 0.108652775724383 
803	 0.10791634953787 
804	 0.107699565824394 
805	 0.107932156609303 
806	 0.108407235690272 
807	 0.108997568683374 
808	 0.109378545681492 
809	 0.10869850754065 
810	 0.108448140450295 
811	 0.109082116301936 
812	 0.108744182035571 
813	 0.108347861180275 
814	 0.109260869999198 
815	 0.109674619447696 
816	 0.109467653749617 
817	 0.10980357973693 
818	 0.110242854418841 
819	 0.110536537893541 
820	 0.110388107040184 
821	 0.11011665395192 
822	 0.110120951055265 
823	 0.110347039880565 
824	 0.11061900564367 
825	 0.110412472203026 
826	 0.110673246552595 
827	 0.111609715214609 
828	 0.111807773981512 
829	 0.111537869968538 
830	 0.111311473756194 
831	 0.111268941263588 
832	 0.111298094528659 
833	 0.110891510816884 
834	 0.110606593922328 
835	 0.110723509064568 
836	 0.11128421814232 
837	 0.111928249077366 
838	 0.112241824036877 
839	 0.111902654526223 
840	 0.111340522601894 
841	 0.111983118230878 
842	 0.112513568265563 
843	 0.112399103188413 
844	 0.111985283732456 
845	 0.11212894393407 
846	 0.113631176415499 
847	 0.113492442220777 
848	 0.112027364531896 
849	 0.111955106818207 
850	 0.112441676809391 
851	 0.113031296130424 
852	 0.112814781175452 
853	 0.112457506785629 
854	 0.112746700184311 
855	 0.11330799948761 
856	 0.113767865302066 
857	 0.113495609256246 
858	 0.112603091380926 
859	 0.111642631527867 
860	 0.113211545222084 
861	 0.114288122576021 
862	 0.112145661627375 
863	 0.111512888052906 
864	 0.112350737103554 
865	 0.112317826311537 
866	 0.113002537030715 
867	 0.114282582926171 
868	 0.113274856297074 
869	 0.112697120469477 
870	 0.114554692855492 
871	 0.114999939214033 
872	 0.114362230065236 
873	 0.114464840163981 
874	 0.114326914334061 
875	 0.113971124045893 
876	 0.114626287019181 
877	 0.114752606676939 
878	 0.113526602027775 
879	 0.113753195826564 
880	 0.114841724878248 
881	 0.11522467351365 
882	 0.115094969725092 
883	 0.11469665785614 
884	 0.114849389934892 
885	 0.114917870110212 
886	 0.114679095317743 
887	 0.115227438426982 
888	 0.115873961142893 
889	 0.115594229152495 
890	 0.115996361045899 
891	 0.117001151779279 
892	 0.117269944163507 
893	 0.116754825576039 
894	 0.115616527842064 
895	 0.115295836630032 
896	 0.115505471175252 
897	 0.1156942168894 
898	 0.115185762342252 
899	 0.114861841677751 
900	 0.11734558526499 
901	 0.11856355370087 
902	 0.117787444995558 
903	 0.118496502710316 
904	 0.119279818604578 
905	 0.118947781808665 
906	 0.117661691472663 
907	 0.116497646230478 
908	 0.117290431980572 
909	 0.118053173228869 
910	 0.118251870299692 
911	 0.118206068145184 
912	 0.118628273561975 
913	 0.119744395919807 
914	 0.120382849797416 
915	 0.119709735291849 
916	 0.117092774439685 
917	 0.117629495263692 
918	 0.120272395831042 
919	 0.119048203018472 
920	 0.119361132139021 
921	 0.121808838058182 
922	 0.11961785795821 
923	 0.116298763711519 
924	 0.115323640704769 
925	 0.116114212081159 
926	 0.117971830242967 
927	 0.11945026203804 
928	 0.120511510920771 
929	 0.121067719437372 
930	 0.121359830283743 
931	 0.122394432413636 
932	 0.124720731734238 
933	 0.125474967757064 
934	 0.124828068590001 
935	 0.123929217197153 
936	 0.122780833689571 
937	 0.122055215294709 
938	 0.123454825475227 
939	 0.122666734251644 
940	 0.11872665994099 
941	 0.113526489499296 
942	 0.110764638187164 
943	 0.112660894317116 
944	 0.11336193425576 
945	 0.113634063003925 
946	 0.116000473305732 
947	 0.119077574354167 
948	 0.121499517475354 
949	 0.120388605089515 
950	 0.120776891123691 
951	 0.123722166823523 
952	 0.122662777932404 
953	 0.119238761617639 
954	 0.115855637173406 
955	 0.116236310165319 
956	 0.118316344168319 
957	 0.117216586144503 
958	 0.117220037942854 
959	 0.118602023534175 
960	 0.118670390116637 
961	 0.118602981637682 
962	 0.119220759162578 
963	 0.122168107132535 
964	 0.123574586484774 
965	 0.120117370471323 
966	 0.120535497510404 
967	 0.121806503841779 
968	 0.114822031824763 
969	 0.113034041512262 
970	 0.117543719093213 
971	 0.117296979724377 
972	 0.117373797426382 
973	 0.120085245877177 
974	 0.122002548526633 
975	 0.120925588946435 
976	 0.115451418616726 
977	 0.117516080351885 
978	 0.124058589889389 
979	 0.123795750538072 
980	 0.121384339386656 
981	 0.118787813059885 
982	 0.117924698859681 
983	 0.119935925685871 
984	 0.123514803772036 
985	 0.117164069430651 
986	 0.110794314252107 
987	 0.115422335566191 
988	 0.119054132247522 
989	 0.120627362548181 
990	 0.122766932573386 
991	 0.12270712394669 
992	 0.120224887322868 
993	 0.117054293109297 
994	 0.115040237977483 
995	 0.115651471034842 
996	 0.120537618310498 
997	 0.124841406313627 
998	 0.124472125609999 
999	 0.127473626001447 
1000	 0.131728643710823 
1001	 0.131553432648793 
1002	 0.127817754471629 
1003	 0.12254648104597 
1004	 0.121537825642886 
1005	 0.120849136524252 
1006	 0.119880010405134 
1007	 0.124638549407812 
1008	 0.126092136640881 
1009	 0.118579097299893 
1010	 0.117020463771139 
1011	 0.119957243061247 
1012	 0.122468510357566 
1013	 0.129163506842477 
1014	 0.134114285485519 
1015	 0.120321883787816 
1016	 0.117634737781886 
1017	 0.129307633218409 
1018	 0.126961378292387 
1019	 0.121363295273546 
1020	 0.119021982458648 
1021	 0.117224980398219 
1022	 0.11996946037886 
1023	 0.12943742072649 
1024	 0.122125535782348 
1025	 0.112263782827458 
1026	 0.128797852526453 
1027	 0.131748876636142 
1028	 0.120404204379161 
1029	 0.122935129098689 
1030	 0.127842669605502 
1031	 0.130621994633161 
1032	 0.128073625764671 
1033	 0.121810673260148 
1034	 0.114469133845547 
1035	 0.116695528472089 
1036	 0.120831155404322 
1037	 0.117990869882985 
1038	 0.119031292985964 
1039	 0.12172012832807 
1040	 0.11911213344656 
1041	 0.129573712279057 
1042	 0.145968352730744 
1043	 0.134728725196313 
1044	 0.121889789127371 
1045	 0.115867600057175 
1046	 0.114455652921116 
1047	 0.112734436437555 
1048	 0.110869825728645 
1049	 0.131997349795396 
1050	 0.146411865296444 
1051	 0.130850573045411 
1052	 0.125768093625527 
1053	 0.127344786189095 
1054	 0.119719923962122 
1055	 0.121102188272359 
1056	 0.126726151960479 
1057	 0.114475789569344 
1058	 0.119853146085444 
1059	 0.141569982934591 
1060	 0.131034778258092 
1061	 0.118424341971872 
1062	 0.116379737206582 
1063	 0.122132843903395 
1064	 0.124365581939937 
1065	 0.118319411090389 
1066	 0.126240757231203 
1067	 0.142475190377777 
1068	 0.156200870426952 
1069	 0.153600478082678 
1070	 0.137605844889881 
1071	 0.11682011082142 
1072	 0.114726563104071 
1073	 0.126050435413643 
1074	 0.118778217216354 
1075	 0.126485054040048 
