Wavelength	AVE00053.asd
325	 4.74689127406483E-02 
326	 4.42622400197049E-02 
327	 3.95985203824498E-02 
328	 3.38577524021993E-02 
329	 3.47647989745807E-02 
330	 4.22010751282212E-02 
331	 3.96026632078441E-02 
332	 3.74070394999083E-02 
333	 4.55570326324311E-02 
334	 4.31574772818698E-02 
335	 0.035003667093582 
336	 4.06278779065196E-02 
337	 4.40263188958999E-02 
338	 4.14855480622149E-02 
339	 0.03969605780327 
340	 3.77104535371068E-02 
341	 3.48646017968713E-02 
342	 3.52264135543729E-02 
343	 0.037316986541431 
344	 3.75071201039181E-02 
345	 3.66273634978913E-02 
346	 3.57623657676651E-02 
347	 3.84096754022851E-02 
348	 4.00957520607075E-02 
349	 3.81183310296805E-02 
350	 3.59720888529048E-02 
351	 3.48714976794751E-02 
352	 3.57351746150751E-02 
353	 3.73326223953354E-02 
354	 3.85626225796082E-02 
355	 3.74004010856398E-02 
356	 3.48228552487538E-02 
357	 0.03206484691271 
358	 3.33395105061309E-02 
359	 3.59959033170755E-02 
360	 3.55177923154797E-02 
361	 3.48517942831918E-02 
362	 0.034680508105309 
363	 0.034858734409409 
364	 3.50243679002619E-02 
365	 3.48245073565018E-02 
366	 0.033195113210866 
367	 3.18325548944958E-02 
368	 0.033029591920668 
369	 3.50362858304426E-02 
370	 0.036747484906475 
371	 3.59792337494005E-02 
372	 3.58974595062145E-02 
373	 3.76319673627752E-02 
374	 3.61698649514252E-02 
375	 0.034044090422579 
376	 3.52868215304939E-02 
377	 3.58657049415252E-02 
378	 3.52894558084988E-02 
379	 3.51303449203446E-02 
380	 3.53658007025687E-02 
381	 3.59219416382823E-02 
382	 3.64061550644701E-02 
383	 3.61691358988263E-02 
384	 3.44802749686486E-02 
385	 3.41992530786134E-02 
386	 3.55091133607194E-02 
387	 3.66577755775929E-02 
388	 3.76526418229962E-02 
389	 3.79966559581847E-02 
390	 3.49700499256882E-02 
391	 3.24256964352869E-02 
392	 3.48234708724966E-02 
393	 3.75452272827619E-02 
394	 3.89331371798609E-02 
395	 3.76188287192795E-02 
396	 3.58242757519411E-02 
397	 3.48245229131759E-02 
398	 3.57298865093986E-02 
399	 3.58321219320339E-02 
400	 0.032575994339602 
401	 3.24827946960402E-02 
402	 3.48359361856077E-02 
403	 3.50574375286649E-02 
404	 3.50323128160614E-02 
405	 3.53652507268723E-02 
406	 0.035014832094412 
407	 3.46515641866371E-02 
408	 3.51630033833654E-02 
409	 3.58839432141861E-02 
410	 0.036375394477874 
411	 3.58512875792667E-02 
412	 3.54927006944536E-02 
413	 3.57509951574909E-02 
414	 3.56233998503374E-02 
415	 3.51505504694054E-02 
416	 3.45048413964074E-02 
417	 3.45410945600184E-02 
418	 3.52953751095765E-02 
419	 3.63921690501175E-02 
420	 3.65465296543155E-02 
421	 3.53465262820274E-02 
422	 0.035262719658575 
423	 3.58427307520928E-02 
424	 3.60140098820635E-02 
425	 3.58167910066923E-02 
426	 3.54169843858147E-02 
427	 3.53919995542294E-02 
428	 3.57351435370304E-02 
429	 3.63992435755165E-02 
430	 3.72675194971268E-02 
431	 3.75429593601337E-02 
432	 3.59452176844238E-02 
433	 3.55144086732583E-02 
434	 3.65005419999785E-02 
435	 3.65558113343054E-02 
436	 3.62726869286492E-02 
437	 3.60927632906146E-02 
438	 3.60761378344758E-02 
439	 3.63040401015336E-02 
440	 3.69416475678062E-02 
441	 3.70992052365439E-02 
442	 3.66707308995485E-02 
443	 3.64843112489119E-02 
444	 3.64784238598416E-02 
445	 3.65975907989426E-02 
446	 3.71469102915084E-02 
447	 3.77004408658974E-02 
448	 3.71962869705053E-02 
449	 3.69626214343133E-02 
450	 3.73284664773324E-02 
451	 3.74385039061301E-02 
452	 3.75584041561387E-02 
453	 3.79619853709105E-02 
454	 3.80020351251426E-02 
455	 3.77166541080964E-02 
456	 3.75454766764841E-02 
457	 3.74763554966396E-02 
458	 3.75453904490105E-02 
459	 3.78620177282454E-02 
460	 3.81161290390778E-02 
461	 3.79540633794021E-02 
462	 3.80676779806489E-02 
463	 3.84051803240399E-02 
464	 3.82934576031658E-02 
465	 3.82063257148448E-02 
466	 3.83293197658638E-02 
467	 3.81453156880725E-02 
468	 3.78878839297102E-02 
469	 3.79681321237497E-02 
470	 3.81928675863502E-02 
471	 3.84553511036892E-02 
472	 3.85748380817358E-02 
473	 3.87140968567961E-02 
474	 3.89323301276361E-02 
475	 3.88466989065537E-02 
476	 3.85529869775325E-02 
477	 3.82746075588516E-02 
478	 3.83656897724144E-02 
479	 3.87438980030245E-02 
480	 3.85966019078739E-02 
481	 3.82946394242205E-02 
482	 3.81690678172703E-02 
483	 0.038211060725004 
484	 3.84321917050335E-02 
485	 3.88989090013592E-02 
486	 3.90390956991377E-02 
487	 3.87849024938572E-02 
488	 3.90930037969667E-02 
489	 3.94177105689077E-02 
490	 3.91871199640894E-02 
491	 3.94140405008946E-02 
492	 3.99032596697952E-02 
493	 3.95740944944678E-02 
494	 3.93503979450516E-02 
495	 3.95920324226344E-02 
496	 3.98585788600922E-02 
497	 4.00102211793875E-02 
498	 0.039925843982826 
499	 3.98963944116847E-02 
500	 3.99991318825758E-02 
501	 4.01942107545405E-02 
502	 4.04301138445264E-02 
503	 0.040670777954475 
504	 0.040927133452823 
505	 4.12295047573569E-02 
506	 4.16598805783474E-02 
507	 4.16996600499709E-02 
508	 4.13543135585861E-02 
509	 4.11580650193047E-02 
510	 0.041511809608143 
511	 4.26272853178589E-02 
512	 4.33152816167419E-02 
513	 4.35785464056103E-02 
514	 4.39653627559555E-02 
515	 4.41919517072136E-02 
516	 4.43009233416112E-02 
517	 4.49908318380167E-02 
518	 4.56195491411658E-02 
519	 4.54861875723893E-02 
520	 4.56723932435199E-02 
521	 4.63000576503756E-02 
522	 4.71375647589815E-02 
523	 4.76602180321902E-02 
524	 4.77219684323162E-02 
525	 4.81927445874131E-02 
526	 4.88806768663583E-02 
527	 4.93796126987707E-02 
528	 4.97996474824111E-02 
529	 5.00809702309179E-02 
530	 4.99639705594164E-02 
531	 4.98714839556552E-02 
532	 5.00891399755247E-02 
533	 0.050433560414887 
534	 5.08171013377965E-02 
535	 5.11336119394234E-02 
536	 0.051412077888027 
537	 5.16691510173413E-02 
538	 5.19764839185583E-02 
539	 5.21779482397741E-02 
540	 0.052145497715129 
541	 5.24062478779124E-02 
542	 5.28440713965919E-02 
543	 5.28405420098743E-02 
544	 5.29537318148436E-02 
545	 5.33498052796652E-02 
546	 5.34938738734405E-02 
547	 0.053637345494093 
548	 5.41631784459939E-02 
549	 5.45542706466375E-02 
550	 5.46862863690296E-02 
551	 5.45950454239889E-02 
552	 5.46323555430328E-02 
553	 0.054975328309716 
554	 5.50314930355887E-02 
555	 5.49676653952837E-02 
556	 5.52552567353216E-02 
557	 5.54706298465427E-02 
558	 5.55459626921103E-02 
559	 5.58710604817032E-02 
560	 5.59949043921545E-02 
561	 5.55482173837265E-02 
562	 5.54435156906945E-02 
563	 5.56827333410016E-02 
564	 5.58581035032979E-02 
565	 5.56965982537832E-02 
566	 5.51921967690345E-02 
567	 5.52041487369527E-02 
568	 5.53592085179545E-02 
569	 5.50841302562999E-02 
570	 5.48731682241598E-02 
571	 5.48069136205321E-02 
572	 5.47097241472184E-02 
573	 5.47379680483985E-02 
574	 5.49080827243932E-02 
575	 5.45490634874819E-02 
576	 5.40157947086167E-02 
577	 5.41197967572276E-02 
578	 5.42476119191382E-02 
579	 5.42031426002463E-02 
580	 5.39872760782315E-02 
581	 5.38938106485299E-02 
582	 5.41588212357998E-02 
583	 5.43998815956529E-02 
584	 5.44718167770637E-02 
585	 5.41993167660343E-02 
586	 5.39424571702183E-02 
587	 5.38354778153708E-02 
588	 5.36366404938946E-02 
589	 5.34469379301482E-02 
590	 5.34246828676219E-02 
591	 5.33287851319669E-02 
592	 5.31190522277422E-02 
593	 5.28350016228772E-02 
594	 5.27074139153209E-02 
595	 5.28366199772498E-02 
596	 5.27621602164099E-02 
597	 5.27452745355411E-02 
598	 0.053389632113561 
599	 5.36480329203108E-02 
600	 5.32992954687582E-02 
601	 5.29179772907601E-02 
602	 5.27631329335743E-02 
603	 5.30066789463157E-02 
604	 5.30346701696645E-02 
605	 5.28682732922452E-02 
606	 5.28810014864944E-02 
607	 5.28644115103376E-02 
608	 5.27150012322856E-02 
609	 5.23079622057036E-02 
610	 5.18963522739591E-02 
611	 5.18053162045298E-02 
612	 5.19453878776178E-02 
613	 5.20777305186984E-02 
614	 0.051500822561303 
615	 5.09669057052549E-02 
616	 5.09174157734207E-02 
617	 5.08320669545443E-02 
618	 5.07029340494904E-02 
619	 5.06428323197888E-02 
620	 0.050503514961506 
621	 5.03380488692005E-02 
622	 5.06201341966128E-02 
623	 5.07303036039026E-02 
624	 5.01519323477531E-02 
625	 4.98508233683949E-02 
626	 4.98930784290335E-02 
627	 4.99090957326122E-02 
628	 5.01253777707084E-02 
629	 5.04988613160039E-02 
630	 5.03762696681645E-02 
631	 5.00137554459808E-02 
632	 4.98039288213974E-02 
633	 4.95482757775026E-02 
634	 4.93431529624351E-02 
635	 4.96019838079633E-02 
636	 4.99205433151408E-02 
637	 4.99947517272633E-02 
638	 4.95319492184733E-02 
639	 4.89363993564429E-02 
640	 0.049003399098065 
641	 4.88608524113391E-02 
642	 4.83697701247605E-02 
643	 4.81170122557435E-02 
644	 4.80769094352949E-02 
645	 4.81676643318721E-02 
646	 4.78343591499871E-02 
647	 4.72051978047017E-02 
648	 4.68710963183381E-02 
649	 4.67963368343895E-02 
650	 4.69023175392142E-02 
651	 4.67193614038483E-02 
652	 4.64088678095981E-02 
653	 4.62127304629047E-02 
654	 4.62307806661739E-02 
655	 4.63901218315929E-02 
656	 4.63867056869719E-02 
657	 4.60384599050594E-02 
658	 4.53553668607231E-02 
659	 4.49942991855237E-02 
660	 4.49001904662706E-02 
661	 4.49075589612073E-02 
662	 4.43574742597582E-02 
663	 4.33473796933145E-02 
664	 4.31530527480408E-02 
665	 4.32590731103665E-02 
666	 4.31738001715721E-02 
667	 4.27498227855038E-02 
668	 4.22220863397334E-02 
669	 4.22545204891972E-02 
670	 4.22243880153646E-02 
671	 4.20062469987941E-02 
672	 4.23047033258554E-02 
673	 4.24652165664881E-02 
674	 4.17241266832133E-02 
675	 4.16342648296668E-02 
676	 4.21807185435343E-02 
677	 4.21265528700677E-02 
678	 4.22969712268263E-02 
679	 4.29806672535455E-02 
680	 4.29478570184428E-02 
681	 0.04266265936709 
682	 4.30735975638258E-02 
683	 4.36047748669117E-02 
684	 0.044206454167409 
685	 4.54169956401873E-02 
686	 4.64600548284544E-02 
687	 4.66865064059022E-02 
688	 4.75556452953073E-02 
689	 4.89415636418441E-02 
690	 5.01285681338628E-02 
691	 5.12113889559669E-02 
692	 5.22660187264051E-02 
693	 5.33952731003041E-02 
694	 5.49381622166672E-02 
695	 5.71326934081944E-02 
696	 5.91785474231162E-02 
697	 6.09186884336326E-02 
698	 6.24344901255499E-02 
699	 6.43621496240183E-02 
700	 6.67540061452074E-02 
701	 6.77497952100553E-02 
702	 6.86367993084947E-02 
703	 7.14342295481206E-02 
704	 0.073523145723947 
705	 7.46331813937263E-02 
706	 7.61033030595763E-02 
707	 7.75751424477408E-02 
708	 7.88474651013045E-02 
709	 8.02298646595507E-02 
710	 8.16275742509532E-02 
711	 8.28098711112607E-02 
712	 8.38624189294433E-02 
713	 8.48521749298903E-02 
714	 8.60404924646515E-02 
715	 8.70031223929111E-02 
716	 8.74375382656931E-02 
717	 0.088782943122389 
718	 9.07911464566039E-02 
719	 9.13581798990082E-02 
720	 9.16216025326249E-02 
721	 9.20272834690875E-02 
722	 9.23492637265935E-02 
723	 9.29959058319012E-02 
724	 9.44018828708349E-02 
725	 9.52989428934947E-02 
726	 9.55306860863892E-02 
727	 9.58318361668445E-02 
728	 9.63486957606438E-02 
729	 9.71069561079766E-02 
730	 9.75453513406111E-02 
731	 9.78210941711039E-02 
732	 9.82424910968334E-02 
733	 9.86590077359487E-02 
734	 9.89788455353395E-02 
735	 9.89366981982575E-02 
736	 9.89920371705936E-02 
737	 9.94209808156245E-02 
738	 9.97650432526258E-02 
739	 9.99794390739239E-02 
740	 0.100119138937975 
741	 0.100113104358391 
742	 0.100061823763288 
743	 0.10043546323122 
744	 0.100841679601072 
745	 0.10095478854639 
746	 0.10111501647724 
747	 0.101395702792952 
748	 0.101869665898217 
749	 0.102151761975719 
750	 0.102132110488211 
751	 0.102124452982451 
752	 0.102111824816167 
753	 0.102070834380676 
754	 0.102511808925512 
755	 0.103099458941113 
756	 0.102537403102646 
757	 0.102272213606305 
758	 0.102906037513501 
759	 0.103363309386262 
760	 0.103796158962427 
761	 0.104394582466628 
762	 0.104871513303689 
763	 0.105037694923724 
764	 0.104596998650006 
765	 0.104315200899808 
766	 0.104433582445236 
767	 0.104670950237768 
768	 0.104729845207083 
769	 0.104262019844278 
770	 0.103898856171188 
771	 0.103842286286601 
772	 0.104123375185113 
773	 0.104623494182356 
774	 0.105167299045048 
775	 0.105008368788796 
776	 0.104741212204267 
777	 0.105654177043887 
778	 0.106175244394531 
779	 0.105967305604332 
780	 0.105774506183857 
781	 0.105755392445087 
782	 0.105975934709373 
783	 0.105799701943078 
784	 0.105488463381679 
785	 0.105827363614366 
786	 0.106129625677145 
787	 0.106212840852459 
788	 0.106382188746234 
789	 0.106543602838619 
790	 0.106596169910753 
791	 0.106554120082666 
792	 0.106461636993098 
793	 0.106319020869401 
794	 0.106828204752172 
795	 0.107856089231357 
796	 0.107337700469652 
797	 0.106674245557878 
798	 0.107323004462877 
799	 0.107699754416849 
800	 0.107705036565284 
801	 0.107971370524491 
802	 0.107875252620141 
803	 0.107362468775648 
804	 0.10743947239513 
805	 0.107865743404356 
806	 0.108275405623392 
807	 0.108300775533499 
808	 0.108073445765297 
809	 0.108186705489398 
810	 0.108605559243271 
811	 0.109140973286373 
812	 0.108580684707698 
813	 0.107977484689695 
814	 0.108823916717172 
815	 0.109334255131797 
816	 0.109184038795944 
817	 0.108823338815369 
818	 0.109055133071536 
819	 0.110023660121301 
820	 0.110447644396117 
821	 0.110219705146196 
822	 0.109381111972815 
823	 0.110225764046283 
824	 0.112014817987643 
825	 0.111127524430328 
826	 0.110661407195613 
827	 0.111671918860067 
828	 0.112072660333316 
829	 0.111948437649664 
830	 0.11165154048023 
831	 0.111564919375725 
832	 0.111595194301803 
833	 0.111103851955538 
834	 0.110808210999993 
835	 0.111041403371946 
836	 0.111776957576125 
837	 0.112377069777299 
838	 0.112156557659854 
839	 0.111645449906616 
840	 0.111221397431634 
841	 0.11153087995044 
842	 0.112099668511697 
843	 0.112581073446524 
844	 0.112265891766374 
845	 0.112112303856186 
846	 0.11316428867478 
847	 0.112977422874073 
848	 0.111650819648592 
849	 0.110808055394511 
850	 0.110997945217232 
851	 0.112209741442961 
852	 0.112413589806042 
853	 0.11247142963733 
854	 0.11338614300531 
855	 0.113196032605189 
856	 0.112251833887262 
857	 0.112409778894331 
858	 0.112198275310141 
859	 0.111510822262558 
860	 0.112368864091508 
861	 0.113179756185194 
862	 0.112482684779982 
863	 0.112950292258478 
864	 0.11402382287847 
865	 0.113163358583116 
866	 0.112813012511423 
867	 0.113417100782052 
868	 0.112748438892378 
869	 0.112770356569501 
870	 0.114857234956528 
871	 0.115753253700214 
872	 0.11541582084119 
873	 0.114783794474362 
874	 0.114272647835273 
875	 0.114113823395129 
876	 0.114418469649047 
877	 0.114283590600511 
878	 0.113322802549992 
879	 0.114025727116741 
880	 0.115277310565407 
881	 0.114761859558252 
882	 0.114365600756627 
883	 0.114481442502307 
884	 0.114628931835722 
885	 0.114750881863908 
886	 0.114869405962868 
887	 0.115526510038299 
888	 0.116018343297295 
889	 0.115389796574538 
890	 0.115333158841474 
891	 0.11610701115209 
892	 0.117246927471803 
893	 0.117936057813943 
894	 0.117762186026065 
895	 0.117243333930108 
896	 0.117062092825043 
897	 0.11785518001192 
898	 0.117584096001543 
899	 0.116425958958275 
900	 0.115830964610171 
901	 0.115968745200043 
902	 0.116935552577401 
903	 0.118773580937126 
904	 0.120083544873018 
905	 0.119642564553145 
906	 0.11624228334591 
907	 0.113279423228905 
908	 0.116970807077687 
909	 0.120000230116357 
910	 0.120500876540963 
911	 0.120544576927733 
912	 0.120005854659097 
913	 0.119047748866896 
914	 0.118424653657502 
915	 0.118561865086986 
916	 0.119787245206709 
917	 0.121287987670583 
918	 0.122285829639329 
919	 0.12173816289723 
920	 0.119137995588771 
921	 0.115538972685027 
922	 0.116718755988675 
923	 0.118577649274368 
924	 0.117352078972368 
925	 0.116102555830386 
926	 0.116787184810124 
927	 0.122780832850713 
928	 0.124349286617084 
929	 0.119825023254275 
930	 0.121485843839651 
931	 0.123311224639442 
932	 0.121183397135269 
933	 0.124427977749117 
934	 0.129136207479115 
935	 0.127728565018143 
936	 0.123749375329601 
937	 0.121120247107652 
938	 0.127701195934249 
939	 0.129817301677451 
940	 0.124155316852605 
941	 0.116984984095132 
942	 0.11381785890795 
943	 0.118027470101677 
944	 0.123063794583423 
945	 0.12514992800942 
946	 0.119836231553754 
947	 0.120638395517758 
948	 0.126238788103489 
949	 0.120598039921756 
950	 0.115957744491679 
951	 0.117347054931576 
952	 0.120869088768391 
953	 0.122405462596906 
954	 0.119160193608964 
955	 0.120812088970224 
956	 0.125517843866255 
957	 0.127292312452499 
958	 0.124858647781641 
959	 0.119896079934193 
960	 0.118757960015626 
961	 0.119283963995075 
962	 0.119918418490086 
963	 0.117807778880067 
964	 0.117668096611256 
965	 0.123599328535764 
966	 0.126673804938368 
967	 0.12589144325988 
968	 0.122241939609038 
969	 0.117663227853987 
970	 0.114261143489311 
971	 0.115704444523944 
972	 0.119507295263261 
973	 0.123253478629351 
974	 0.123347637235224 
975	 0.12021434288401 
976	 0.115257182332005 
977	 0.116439984064661 
978	 0.122024025431447 
979	 0.124993820896764 
980	 0.125994378725099 
981	 0.125177337374598 
982	 0.12319853794282 
983	 0.122388556623753 
984	 0.122917043869411 
985	 0.116740444627269 
986	 0.111349736170175 
987	 0.115095190650223 
988	 0.121216832642591 
989	 0.125004830655123 
990	 0.119852443695191 
991	 0.120650288015708 
992	 0.127295789607096 
993	 0.122768119071917 
994	 0.117823481925614 
995	 0.118379112557477 
996	 0.123697065558133 
997	 0.128868727061612 
998	 0.12957841282033 
999	 0.130528286759509 
1000	 0.131674536599111 
1001	 0.131760889675017 
1002	 0.127328032108715 
1003	 0.120723098394882 
1004	 0.122650324244783 
1005	 0.123166859309479 
1006	 0.120484221993446 
1007	 0.128246321920994 
1008	 0.134222711848794 
1009	 0.129659184549906 
1010	 0.127437684334753 
1011	 0.128560926480526 
1012	 0.131735183069237 
1013	 0.136404788468522 
1014	 0.138765292890879 
1015	 0.130044176407742 
1016	 0.127039850482972 
1017	 0.131179997464324 
1018	 0.123313850566844 
1019	 0.120170135765139 
1020	 0.128353648478603 
1021	 0.124546075599206 
1022	 0.120479332397031 
1023	 0.127700411698235 
1024	 0.11990502385583 
1025	 0.108593536524728 
1026	 0.118884278510525 
1027	 0.126034570998596 
1028	 0.128250859304638 
1029	 0.139557605883523 
1030	 0.139063693651285 
1031	 0.126046113947416 
1032	 0.130953027718318 
1033	 0.135079593870337 
1034	 0.127833025493011 
1035	 0.122793577132464 
1036	 0.123185972637135 
1037	 0.12986934815875 
1038	 0.131514557607036 
1039	 0.128953393213072 
1040	 0.12759621326904 
1041	 0.132942474111607 
1042	 0.141609496432031 
1043	 0.139622513152325 
1044	 0.134994656831401 
1045	 0.131208996103671 
1046	 0.132302789985768 
1047	 0.131610217274108 
1048	 0.126937429564533 
1049	 0.132194760362281 
1050	 0.140459110334768 
1051	 0.144650736763077 
1052	 0.142212165281577 
1053	 0.136522891832379 
1054	 0.133665965323814 
1055	 0.130816087710753 
1056	 0.126833866331521 
1057	 0.119474393968407 
1058	 0.117945903037571 
1059	 0.127351267926926 
1060	 0.155965486616889 
1061	 0.15861299742301 
1062	 0.125172050032652 
1063	 0.123122696835434 
1064	 0.129780592196981 
1065	 0.125743538873045 
1066	 0.114465230561361 
1067	 0.105151304782651 
1068	 0.108635854044103 
1069	 0.145342935118993 
1070	 0.171990943349341 
1071	 0.120023452314589 
1072	 0.122518143676746 
1073	 0.170821843251089 
1074	 0.156434801812792 
1075	 0.142425549476977 
