Wavelength	AVEI200382.asd
325	 4.82299722699584E-02 
326	 5.52515532840471E-02 
327	 6.32405507186447E-02 
328	 4.86187364507887E-02 
329	 3.83350521262442E-02 
330	 4.07932842815876E-02 
331	 4.22862025184966E-02 
332	 0.043379101858209 
333	 4.54816089652797E-02 
334	 4.76397169986639E-02 
335	 0.048869873979042 
336	 0.047677265479472 
337	 4.33930658206082E-02 
338	 0.037985571437232 
339	 4.08228454548187E-02 
340	 4.40049745597471E-02 
341	 4.12191222895086E-02 
342	 3.84172150661513E-02 
343	 3.78275037761734E-02 
344	 4.21149866577048E-02 
345	 4.29065343780866E-02 
346	 4.00301541787289E-02 
347	 4.24818018815562E-02 
348	 4.37178250719792E-02 
349	 0.040139331177316 
350	 4.16696835523669E-02 
351	 4.50155143720116E-02 
352	 4.33344791259611E-02 
353	 4.02786380264072E-02 
354	 3.80178010495131E-02 
355	 4.10511483570692E-02 
356	 4.27594214983401E-02 
357	 3.97329617997975E-02 
358	 3.84852263684398E-02 
359	 3.94857485216644E-02 
360	 4.22530252007485E-02 
361	 4.16370738187375E-02 
362	 3.85360438759216E-02 
363	 4.07154735025671E-02 
364	 4.19003730393011E-02 
365	 3.95245961209036E-02 
366	 0.039963354890017 
367	 4.11503058101062E-02 
368	 3.95444550871963E-02 
369	 3.89406295968262E-02 
370	 3.96080228895095E-02 
371	 3.94769362177316E-02 
372	 0.038865122134093 
373	 3.81619461667305E-02 
374	 3.90840245556348E-02 
375	 3.98458382435524E-02 
376	 3.78877102278225E-02 
377	 3.87534704889362E-02 
378	 4.15486460780823E-02 
379	 3.90204495631413E-02 
380	 3.65699437109173E-02 
381	 3.68016149803428E-02 
382	 3.75597129168089E-02 
383	 3.83510009979137E-02 
384	 3.88083262348305E-02 
385	 4.02881528969752E-02 
386	 0.041761503011389 
387	 3.93656706850467E-02 
388	 3.71071163227528E-02 
389	 3.68279219897095E-02 
390	 3.76464204447145E-02 
391	 3.86158963705991E-02 
392	 3.87538346869234E-02 
393	 3.69687634428272E-02 
394	 3.46865024802517E-02 
395	 3.66382468710589E-02 
396	 3.77768733785514E-02 
397	 3.62661036864398E-02 
398	 3.44484301863191E-02 
399	 3.40316462310127E-02 
400	 3.62383389419707E-02 
401	 0.036242128239228 
402	 3.46847393620608E-02 
403	 0.035517992517641 
404	 3.56533340169026E-02 
405	 0.034275686247228 
406	 3.46857938481446E-02 
407	 0.035409775898758 
408	 3.43405378284169E-02 
409	 3.46027246444166E-02 
410	 3.56908245527047E-02 
411	 3.40664379765329E-02 
412	 3.29765231553434E-02 
413	 3.37048750078422E-02 
414	 3.38877716038141E-02 
415	 3.36206390876153E-02 
416	 3.33277399728776E-02 
417	 3.34247855841871E-02 
418	 0.033869178676679 
419	 3.42855553289752E-02 
420	 3.40923442096977E-02 
421	 3.32194435234844E-02 
422	 3.36312531091623E-02 
423	 3.43716778265834E-02 
424	 3.37519531080668E-02 
425	 3.33807667739023E-02 
426	 3.35191139838101E-02 
427	 3.35337438666906E-02 
428	 3.37345075285656E-02 
429	 3.41810479487247E-02 
430	 3.37364413089672E-02 
431	 3.29771060104117E-02 
432	 3.30748811678713E-02 
433	 3.35118236053333E-02 
434	 3.38700271273047E-02 
435	 3.31779724647822E-02 
436	 3.27074376326689E-02 
437	 3.32093034076222E-02 
438	 3.33120368758589E-02 
439	 3.31908132838775E-02 
440	 3.35514057335004E-02 
441	 3.37427848023017E-02 
442	 3.36594139927821E-02 
443	 3.37265289662577E-02 
444	 3.37852231852921E-02 
445	 0.033711246522214 
446	 3.37022158427482E-02 
447	 3.37776783647903E-02 
448	 3.39158505461016E-02 
449	 3.40062064498098E-02 
450	 3.40111015227631E-02 
451	 3.39683785280557E-02 
452	 3.39865282127493E-02 
453	 3.41589792275176E-02 
454	 3.42704588915942E-02 
455	 3.42725305641096E-02 
456	 0.034126046625804 
457	 3.41880941655746E-02 
458	 0.03451902679141 
459	 3.45215216252192E-02 
460	 3.43511342069879E-02 
461	 3.42592959641742E-02 
462	 3.45472467153713E-02 
463	 3.49929106449206E-02 
464	 3.46340898622457E-02 
465	 3.45600114682691E-02 
466	 3.51870325507896E-02 
467	 3.51943242067682E-02 
468	 3.48457836431368E-02 
469	 3.47429303871511E-02 
470	 3.48639974086025E-02 
471	 3.50702369026329E-02 
472	 3.48409235279746E-02 
473	 3.46169224692711E-02 
474	 3.46972286471022E-02 
475	 3.51028726258381E-02 
476	 3.54164482838248E-02 
477	 3.49025964182356E-02 
478	 3.46011934793632E-02 
479	 3.48625656838015E-02 
480	 3.57636375910659E-02 
481	 3.63418774766952E-02 
482	 3.58593108335049E-02 
483	 3.51105261968444E-02 
484	 3.46873064957332E-02 
485	 3.56955362061916E-02 
486	 0.036275311031643 
487	 0.03583872781797 
488	 3.54314138698646E-02 
489	 3.52427087633823E-02 
490	 3.53630328936803E-02 
491	 3.52897825119001E-02 
492	 0.035081605231417 
493	 3.51142754416468E-02 
494	 3.55709272874275E-02 
495	 3.63514566222666E-02 
496	 3.63599127407382E-02 
497	 3.59783586114096E-02 
498	 0.035834632060089 
499	 0.036214258443546 
500	 3.69677377609407E-02 
501	 3.73096407917844E-02 
502	 3.74787648037858E-02 
503	 3.76126975027898E-02 
504	 3.76197555955759E-02 
505	 3.76360524389364E-02 
506	 3.78781274326949E-02 
507	 3.82236668801661E-02 
508	 3.86431872885599E-02 
509	 3.92198463935798E-02 
510	 0.039593840429697 
511	 3.95413778078197E-02 
512	 3.99392436682177E-02 
513	 4.06031409477034E-02 
514	 0.040746454592297 
515	 4.08559708789695E-02 
516	 4.11556892268182E-02 
517	 4.18648023652344E-02 
518	 4.26272159119236E-02 
519	 4.30331641244024E-02 
520	 4.29462670729972E-02 
521	 4.28270940293107E-02 
522	 4.40454497853718E-02 
523	 4.47868742635446E-02 
524	 4.44232458685832E-02 
525	 4.47658946159919E-02 
526	 4.55435072088769E-02 
527	 4.61006519766876E-02 
528	 4.64435269140935E-02 
529	 4.66580098395058E-02 
530	 4.71089699569857E-02 
531	 4.76027591204722E-02 
532	 4.80020127258745E-02 
533	 0.048271096932965 
534	 4.85251265987392E-02 
535	 4.90155690148114E-02 
536	 4.93348699566869E-02 
537	 4.94893975080533E-02 
538	 5.01839282085262E-02 
539	 5.07735771241247E-02 
540	 5.06449716581985E-02 
541	 0.050748333578297 
542	 0.051096744537188 
543	 5.11549393659796E-02 
544	 5.14228966855177E-02 
545	 5.20052306152188E-02 
546	 5.22082965912919E-02 
547	 5.22678474774193E-02 
548	 5.25713568718219E-02 
549	 5.28626469464283E-02 
550	 5.31281993598959E-02 
551	 0.05357361138353 
552	 0.053789231834614 
553	 5.36192139472673E-02 
554	 5.41304532468469E-02 
555	 5.48119043580901E-02 
556	 5.44040764142928E-02 
557	 5.43801776130327E-02 
558	 5.49830858848303E-02 
559	 5.50176721465688E-02 
560	 5.49224047910007E-02 
561	 5.51165944058491E-02 
562	 5.50347389084933E-02 
563	 5.47753977102395E-02 
564	 5.48684912066675E-02 
565	 5.48782363535189E-02 
566	 5.46622263583232E-02 
567	 5.44532502323697E-02 
568	 5.44102736264835E-02 
569	 5.46996434892095E-02 
570	 0.054829171700711 
571	 5.47103642036604E-02 
572	 5.45358330256813E-02 
573	 5.43580115900403E-02 
574	 5.42082466284099E-02 
575	 5.40145536191145E-02 
576	 5.37638808770833E-02 
577	 5.34222207899461E-02 
578	 5.34165831000788E-02 
579	 5.37555831703072E-02 
580	 5.38680742656333E-02 
581	 5.37320958442898E-02 
582	 5.33922622362655E-02 
583	 5.34718818159555E-02 
584	 5.37454859894821E-02 
585	 5.32428442014685E-02 
586	 5.31435656421534E-02 
587	 5.37168073224352E-02 
588	 0.053445399566116 
589	 5.29391348575287E-02 
590	 5.31723170284286E-02 
591	 5.33179175629136E-02 
592	 5.32720260232071E-02 
593	 5.33908952479686E-02 
594	 5.33950317261818E-02 
595	 5.31740797807438E-02 
596	 5.32652292495448E-02 
597	 5.33738710717359E-02 
598	 5.28209343140502E-02 
599	 5.27393220168422E-02 
600	 5.32591400530867E-02 
601	 0.053333664634626 
602	 5.31560784536285E-02 
603	 5.29498100746856E-02 
604	 0.052886105493622 
605	 0.052914150852279 
606	 5.27708390259747E-02 
607	 5.28144441388702E-02 
608	 5.30349865035854E-02 
609	 5.24797138554167E-02 
610	 5.18093703079783E-02 
611	 5.19429284734795E-02 
612	 0.051858720045666 
613	 5.14428442713235E-02 
614	 5.11638685835629E-02 
615	 5.09883737870653E-02 
616	 5.09074753799314E-02 
617	 5.09297065083642E-02 
618	 5.09984203642252E-02 
619	 0.051031583804211 
620	 5.10012977617373E-02 
621	 5.08734631219625E-02 
622	 5.05370227109779E-02 
623	 5.03022819969077E-02 
624	 5.04382973118658E-02 
625	 5.06472270658539E-02 
626	 5.07596459278415E-02 
627	 5.04907445742305E-02 
628	 5.03082496750496E-02 
629	 5.03903566768298E-02 
630	 5.04855246537579E-02 
631	 5.06339715818484E-02 
632	 5.09059531979466E-02 
633	 0.050796075775332 
634	 5.03890895099843E-02 
635	 0.050348096154821 
636	 5.04475798324235E-02 
637	 5.05324918177269E-02 
638	 5.04881173921879E-02 
639	 5.03232460909292E-02 
640	 5.00901871186107E-02 
641	 4.98688123495567E-02 
642	 4.96381273403513E-02 
643	 4.90873182489557E-02 
644	 4.87914290660449E-02 
645	 4.91902949743684E-02 
646	 4.90823431847356E-02 
647	 0.048515198869012 
648	 4.82358898780076E-02 
649	 4.80270743606495E-02 
650	 4.78257293969437E-02 
651	 0.047597106705501 
652	 4.74390981982419E-02 
653	 4.74669072921892E-02 
654	 0.047492999922546 
655	 4.73363319210854E-02 
656	 4.65553018460972E-02 
657	 4.59433346229713E-02 
658	 4.59337364062853E-02 
659	 4.58555571312967E-02 
660	 4.55066126269916E-02 
661	 4.46683027134776E-02 
662	 4.42463587569963E-02 
663	 4.42795698937937E-02 
664	 4.37277179019646E-02 
665	 4.28959938726744E-02 
666	 0.042107510823859 
667	 4.16783719623879E-02 
668	 4.16133438685301E-02 
669	 4.18421186174489E-02 
670	 4.16829895635707E-02 
671	 4.10168340767443E-02 
672	 4.08891708760086E-02 
673	 4.09599423663444E-02 
674	 0.040751312510548 
675	 4.07837999320696E-02 
676	 4.10437941505537E-02 
677	 4.11525353017483E-02 
678	 4.12476992507354E-02 
679	 4.13926068647264E-02 
680	 4.14504071009028E-02 
681	 4.17143210055213E-02 
682	 4.26793389129359E-02 
683	 0.043243322468002 
684	 4.34060707809989E-02 
685	 4.45484772426785E-02 
686	 4.59483465971478E-02 
687	 4.69978731792005E-02 
688	 4.88038075278557E-02 
689	 5.09969524353711E-02 
690	 5.27710645322626E-02 
691	 5.42560902727235E-02 
692	 5.56741215016557E-02 
693	 0.057692398731946 
694	 6.00171569183897E-02 
695	 6.22173540588735E-02 
696	 6.45612532530103E-02 
697	 6.68760311370154E-02 
698	 0.068596190418038 
699	 7.07453425607592E-02 
700	 7.35902198796081E-02 
701	 7.55232159638491E-02 
702	 7.70793920553913E-02 
703	 7.92507959056741E-02 
704	 8.11520671103209E-02 
705	 8.28429061331592E-02 
706	 8.52603538605441E-02 
707	 8.72703899713248E-02 
708	 8.82619594478967E-02 
709	 0.089780741329164 
710	 9.16471994726508E-02 
711	 9.31253351816631E-02 
712	 9.44708026969752E-02 
713	 9.57884968710404E-02 
714	 9.72967921132655E-02 
715	 9.87619057080655E-02 
716	 0.100010620482618 
717	 0.100874165287571 
718	 0.10154045345933 
719	 0.102526562784075 
720	 0.104008957605642 
721	 0.10569063908011 
722	 0.106545050622931 
723	 0.107091567169116 
724	 0.107862893707432 
725	 0.108838751107156 
726	 0.109786597759763 
727	 0.11018349738686 
728	 0.110593697512011 
729	 0.111298496631539 
730	 0.112063692671939 
731	 0.112790985123447 
732	 0.113381442991575 
733	 0.114116836244383 
734	 0.11491501141749 
735	 0.11522717169966 
736	 0.115481192839565 
737	 0.115965584588794 
738	 0.116594881953286 
739	 0.117342536839144 
740	 0.118223180813935 
741	 0.118626351948708 
742	 0.118459727359759 
743	 0.11814726974714 
744	 0.118293717445188 
745	 0.119311776431451 
746	 0.120008672458553 
747	 0.120212750939105 
748	 0.119983626085772 
749	 0.120283953884368 
750	 0.121283113477797 
751	 0.121644031894143 
752	 0.121815190811589 
753	 0.122346855595502 
754	 0.12244286951575 
755	 0.122291184969371 
756	 0.122934702156169 
757	 0.123163563481155 
758	 0.122604476073696 
759	 0.123190418660125 
760	 0.124835700483083 
761	 0.124827700864518 
762	 0.124125667843297 
763	 0.123805171905116 
764	 0.125013050781035 
765	 0.125834233667796 
766	 0.125734810258448 
767	 0.125739437725178 
768	 0.126007048393278 
769	 0.126667917135255 
770	 0.127028041053813 
771	 0.127008227856468 
772	 0.126963634909392 
773	 0.127245350806392 
774	 0.128004806737529 
775	 0.128384738291857 
776	 0.128429493737136 
777	 0.12845102911458 
778	 0.128592997707498 
779	 0.128929181260691 
780	 0.129478560707798 
781	 0.129944872912799 
782	 0.130119136054431 
783	 0.130411459231431 
784	 0.130768461895817 
785	 0.130906790905804 
786	 0.13124303097207 
787	 0.131771823081663 
788	 0.131743400986536 
789	 0.131711820394085 
790	 0.132209598102559 
791	 0.132873795544983 
792	 0.133332993508141 
793	 0.132849987900893 
794	 0.132404836175197 
795	 0.132508264597487 
796	 0.133686416587524 
797	 0.134674377803099 
798	 0.13426211132143 
799	 0.133947608838988 
800	 0.134039735601974 
801	 0.134534006294072 
802	 0.134915994665084 
803	 0.13502952349045 
804	 0.13538657401114 
805	 0.135787314055629 
806	 0.135984145415425 
807	 0.136074141869432 
808	 0.136202209422881 
809	 0.136735437580433 
810	 0.137169503026177 
811	 0.137314174422103 
812	 0.137544441596647 
813	 0.137754042802474 
814	 0.137784756220755 
815	 0.138534789233113 
816	 0.139752909190584 
817	 0.139910257880711 
818	 0.140180805626857 
819	 0.140777958294295 
820	 0.139718922418647 
821	 0.138973099355219 
822	 0.140932048772816 
823	 0.142114342868131 
824	 0.141952463851291 
825	 0.14130515673573 
826	 0.141306382443008 
827	 0.142348006470076 
828	 0.143265880995357 
829	 0.143457139675705 
830	 0.142423359525879 
831	 0.142558705675348 
832	 0.14370288613413 
833	 0.143791272630581 
834	 0.143481442423783 
835	 0.143176250805024 
836	 0.14361024185789 
837	 0.144165607781331 
838	 0.144109454700547 
839	 0.144733213547277 
840	 0.145765338352364 
841	 0.145758237222337 
842	 0.145272036667779 
843	 0.144696019387888 
844	 0.144765674056096 
845	 0.145221953770892 
846	 0.145683630299052 
847	 0.146137726593714 
848	 0.146407411586675 
849	 0.146078006969883 
850	 0.145604196110566 
851	 0.145379434121156 
852	 0.146275037899131 
853	 0.147402326474465 
854	 0.147685714160267 
855	 0.146699980525371 
856	 0.145462757520575 
857	 0.146764551079145 
858	 0.147476915573291 
859	 0.146858080458768 
860	 0.146944940642066 
861	 0.147388022383149 
862	 0.14775053208825 
863	 0.148103343362435 
864	 0.148440529743263 
865	 0.148774714230127 
866	 0.148895519002421 
867	 0.148816183228939 
868	 0.148832355241748 
869	 0.149410976803017 
870	 0.150720284255556 
871	 0.150636206575223 
872	 0.149986319887449 
873	 0.151054262179819 
874	 0.151555713471705 
875	 0.151068121981115 
876	 0.150622219522648 
877	 0.151248864144982 
878	 0.153339921764256 
879	 0.15393724989103 
880	 0.153516314993903 
881	 0.153543294021015 
882	 0.154166092598321 
883	 0.155223828813544 
884	 0.155925523543996 
885	 0.156132251188267 
886	 0.155858482959941 
887	 0.155758796281679 
888	 0.156078604695917 
889	 0.157008082190404 
890	 0.158508162427002 
891	 0.160004178918394 
892	 0.160004661889786 
893	 0.158994210022966 
894	 0.157632854935575 
895	 0.158469607995922 
896	 0.159839313838649 
897	 0.159594288131854 
898	 0.160241237991177 
899	 0.161567605872783 
900	 0.161719255698779 
901	 0.162452464918613 
902	 0.163632696326039 
903	 0.162027561330178 
904	 0.16080999045754 
905	 0.162225482414825 
906	 0.162063126247747 
907	 0.161429895397311 
908	 0.163395482934496 
909	 0.164262397031806 
910	 0.163668287315573 
911	 0.164772565651795 
912	 0.165006543521639 
913	 0.163449567585693 
914	 0.164179550065435 
915	 0.16620630846711 
916	 0.16774294457145 
917	 0.167030032892472 
918	 0.164818732552425 
919	 0.163900805750809 
920	 0.164536418499233 
921	 0.166584735491303 
922	 0.16853269465983 
923	 0.169573216237529 
924	 0.169117969803203 
925	 0.16816251551291 
926	 0.167560488292555 
927	 0.168768344988629 
928	 0.16915711193723 
929	 0.167814898888883 
930	 0.165692001546716 
931	 0.164094899310981 
932	 0.163726325051067 
933	 0.159587745017229 
934	 0.155654729662846 
935	 0.158641758964674 
936	 0.163321848652351 
937	 0.166823999508981 
938	 0.165505848685616 
939	 0.165402687288437 
940	 0.167826477449621 
941	 0.168882443676908 
942	 0.170155569838251 
943	 0.172231079947546 
944	 0.168964582445769 
945	 0.16302578077192 
946	 0.159950915078958 
947	 0.158847856978196 
948	 0.158888527618483 
949	 0.157596524374286 
950	 0.156958328443065 
951	 0.157948241388056 
952	 0.160877325946297 
953	 0.16397392155773 
954	 0.165173583901441 
955	 0.15984097766029 
956	 0.153470712464545 
957	 0.157256924371259 
958	 0.161692141615402 
959	 0.163020795990989 
960	 0.157435355498692 
961	 0.153681038535686 
962	 0.15548394063201 
963	 0.157043379141542 
964	 0.158486940306874 
965	 0.160489927984093 
966	 0.164982157838077 
967	 0.168894858834874 
968	 0.165724325428544 
969	 0.164266468654047 
970	 0.165610320691444 
971	 0.163198474579503 
972	 0.164096210510234 
973	 0.170052051066369 
974	 0.166417060744969 
975	 0.159535479395835 
976	 0.158065890789017 
977	 0.158678596468667 
978	 0.15999299214156 
979	 0.160355780207266 
980	 0.159605786572901 
981	 0.15831403052603 
982	 0.158456600656598 
983	 0.160853718214298 
984	 0.165326453932081 
985	 0.16856566439949 
986	 0.16861822313858 
987	 0.164507015040906 
988	 0.1652456782737 
989	 0.168164405275693 
990	 0.164393731411784 
991	 0.161964201153847 
992	 0.163261111862033 
993	 0.168657409215182 
994	 0.169043919851935 
995	 0.16225310017214 
996	 0.16607913839521 
997	 0.170868484368689 
998	 0.167062379911691 
999	 0.168286608763506 
1000	 0.173734694588367 
1001	 0.178170968854037 
1002	 0.173697714170452 
1003	 0.16364180117227 
1004	 0.16682141833582 
1005	 0.169076647183754 
1006	 0.166826286473106 
1007	 0.172314282555892 
1008	 0.180047361920508 
1009	 0.184289507625369 
1010	 0.177743656337989 
1011	 0.169189225395116 
1012	 0.17171013242624 
1013	 0.175528317063361 
1014	 0.178289622865277 
1015	 0.180074223139113 
1016	 0.175920584521189 
1017	 0.168130191994877 
1018	 0.171748533407583 
1019	 0.176732221067058 
1020	 0.176773422825219 
1021	 0.172307864421831 
1022	 0.167557646699976 
1023	 0.167171662014614 
1024	 0.173414399496016 
1025	 0.182011186933857 
1026	 0.185912736185069 
1027	 0.183984596175903 
1028	 0.17826202372904 
1029	 0.175542630775338 
1030	 0.175646924657778 
1031	 0.177684706736288 
1032	 0.176774229302069 
1033	 0.177344236254123 
1034	 0.180535496634987 
1035	 0.173624210557774 
1036	 0.167701927246551 
1037	 0.174230590855578 
1038	 0.169615415491181 
1039	 0.164896125678592 
1040	 0.184888914897489 
1041	 0.188816968951232 
1042	 0.177000556710003 
1043	 0.182966462808823 
1044	 0.190804668927521 
1045	 0.195389967126506 
1046	 0.197659948080318 
1047	 0.196452570038792 
1048	 0.192085162290454 
1049	 0.18903445430163 
1050	 0.189608082523153 
1051	 0.194849189487596 
1052	 0.196347938426398 
1053	 0.199125315522333 
1054	 0.211562686301032 
1055	 0.193618110629964 
1056	 0.162428385077372 
1057	 0.186591275926644 
1058	 0.189481627129352 
1059	 0.163513221137626 
1060	 0.176268846921077 
1061	 0.187038533629004 
1062	 0.180420075555129 
1063	 0.166750416211039 
1064	 0.172021058447032 
1065	 0.202769426605072 
1066	 0.174064366773572 
1067	 0.140783305915857 
1068	 0.16870398246307 
1069	 0.185228792596839 
1070	 0.186740983069123 
1071	 0.186708350163629 
1072	 0.185013994318202 
1073	 0.181801053977475 
1074	 0.175531410477423 
1075	 0.177723160210459 
