Wavelength	AVEI200149.asd
325	 4.23625743209085E-02 
326	 3.92521913711205E-02 
327	 0.027298341451455 
328	 0.028484560502363 
329	 3.40551779979611E-02 
330	 0.039064540072175 
331	 3.69072196167753E-02 
332	 3.43316645274438E-02 
333	 3.77883092065867E-02 
334	 0.040190716866224 
335	 4.02703964664198E-02 
336	 3.81654300350787E-02 
337	 3.50182627630614E-02 
338	 3.25646416878974E-02 
339	 3.60913363144966E-02 
340	 0.039482176511111 
341	 3.82009110900534E-02 
342	 0.039390167631539 
343	 4.16448593503954E-02 
344	 4.03929754475711E-02 
345	 3.86018145766989E-02 
346	 3.72652341699816E-02 
347	 3.64914403729773E-02 
348	 3.70143331528743E-02 
349	 3.88534100038515E-02 
350	 3.83734580316031E-02 
351	 3.63680268179279E-02 
352	 3.46565501618629E-02 
353	 3.50479769646349E-02 
354	 3.72751965580311E-02 
355	 3.87743586205202E-02 
356	 3.88135260924637E-02 
357	 3.74745907652589E-02 
358	 3.90528223023161E-02 
359	 4.05220840111303E-02 
360	 0.036688899025475 
361	 3.48204247970475E-02 
362	 3.57966460103435E-02 
363	 3.60851347281683E-02 
364	 0.036240693920517 
365	 3.65741271773127E-02 
366	 0.037449636184349 
367	 3.81420152324191E-02 
368	 3.76822135186142E-02 
369	 3.67604381918752E-02 
370	 3.57457280923592E-02 
371	 3.49361913772187E-02 
372	 3.54658797823003E-02 
373	 3.74589941640025E-02 
374	 3.72913620279991E-02 
375	 3.63549249604067E-02 
376	 3.70642970322741E-02 
377	 3.60796473086487E-02 
378	 3.35715099793371E-02 
379	 3.24140002039745E-02 
380	 3.26332580445972E-02 
381	 3.39313653074945E-02 
382	 3.40569797992813E-02 
383	 3.42142132121007E-02 
384	 3.61940061680378E-02 
385	 3.51320098537394E-02 
386	 3.19524033620803E-02 
387	 3.31741982018178E-02 
388	 3.46184056122219E-02 
389	 3.42999712865009E-02 
390	 3.27485419652596E-02 
391	 3.15627841389857E-02 
392	 3.24325352505204E-02 
393	 3.35528465648995E-02 
394	 3.41698416734757E-02 
395	 3.34105506236677E-02 
396	 3.27792427269539E-02 
397	 3.29442407680615E-02 
398	 3.35970133162821E-02 
399	 3.40978678567429E-02 
400	 3.38840699259547E-02 
401	 3.34033869269065E-02 
402	 3.28761685187272E-02 
403	 3.24877442045418E-02 
404	 3.25360446658164E-02 
405	 0.032944159422938 
406	 3.24607592653766E-02 
407	 0.031822685745765 
408	 3.20465830885777E-02 
409	 3.26453654210583E-02 
410	 3.30948102733978E-02 
411	 3.22101081148181E-02 
412	 3.15296364089549E-02 
413	 3.17286925730776E-02 
414	 3.20318404955926E-02 
415	 3.20875907058244E-02 
416	 3.15614285641127E-02 
417	 3.17022061673409E-02 
418	 3.24310377657152E-02 
419	 3.25905268323251E-02 
420	 3.25263286927705E-02 
421	 3.24252512775609E-02 
422	 3.22775997431108E-02 
423	 3.21108751653838E-02 
424	 3.19483170349968E-02 
425	 3.18988590754994E-02 
426	 0.031946416879536 
427	 3.19084460903181E-02 
428	 3.19401448650962E-02 
429	 3.21383633061522E-02 
430	 3.25470694741989E-02 
431	 3.26434116334412E-02 
432	 3.15432717140358E-02 
433	 3.12411266333006E-02 
434	 3.19025600980536E-02 
435	 3.20098756719093E-02 
436	 3.17887995535028E-02 
437	 3.14571358045732E-02 
438	 3.14580972418997E-02 
439	 3.15997732323318E-02 
440	 3.13848198936654E-02 
441	 3.13292725510978E-02 
442	 3.15586768167006E-02 
443	 3.19825794968461E-02 
444	 3.20908339764655E-02 
445	 3.15560251189456E-02 
446	 3.14192474773307E-02 
447	 3.16641879241751E-02 
448	 3.18646067247829E-02 
449	 3.19521972033067E-02 
450	 3.19076117846248E-02 
451	 0.031899003312249 
452	 0.031873071621262 
453	 3.17800346385379E-02 
454	 3.18922762133072E-02 
455	 0.032067894423831 
456	 3.17376134869466E-02 
457	 3.15894889438994E-02 
458	 3.18392743970648E-02 
459	 3.19147997018088E-02 
460	 3.19461735370364E-02 
461	 3.21353893687821E-02 
462	 3.21131539983249E-02 
463	 3.19312930668635E-02 
464	 3.20295293753803E-02 
465	 3.20303329219028E-02 
466	 3.17833534607672E-02 
467	 3.16640711025546E-02 
468	 3.16866051787695E-02 
469	 3.18068148493231E-02 
470	 3.17483025549707E-02 
471	 3.15690522197131E-02 
472	 3.17622129472875E-02 
473	 3.19651052605941E-02 
474	 3.19614342177147E-02 
475	 3.20774479558196E-02 
476	 3.21011799097641E-02 
477	 3.15582014080301E-02 
478	 3.14804242807226E-02 
479	 3.19666174813099E-02 
480	 0.032050237701309 
481	 3.20214199703686E-02 
482	 3.21140144599198E-02 
483	 3.19767951629804E-02 
484	 3.17521095687257E-02 
485	 3.18800530923705E-02 
486	 3.22052938534687E-02 
487	 3.25186561172287E-02 
488	 3.20597414151538E-02 
489	 3.16055986896492E-02 
490	 3.19558115031441E-02 
491	 3.21448132182762E-02 
492	 3.20933518133004E-02 
493	 3.21349189288308E-02 
494	 3.21064796217688E-02 
495	 3.20205198842853E-02 
496	 3.23377274924826E-02 
497	 3.27706809902074E-02 
498	 3.29024048249506E-02 
499	 3.28493189199367E-02 
500	 3.27448647327139E-02 
501	 0.032937452368034 
502	 3.31589014809556E-02 
503	 3.32578666593376E-02 
504	 3.33998334508778E-02 
505	 3.36641956115954E-02 
506	 3.41520579068229E-02 
507	 3.45877801395242E-02 
508	 3.48903272275187E-02 
509	 0.035093463644195 
510	 0.035372324607193 
511	 3.58482979639745E-02 
512	 3.62741631647265E-02 
513	 0.036567134158671 
514	 3.65667409926064E-02 
515	 3.69805215515557E-02 
516	 3.79253244307253E-02 
517	 3.84604416156649E-02 
518	 3.87811122261436E-02 
519	 3.91801169998902E-02 
520	 3.97250647045877E-02 
521	 4.04596866329085E-02 
522	 4.15327916024501E-02 
523	 0.042257820274781 
524	 4.23948071648763E-02 
525	 4.26583600831808E-02 
526	 4.30813007475126E-02 
527	 4.35871859046485E-02 
528	 4.40560923250415E-02 
529	 4.44765472634105E-02 
530	 4.49297913842981E-02 
531	 4.55780614278508E-02 
532	 0.046452972668407 
533	 4.68155476143011E-02 
534	 4.68138856365663E-02 
535	 4.69302366419108E-02 
536	 4.72425990539809E-02 
537	 4.76899908922011E-02 
538	 4.77439429341727E-02 
539	 4.77946309819703E-02 
540	 4.82251923314616E-02 
541	 4.86283487675424E-02 
542	 4.89122024979861E-02 
543	 4.90560416371253E-02 
544	 4.92448773325309E-02 
545	 4.95445765748265E-02 
546	 4.97902645895272E-02 
547	 4.99972402984023E-02 
548	 5.02042346959236E-02 
549	 5.04396782592787E-02 
550	 5.06708578567127E-02 
551	 5.07396188811522E-02 
552	 5.08981927221235E-02 
553	 5.12593511270486E-02 
554	 5.13461856397465E-02 
555	 5.12441757016671E-02 
556	 5.12142180896252E-02 
557	 5.14244899583509E-02 
558	 5.17993299857465E-02 
559	 5.17014292553442E-02 
560	 5.14578763372218E-02 
561	 5.13998641523544E-02 
562	 5.14399840981013E-02 
563	 5.14961892031551E-02 
564	 5.13985945885078E-02 
565	 5.12345889051459E-02 
566	 5.10433203232577E-02 
567	 5.08501024362343E-02 
568	 5.06436142368901E-02 
569	 5.04041862086246E-02 
570	 0.050067750926051 
571	 4.96993240268967E-02 
572	 4.95527436502533E-02 
573	 4.94337194118038E-02 
574	 4.92362682219239E-02 
575	 4.91857221370897E-02 
576	 0.049109847107419 
577	 4.86428949299647E-02 
578	 4.82117746666534E-02 
579	 4.79961151193213E-02 
580	 4.81005899249017E-02 
581	 4.81789427674142E-02 
582	 4.79303695264033E-02 
583	 4.75795365342453E-02 
584	 4.72963430433647E-02 
585	 4.74359012624881E-02 
586	 4.73812188607169E-02 
587	 4.69754127465031E-02 
588	 4.69873611723548E-02 
589	 4.71068150967043E-02 
590	 4.68409166638039E-02 
591	 4.66784623136082E-02 
592	 4.66515838325041E-02 
593	 4.64347100996217E-02 
594	 4.63367371440549E-02 
595	 4.64881559769636E-02 
596	 4.64035343250365E-02 
597	 4.61765279916028E-02 
598	 4.60751054217289E-02 
599	 4.61059459426283E-02 
600	 4.62114477426912E-02 
601	 0.046109871476366 
602	 4.59470297794069E-02 
603	 0.045858226821466 
604	 4.57125734247439E-02 
605	 4.55860431842631E-02 
606	 0.045759797696201 
607	 4.57555676247468E-02 
608	 4.54254933593797E-02 
609	 4.52051639029084E-02 
610	 4.49922900916374E-02 
611	 4.46124034633426E-02 
612	 4.43385379069033E-02 
613	 4.42233629614346E-02 
614	 4.42213682238441E-02 
615	 4.41040060984955E-02 
616	 0.043788150470746 
617	 0.04389829488679 
618	 4.40634489029825E-02 
619	 4.34807654870142E-02 
620	 4.31218256724413E-02 
621	 4.31771613153145E-02 
622	 4.31026098063836E-02 
623	 4.29834464270208E-02 
624	 4.29204753578286E-02 
625	 4.30380296759144E-02 
626	 4.32086956949449E-02 
627	 4.30703243883889E-02 
628	 4.27794352749731E-02 
629	 4.24724498881458E-02 
630	 4.24985544042271E-02 
631	 4.27609359742494E-02 
632	 4.30898613227105E-02 
633	 4.32501376168144E-02 
634	 4.32060003162841E-02 
635	 4.31375423675953E-02 
636	 4.28479700893929E-02 
637	 4.22693265976516E-02 
638	 4.17668711825349E-02 
639	 4.14546751700682E-02 
640	 0.041455348520966 
641	 4.12156557019783E-02 
642	 4.06343103319533E-02 
643	 4.01640951971552E-02 
644	 3.96408071629712E-02 
645	 3.89238640966467E-02 
646	 3.82742261164883E-02 
647	 3.79237216845373E-02 
648	 3.84071496007028E-02 
649	 3.85437543187306E-02 
650	 3.79952822612323E-02 
651	 3.79789190579253E-02 
652	 3.80768264388866E-02 
653	 0.037680508557644 
654	 3.73183209158037E-02 
655	 0.037158643745456 
656	 3.73547895903174E-02 
657	 3.75635318828768E-02 
658	 3.75277193470847E-02 
659	 3.71477836205612E-02 
660	 3.66531245563299E-02 
661	 3.64052809794907E-02 
662	 3.62300273570948E-02 
663	 3.60363080073328E-02 
664	 0.035674733502013 
665	 3.51666851609299E-02 
666	 3.45814972371728E-02 
667	 3.44938461117027E-02 
668	 3.46355276202805E-02 
669	 3.40081062741852E-02 
670	 0.033898261773098 
671	 3.45329929700433E-02 
672	 3.43531020535804E-02 
673	 3.39462785153433E-02 
674	 3.41185104197795E-02 
675	 3.44905062590415E-02 
676	 3.48397934683816E-02 
677	 3.47658737731118E-02 
678	 3.46170771143812E-02 
679	 3.46145414252397E-02 
680	 3.48500830763803E-02 
681	 3.51737211537984E-02 
682	 3.53170024611718E-02 
683	 3.56923339561143E-02 
684	 3.64093364831606E-02 
685	 3.74332238689014E-02 
686	 3.85839750231306E-02 
687	 3.96995330656401E-02 
688	 4.10862832356165E-02 
689	 4.25187774536925E-02 
690	 4.36085516680899E-02 
691	 0.045125603805466 
692	 4.72346991165372E-02 
693	 4.91324842662843E-02 
694	 5.12641289994205E-02 
695	 5.40015515193518E-02 
696	 5.64756065787401E-02 
697	 5.87942794370004E-02 
698	 6.19218673846308E-02 
699	 6.49005507707022E-02 
700	 6.73731054277893E-02 
701	 7.05791366789499E-02 
702	 7.40630486295421E-02 
703	 7.70306456494668E-02 
704	 7.99668186638488E-02 
705	 8.30155539984742E-02 
706	 8.61465573188094E-02 
707	 8.91722429251359E-02 
708	 9.20065955933048E-02 
709	 9.51399108785567E-02 
710	 9.82576050483571E-02 
711	 0.100670244603615 
712	 0.103168369459438 
713	 0.10589656776464 
714	 0.108390006335427 
715	 0.1107379395176 
716	 0.113147065021084 
717	 0.11522788854537 
718	 0.117279756926529 
719	 0.120162566512595 
720	 0.122600621805706 
721	 0.12419782215277 
722	 0.126176182480039 
723	 0.128253438976928 
724	 0.129895329473335 
725	 0.131582446397854 
726	 0.133163329330565 
727	 0.134262458549814 
728	 0.1353748819974 
729	 0.136746118649732 
730	 0.138167665298714 
731	 0.139379616913574 
732	 0.140069640826035 
733	 0.141037469900269 
734	 0.14232739437294 
735	 0.143343531383516 
736	 0.144370093330214 
737	 0.14551502255009 
738	 0.146395657607811 
739	 0.147038112128407 
740	 0.147600463177493 
741	 0.147891201508472 
742	 0.148079633589628 
743	 0.149034928007356 
744	 0.150083166914149 
745	 0.150649452718921 
746	 0.151096223866667 
747	 0.151520650871213 
748	 0.151998663302016 
749	 0.152582112789415 
750	 0.153191492282057 
751	 0.153274651398891 
752	 0.153397020641126 
753	 0.154162022101506 
754	 0.15466266225867 
755	 0.154882013281236 
756	 0.155359577523352 
757	 0.155688565080628 
758	 0.155741450389355 
759	 0.155878702095025 
760	 0.156310810019455 
761	 0.157025499771502 
762	 0.156876224391679 
763	 0.156427630957793 
764	 0.157473235705553 
765	 0.158559085197072 
766	 0.159129789429967 
767	 0.159476084860329 
768	 0.159808790219228 
769	 0.160326253182658 
770	 0.160766620235338 
771	 0.161072388707578 
772	 0.161271314249903 
773	 0.161543209681723 
774	 0.16199030786798 
775	 0.162360026865913 
776	 0.162683994461141 
777	 0.163094252481158 
778	 0.163516472549111 
779	 0.16385834232509 
780	 0.163823015562591 
781	 0.163903655481605 
782	 0.164462436698781 
783	 0.164912803761867 
784	 0.165213816582627 
785	 0.165507353529705 
786	 0.165738700025857 
787	 0.165868315608885 
788	 0.165712540109615 
789	 0.165775238861838 
790	 0.166485451443564 
791	 0.167022588651824 
792	 0.167311387526776 
793	 0.167618501189372 
794	 0.167711355263021 
795	 0.167570258587226 
796	 0.16742011953096 
797	 0.167561086890166 
798	 0.168227309301301 
799	 0.168632296889336 
800	 0.168703039600749 
801	 0.168691468799472 
802	 0.168677926339287 
803	 0.168829256088545 
804	 0.169676011061638 
805	 0.170614239164759 
806	 0.170976388033908 
807	 0.17102857788774 
808	 0.171021604655309 
809	 0.171512822376533 
810	 0.171981361885189 
811	 0.172178908477934 
812	 0.172148787328758 
813	 0.171967352680931 
814	 0.171760589607258 
815	 0.172246937618795 
816	 0.173265442201396 
817	 0.173645462080249 
818	 0.173905785836737 
819	 0.174322081286983 
820	 0.175233479110605 
821	 0.175857810464307 
822	 0.175289410728457 
823	 0.175531426500208 
824	 0.176614214904374 
825	 0.177323350835238 
826	 0.177793040234377 
827	 0.177965422744991 
828	 0.177197597965974 
829	 0.176594602937939 
830	 0.177511688579166 
831	 0.178328949014387 
832	 0.178709365914576 
833	 0.178798099653562 
834	 0.179072066550895 
835	 0.179663572021438 
836	 0.179916524867343 
837	 0.180191955602013 
838	 0.180928172093879 
839	 0.181368735094376 
840	 0.181458108556904 
841	 0.181450213226444 
842	 0.181808277636883 
843	 0.182560071656112 
844	 0.182570469685674 
845	 0.18217644526783 
846	 0.181893569587609 
847	 0.182289026226645 
848	 0.183061565298556 
849	 0.182994292794616 
850	 0.182730441128363 
851	 0.182580828567579 
852	 0.182802931346892 
853	 0.182935076938178 
854	 0.182541870677768 
855	 0.183260287754255 
856	 0.184509670034024 
857	 0.183996560226012 
858	 0.183975168916626 
859	 0.184845286592855 
860	 0.184455731494157 
861	 0.184171499485492 
862	 0.185222375073978 
863	 0.184542926839085 
864	 0.183350228700982 
865	 0.186065703352808 
866	 0.186723186538905 
867	 0.184490061241579 
868	 0.185656647077429 
869	 0.187544392953003 
870	 0.187827188373031 
871	 0.188144160859671 
872	 0.18843326020193 
873	 0.188067368129203 
874	 0.188496441044341 
875	 0.18983629100012 
876	 0.190706732408765 
877	 0.190895367420371 
878	 0.190417459678797 
879	 0.190585346949784 
880	 0.191170454381067 
881	 0.191442236963186 
882	 0.192795314545694 
883	 0.194788995760934 
884	 0.19465710178084 
885	 0.194406448629471 
886	 0.195140044331763 
887	 0.195902237941238 
888	 0.196743323575998 
889	 0.19782606201368 
890	 0.197283489265386 
891	 0.195554247864507 
892	 0.195309925576478 
893	 0.196129283870137 
894	 0.197467711972879 
895	 0.196752997910923 
896	 0.195512996035551 
897	 0.195903396852738 
898	 0.196893791312911 
899	 0.198095080257384 
900	 0.199283544387711 
901	 0.198771362979338 
902	 0.196955069092664 
903	 0.198295300111088 
904	 0.199211795015045 
905	 0.197263979372202 
906	 0.197911176477586 
907	 0.199862458863505 
908	 0.199442122946582 
909	 0.198351393951509 
910	 0.197443418958854 
911	 0.198060789540222 
912	 0.198738533671156 
913	 0.198652492448958 
914	 0.198622184200916 
915	 0.19923097905824 
916	 0.200915628793903 
917	 0.199041758193297 
918	 0.195458749271764 
919	 0.197656508807831 
920	 0.199467838792154 
921	 0.199140734760158 
922	 0.199387206225787 
923	 0.200039931025059 
924	 0.200642777500223 
925	 0.198631998562357 
926	 0.195622851445851 
927	 0.196313199506856 
928	 0.195458310407865 
929	 0.191957917060682 
930	 0.190951916392505 
931	 0.189451155087286 
932	 0.185703436802707 
933	 0.187878754301068 
934	 0.190015451885829 
935	 0.181916812234037 
936	 0.179875264720106 
937	 0.184225755242477 
938	 0.185327737664096 
939	 0.185282326701512 
940	 0.184078291958278 
941	 0.179227653646706 
942	 0.17830461767149 
943	 0.184966869868465 
944	 0.180766911633292 
945	 0.173728443408795 
946	 0.180098563976901 
947	 0.1773867520915 
948	 0.167143395367972 
949	 0.173624171678179 
950	 0.176015902054568 
951	 0.167528469162152 
952	 0.162644745752984 
953	 0.161481501400269 
954	 0.162878738930714 
955	 0.16497614873368 
956	 0.166825258551931 
957	 0.167942101504692 
958	 0.163619566745515 
959	 0.156474182568623 
960	 0.158149007134766 
961	 0.159175706811118 
962	 0.155918003192594 
963	 0.154763244734519 
964	 0.156005173028024 
965	 0.159261083107508 
966	 0.161987962213304 
967	 0.163333020472427 
968	 0.162731787012326 
969	 0.163057811310959 
970	 0.164648476846718 
971	 0.166126370529792 
972	 0.16344568192885 
973	 0.156253321699779 
974	 0.156804050381377 
975	 0.161608576528733 
976	 0.165159371074224 
977	 0.164076195632399 
978	 0.161165492362722 
979	 0.164217446864144 
980	 0.165024407584191 
981	 0.162734073187927 
982	 0.163396971745856 
983	 0.165179503868099 
984	 0.166348028705734 
985	 0.162848216313549 
986	 0.159677302743158 
987	 0.16240001841519 
988	 0.167421256007327 
989	 0.171298339988269 
990	 0.168650929302323 
991	 0.165405884522159 
992	 0.165200042097319 
993	 0.174465249339797 
994	 0.178818932004541 
995	 0.172528914351047 
996	 0.168947286097027 
997	 0.168597349389851 
998	 0.17078758131697 
999	 0.174552287001548 
1000	 0.17711362933943 
1001	 0.174227889539111 
1002	 0.176993358122336 
1003	 0.183184305313153 
1004	 0.17591203458361 
1005	 0.169930647117256 
1006	 0.171936679627733 
1007	 0.181592405261226 
1008	 0.186341144817486 
1009	 0.17844742588098 
1010	 0.178494010091942 
1011	 0.183376887793452 
1012	 0.184811837001334 
1013	 0.186876765972299 
1014	 0.188263969918261 
1015	 0.183800058241171 
1016	 0.18388841071392 
1017	 0.188643208286355 
1018	 0.183743521793966 
1019	 0.179341365944103 
1020	 0.181445352887495 
1021	 0.188996135389178 
1022	 0.191477612204998 
1023	 0.180778901446813 
1024	 0.182699533107316 
1025	 0.191687153973589 
1026	 0.191617027260919 
1027	 0.191500228026132 
1028	 0.191722344629725 
1029	 0.186844642652731 
1030	 0.185724312173818 
1031	 0.189713738047793 
1032	 0.188822041395865 
1033	 0.188812086309472 
1034	 0.192967512202686 
1035	 0.196663679844559 
1036	 0.199332169446626 
1037	 0.201270693454141 
1038	 0.208612211937202 
1039	 0.212608796135283 
1040	 0.197904135076199 
1041	 0.189700094489127 
1042	 0.192143206708672 
1043	 0.197613586684085 
1044	 0.198944400730861 
1045	 0.194830190293664 
1046	 0.194372568191854 
1047	 0.197121305182449 
1048	 0.200975348248524 
1049	 0.194206432095868 
1050	 0.188486027510127 
1051	 0.194862094398041 
1052	 0.199394983357657 
1053	 0.200332092547989 
1054	 0.198245663582395 
1055	 0.187036074406958 
1056	 0.172396957465519 
1057	 0.172149995983469 
1058	 0.173653694607583 
1059	 0.177202905150823 
1060	 0.199619541847944 
1061	 0.208775440769934 
1062	 0.196851862642863 
1063	 0.205118025731556 
1064	 0.20706133862613 
1065	 0.18500605864218 
1066	 0.160241761138201 
1067	 0.153027922746693 
1068	 0.181300576780863 
1069	 0.18156753617478 
1070	 0.168245817638664 
1071	 0.182251494163367 
1072	 0.175896030271022 
1073	 0.157547634215556 
1074	 0.17688063750385 
1075	 0.195151103502926 
