Wavelength	AVEI200088.asd
325	 2.23100492556895E-02 
326	 2.47364120133704E-02 
327	 3.56259749493563E-02 
328	 2.80825064155922E-02 
329	 2.22172354072575E-02 
330	 2.46184479464131E-02 
331	 2.67849051965272E-02 
332	 2.71823615358737E-02 
333	 2.52705326375094E-02 
334	 2.71912827979729E-02 
335	 3.01982793672231E-02 
336	 2.47048667983947E-02 
337	 0.024132458062711 
338	 2.98711708092977E-02 
339	 0.028343010238575 
340	 2.49143964473315E-02 
341	 2.44753566185442E-02 
342	 2.48233710655657E-02 
343	 2.52484654583293E-02 
344	 2.47953073030351E-02 
345	 2.63562999143981E-02 
346	 2.90869797538792E-02 
347	 2.68880086845512E-02 
348	 2.46403711679268E-02 
349	 2.54524636703842E-02 
350	 2.54244845689291E-02 
351	 2.45018382541883E-02 
352	 2.32471252701252E-02 
353	 2.41967376288396E-02 
354	 2.63156164063072E-02 
355	 2.34172996787842E-02 
356	 2.11746020559186E-02 
357	 2.27218499103553E-02 
358	 0.023679892544754 
359	 2.38132580234557E-02 
360	 2.36366398842903E-02 
361	 2.27378839838226E-02 
362	 2.18165444701344E-02 
363	 2.35397560222154E-02 
364	 2.42365748434865E-02 
365	 2.23377651971879E-02 
366	 2.15479339840687E-02 
367	 2.14190431308485E-02 
368	 0.020821552676248 
369	 2.12904666926379E-02 
370	 2.25792132225813E-02 
371	 2.28527128643044E-02 
372	 2.29552720817688E-02 
373	 2.31655308595983E-02 
374	 0.022242893312563 
375	 2.11183804150304E-02 
376	 2.11853593318789E-02 
377	 2.18678130095477E-02 
378	 2.26646196151375E-02 
379	 2.27216356557429E-02 
380	 2.14371852028378E-02 
381	 1.90747789069521E-02 
382	 1.89356124675681E-02 
383	 2.00809815425055E-02 
384	 2.08596806355289E-02 
385	 2.10287195040379E-02 
386	 2.10024312292373E-02 
387	 2.26354828661809E-02 
388	 2.32681933212827E-02 
389	 2.20161711517284E-02 
390	 2.14343458212251E-02 
391	 2.15003822879804E-02 
392	 2.18713036942072E-02 
393	 2.15455254561901E-02 
394	 2.09627857487243E-02 
395	 2.21416185687473E-02 
396	 2.26880728902625E-02 
397	 2.18614148428831E-02 
398	 2.16523511031072E-02 
399	 2.18198157328993E-02 
400	 2.19156692824718E-02 
401	 2.18748764012545E-02 
402	 2.17351617571674E-02 
403	 2.15990618852014E-02 
404	 2.16999695622429E-02 
405	 2.19735634944273E-02 
406	 2.13876464270865E-02 
407	 2.07089425279824E-02 
408	 2.09550022962623E-02 
409	 2.11516293789046E-02 
410	 2.11875731939601E-02 
411	 2.14498872916806E-02 
412	 2.15032988644526E-02 
413	 2.12773914668489E-02 
414	 2.17841938344388E-02 
415	 2.21859278878395E-02 
416	 2.13156809591192E-02 
417	 2.08656884170956E-02 
418	 2.10603404594764E-02 
419	 2.12917078861319E-02 
420	 2.14135340238124E-02 
421	 0.021324917313626 
422	 2.10001295013037E-02 
423	 2.08018934283656E-02 
424	 2.12369400001511E-02 
425	 2.17104301995269E-02 
426	 2.19008110237996E-02 
427	 2.12730789681333E-02 
428	 2.07432934477416E-02 
429	 2.08834510997415E-02 
430	 2.09875294615392E-02 
431	 2.10954295158428E-02 
432	 2.14519139375757E-02 
433	 2.14347330962592E-02 
434	 2.10695600251407E-02 
435	 2.10624691481278E-02 
436	 2.12250524147198E-02 
437	 2.13953064670487E-02 
438	 2.13555361552554E-02 
439	 2.12552784396577E-02 
440	 0.021450535108258 
441	 2.14309277688369E-02 
442	 2.11951933001567E-02 
443	 2.14033280193896E-02 
444	 2.17179050734055E-02 
445	 2.18264879437285E-02 
446	 2.15401959774997E-02 
447	 2.12349350691707E-02 
448	 2.18519056615041E-02 
449	 2.22093799157993E-02 
450	 2.19892852574002E-02 
451	 0.021784328102748 
452	 2.17558811155169E-02 
453	 2.20123288873289E-02 
454	 2.21989711835932E-02 
455	 2.22469959965114E-02 
456	 2.21951147976376E-02 
457	 2.21218714416968E-02 
458	 0.022097620082002 
459	 0.022269502120804 
460	 2.24138454429325E-02 
461	 2.22646493893056E-02 
462	 2.22891502538458E-02 
463	 2.24699906910025E-02 
464	 2.24003945209164E-02 
465	 0.022355602080549 
466	 2.24625229284524E-02 
467	 2.25829412097586E-02 
468	 2.25931574847226E-02 
469	 2.23390834553884E-02 
470	 2.22880366070315E-02 
471	 2.24466484477569E-02 
472	 2.23554264411725E-02 
473	 2.22193516317437E-02 
474	 2.22112211586088E-02 
475	 0.02261286667462 
476	 2.30974824195467E-02 
477	 2.30613879325423E-02 
478	 2.27425661092104E-02 
479	 2.23615737470024E-02 
480	 2.24820942642994E-02 
481	 2.26825087467017E-02 
482	 2.26254105673172E-02 
483	 2.26876449057301E-02 
484	 2.28163239705848E-02 
485	 2.27198607819579E-02 
486	 2.27462147772119E-02 
487	 2.30315163746146E-02 
488	 2.36007385866199E-02 
489	 2.39054788108002E-02 
490	 2.34537794177518E-02 
491	 0.023432682749243 
492	 2.37887545775927E-02 
493	 2.37190547173541E-02 
494	 2.35411160822576E-02 
495	 2.33977665726032E-02 
496	 0.023336804695738 
497	 2.33106416058844E-02 
498	 2.32463111471417E-02 
499	 2.33390234905386E-02 
500	 2.36049108547688E-02 
501	 2.39631476740135E-02 
502	 2.41710398660644E-02 
503	 2.41035731088461E-02 
504	 2.40923796302226E-02 
505	 2.40795251812371E-02 
506	 2.38599137894209E-02 
507	 2.40270519241764E-02 
508	 2.45636371316084E-02 
509	 2.47284204953055E-02 
510	 2.46191916380091E-02 
511	 2.43870601362968E-02 
512	 2.46897588588311E-02 
513	 2.52003577687835E-02 
514	 2.48521482090572E-02 
515	 2.47054923665476E-02 
516	 0.02507296804229 
517	 2.54631181158463E-02 
518	 2.55657869657621E-02 
519	 2.51358456787929E-02 
520	 2.52795977675693E-02 
521	 2.58683623221642E-02 
522	 2.59159993748831E-02 
523	 2.58794575595007E-02 
524	 2.59696218111779E-02 
525	 0.026187952318396 
526	 2.64114820045129E-02 
527	 2.64612182861212E-02 
528	 2.66082322523343E-02 
529	 2.68437797081125E-02 
530	 2.68644193580463E-02 
531	 0.026981011792141 
532	 2.73730546001839E-02 
533	 2.76991072078649E-02 
534	 2.78482264144688E-02 
535	 2.77079568301334E-02 
536	 2.75672043643189E-02 
537	 2.75656508226063E-02 
538	 2.78171399395039E-02 
539	 2.80439669862648E-02 
540	 2.79839768293804E-02 
541	 0.027905436894011 
542	 0.02793196116284 
543	 2.82249304686655E-02 
544	 2.85816096921091E-02 
545	 2.88647875961122E-02 
546	 2.89167743458196E-02 
547	 2.87616482384224E-02 
548	 2.84520247337468E-02 
549	 2.85666706040493E-02 
550	 2.90565269766843E-02 
551	 2.92260953497577E-02 
552	 2.92638415628227E-02 
553	 2.92938281792753E-02 
554	 2.93393311543481E-02 
555	 2.94267539194828E-02 
556	 2.95867920488192E-02 
557	 2.98122367597291E-02 
558	 2.99728617106006E-02 
559	 2.95201933374087E-02 
560	 2.90824804733783E-02 
561	 2.92524474820724E-02 
562	 2.96991872595666E-02 
563	 3.01629815473259E-02 
564	 3.01668008343465E-02 
565	 3.01504637119651E-02 
566	 3.02542519489766E-02 
567	 3.01424458411352E-02 
568	 3.00386195236875E-02 
569	 3.02563481806051E-02 
570	 3.04270588041918E-02 
571	 3.04627250701064E-02 
572	 3.04073261815753E-02 
573	 3.03735754187028E-02 
574	 3.04370009466836E-02 
575	 3.06019939940032E-02 
576	 3.06806670517079E-02 
577	 3.03091149367023E-02 
578	 0.030261491222341 
579	 3.06454574320057E-02 
580	 3.07324751315786E-02 
581	 3.07658121890182E-02 
582	 3.09645443312277E-02 
583	 3.10110462922944E-02 
584	 3.09163539368011E-02 
585	 0.030808119771515 
586	 3.09283407572132E-02 
587	 3.12773678694385E-02 
588	 0.031121356010954 
589	 0.03082606023946 
590	 3.09637246590454E-02 
591	 3.11278365965643E-02 
592	 3.12428444129224E-02 
593	 3.13988522162373E-02 
594	 3.15910491800111E-02 
595	 0.031783403206034 
596	 0.031702778990063 
597	 3.15653725068696E-02 
598	 0.031816112969679 
599	 3.19385321449384E-02 
600	 3.18781412467511E-02 
601	 3.21498986327106E-02 
602	 3.23363292412125E-02 
603	 3.21042055915975E-02 
604	 3.23140061693618E-02 
605	 3.27116033364937E-02 
606	 3.21648099480648E-02 
607	 3.20903452947405E-02 
608	 3.28432218766391E-02 
609	 3.28686632029682E-02 
610	 3.25293289167669E-02 
611	 3.24599206146067E-02 
612	 3.26103394339938E-02 
613	 3.28926456172451E-02 
614	 3.30007867849548E-02 
615	 3.30981143251409E-02 
616	 3.32621919368999E-02 
617	 3.33215407331455E-02 
618	 3.32498375642835E-02 
619	 3.30057694223321E-02 
620	 0.033201225461092 
621	 3.38064088078368E-02 
622	 0.033819570559386 
623	 3.36958433559727E-02 
624	 3.38600446023539E-02 
625	 3.39315892674104E-02 
626	 3.39336221838186E-02 
627	 3.41041899547578E-02 
628	 0.034230345804556 
629	 3.42695879839444E-02 
630	 3.45597107676565E-02 
631	 3.46970862408163E-02 
632	 3.41697925853996E-02 
633	 3.43112408725748E-02 
634	 3.50513218241583E-02 
635	 3.50435018166795E-02 
636	 0.035058192873189 
637	 3.54705841166492E-02 
638	 3.54653349422503E-02 
639	 3.52527648373291E-02 
640	 0.035384911907538 
641	 3.55421047561876E-02 
642	 0.035598088014277 
643	 3.54165344455771E-02 
644	 3.53071848817566E-02 
645	 3.55263666776516E-02 
646	 3.56397820145251E-02 
647	 3.56601805913107E-02 
648	 3.58533263249216E-02 
649	 3.60449774423158E-02 
650	 3.61393190263703E-02 
651	 3.60607149298508E-02 
652	 3.58500784313907E-02 
653	 0.035566521520237 
654	 3.56619988550025E-02 
655	 3.60439385633889E-02 
656	 3.59105812879961E-02 
657	 3.58612883995255E-02 
658	 3.61817861133933E-02 
659	 3.62308973609372E-02 
660	 3.60784078639037E-02 
661	 0.035944378387842 
662	 3.57505070706661E-02 
663	 3.56096758736883E-02 
664	 3.60239122326926E-02 
665	 3.64403853223413E-02 
666	 3.63851668896591E-02 
667	 0.036071498682516 
668	 3.57750927059591E-02 
669	 3.60587831544213E-02 
670	 3.63774719420817E-02 
671	 3.65070213569829E-02 
672	 3.64199803355518E-02 
673	 3.63984289810817E-02 
674	 3.67528496242718E-02 
675	 3.68129403742282E-02 
676	 3.66167518863399E-02 
677	 3.67265119865941E-02 
678	 3.70584056616341E-02 
679	 3.75183784552696E-02 
680	 3.77508752509882E-02 
681	 3.77801831618713E-02 
682	 3.77127836221329E-02 
683	 3.78202869046449E-02 
684	 3.82236352117281E-02 
685	 3.90782883195806E-02 
686	 3.97761204598429E-02 
687	 3.97863046870564E-02 
688	 3.99633468598972E-02 
689	 4.04956219118269E-02 
690	 4.14555400226536E-02 
691	 4.21473170699701E-02 
692	 4.25154753704734E-02 
693	 4.34635266163532E-02 
694	 4.44763535092953E-02 
695	 4.49489506066015E-02 
696	 4.56506863990823E-02 
697	 4.66725203529411E-02 
698	 4.79637285583176E-02 
699	 4.89131875665173E-02 
700	 4.93252989446057E-02 
701	 5.03249295803564E-02 
702	 5.15719357203358E-02 
703	 5.24296154329469E-02 
704	 5.31913113603903E-02 
705	 5.39834611869715E-02 
706	 5.50093961403192E-02 
707	 5.58106457825676E-02 
708	 5.61881448723081E-02 
709	 5.71944194807329E-02 
710	 5.84375477998859E-02 
711	 5.89147931038292E-02 
712	 5.95319017672567E-02 
713	 6.04386272597535E-02 
714	 6.10565759840504E-02 
715	 6.14663275847329E-02 
716	 6.17904344981334E-02 
717	 6.21336817523307E-02 
718	 6.26972328656156E-02 
719	 6.38814858121898E-02 
720	 6.47153896798912E-02 
721	 6.49643328687867E-02 
722	 6.56380027489574E-02 
723	 0.066394226053262 
724	 6.67573024732038E-02 
725	 6.71761695588614E-02 
726	 6.77452559403417E-02 
727	 6.85449442683478E-02 
728	 6.92220643068028E-02 
729	 6.96000367322355E-02 
730	 6.97954150800581E-02 
731	 7.01976065290165E-02 
732	 7.12859828547532E-02 
733	 7.17652804944025E-02 
734	 7.16920394684373E-02 
735	 7.21959235579043E-02 
736	 7.29315028961177E-02 
737	 7.36373274160588E-02 
738	 7.43127033564685E-02 
739	 7.48542600638263E-02 
740	 7.50827797758218E-02 
741	 7.53923390515602E-02 
742	 7.58712311785806E-02 
743	 7.62791771806502E-02 
744	 0.076728861809836 
745	 7.73042401638422E-02 
746	 7.77142489677882E-02 
747	 7.80103346279849E-02 
748	 7.84452494064543E-02 
749	 7.88766086982104E-02 
750	 7.92724693223732E-02 
751	 7.97414986931523E-02 
752	 8.01470283193276E-02 
753	 8.03460754388877E-02 
754	 8.04482054931667E-02 
755	 8.06234390120494E-02 
756	 8.13032507262988E-02 
757	 8.18309216076894E-02 
758	 8.19217052610415E-02 
759	 0.08169419157184 
760	 8.14566262226645E-02 
761	 8.23669392257896E-02 
762	 8.33140356326401E-02 
763	 8.38382851916987E-02 
764	 8.42830650248425E-02 
765	 8.47504629837305E-02 
766	 8.52035448825696E-02 
767	 8.52692855079132E-02 
768	 8.54864803098269E-02 
769	 8.65204731667413E-02 
770	 8.72396411501796E-02 
771	 8.74249985810174E-02 
772	 8.73195537084874E-02 
773	 8.75385808827878E-02 
774	 8.84262859103353E-02 
775	 8.90770994077968E-02 
776	 8.95280914414352E-02 
777	 9.01326256710516E-02 
778	 9.04354184020961E-02 
779	 9.03969279597284E-02 
780	 9.03659305698949E-02 
781	 0.090695108845543 
782	 9.15737060370104E-02 
783	 9.19703323989041E-02 
784	 9.20668550704044E-02 
785	 9.26500228013193E-02 
786	 9.31342981871301E-02 
787	 9.34110146819782E-02 
788	 9.39596812236795E-02 
789	 9.42443425825353E-02 
790	 9.38490252211602E-02 
791	 9.44195883353486E-02 
792	 9.55308162664178E-02 
793	 9.53196340508286E-02 
794	 9.55972171141527E-02 
795	 9.67090612662795E-02 
796	 9.70069976045732E-02 
797	 9.69440735062904E-02 
798	 9.70868505779126E-02 
799	 9.74491907385658E-02 
800	 9.79596707545736E-02 
801	 9.83904563287323E-02 
802	 9.86654138805786E-02 
803	 9.88579545242616E-02 
804	 9.96057448765127E-02 
805	 0.100409899099958 
806	 0.10070921280866 
807	 0.101036469366355 
808	 0.101268659498467 
809	 0.100572802016282 
810	 0.100707909380882 
811	 0.102112884193224 
812	 0.101984207393992 
813	 0.10141468917031 
814	 0.102168835795503 
815	 0.102431975516975 
816	 0.102305354091228 
817	 0.103610329943165 
818	 0.10475946310964 
819	 0.105071465392189 
820	 0.104980324662555 
821	 0.105078057201082 
822	 0.105982995029978 
823	 0.106514809930859 
824	 0.106788265506776 
825	 0.108112072583541 
826	 0.108774532260461 
827	 0.108352588388297 
828	 0.10891719520058 
829	 0.109657158175442 
830	 0.109386539518286 
831	 0.109801934625556 
832	 0.110752552942404 
833	 0.110638398631057 
834	 0.111042089265441 
835	 0.112429839105836 
836	 0.113515285938636 
837	 0.113868727004196 
838	 0.113221194657383 
839	 0.113980503003658 
840	 0.115773699323909 
841	 0.116035281895327 
842	 0.116009451426077 
843	 0.11610917582526 
844	 0.1155608349132 
845	 0.11547013337625 
846	 0.117022751758874 
847	 0.117798035561564 
848	 0.117626382270767 
849	 0.117525773322337 
850	 0.117958642884741 
851	 0.11892051408857 
852	 0.118812428866121 
853	 0.118554112511178 
854	 0.119204274238824 
855	 0.119237625030993 
856	 0.118991214136439 
857	 0.120036987270179 
858	 0.12113378669364 
859	 0.121795893398881 
860	 0.121904055691988 
861	 0.121955192480293 
862	 0.122382022482576 
863	 0.122224651808333 
864	 0.121906127908452 
865	 0.122779165992285 
866	 0.124024800891296 
867	 0.125021678344971 
868	 0.124388570268636 
869	 0.123945110382954 
870	 0.125082076836152 
871	 0.125584594105797 
872	 0.12587621689545 
873	 0.12749371661659 
874	 0.128353029628419 
875	 0.128105135103377 
876	 0.128043842254172 
877	 0.128458897561678 
878	 0.129472038363905 
879	 0.130358737797302 
880	 0.130922424911906 
881	 0.13105272494479 
882	 0.131273739394133 
883	 0.131732831596315 
884	 0.132348130321155 
885	 0.1328560349124 
886	 0.133128806867554 
887	 0.13335904603851 
888	 0.134034383633659 
889	 0.135717986960008 
890	 0.136333466309548 
891	 0.135764722507074 
892	 0.135213661035086 
893	 0.135796191300155 
894	 0.137425763669103 
895	 0.135209897807949 
896	 0.132735886995801 
897	 0.134703175878126 
898	 0.13695186701385 
899	 0.13842154133264 
900	 0.139072821247719 
901	 0.138876197221607 
902	 0.138208884837333 
903	 0.138434580016068 
904	 0.138856229468314 
905	 0.138946979236429 
906	 0.139476529017685 
907	 0.140178996111799 
908	 0.140397943370024 
909	 0.140928833410456 
910	 0.141356695834386 
911	 0.139053554214644 
912	 0.137994297005463 
913	 0.140155208003366 
914	 0.141842626057097 
915	 0.142235047970701 
916	 0.140977504453367 
917	 0.140758261351837 
918	 0.141516273514328 
919	 0.141150289216663 
920	 0.142095955905094 
921	 0.144602507211015 
922	 0.145945917402069 
923	 0.145205911729991 
924	 0.141895220660143 
925	 0.139243980806108 
926	 0.13814140714334 
927	 0.139084226123964 
928	 0.140290761891344 
929	 0.140589996624964 
930	 0.138681754208167 
931	 0.136181606782752 
932	 0.134242222725863 
933	 0.128459967894378 
934	 0.124806570806522 
935	 0.132297960014012 
936	 0.139138396989702 
937	 0.141126996191379 
938	 0.136222429155008 
939	 0.130738167501944 
940	 0.127629243725076 
941	 0.128098455905323 
942	 0.128761947026826 
943	 0.127803243328527 
944	 0.133611578344981 
945	 0.138003292106175 
946	 0.12659440812875 
947	 0.122747885370002 
948	 0.128795384771391 
949	 0.1327847408651 
950	 0.127931874613598 
951	 0.115687222635299 
952	 0.121396227021038 
953	 0.132141701305431 
954	 0.134971079755673 
955	 0.132835736064106 
956	 0.128634044579288 
957	 0.126761047911771 
958	 0.125577439029313 
959	 0.124747001589705 
960	 0.124451858857935 
961	 0.122469041370311 
962	 0.119485556441416 
963	 0.125087277806761 
964	 0.129809451365802 
965	 0.12481699162525 
966	 0.122623612528323 
967	 0.125556430066362 
968	 0.134081963990647 
969	 0.136389966609748 
970	 0.131511751515182 
971	 0.129592576514178 
972	 0.128231447891095 
973	 0.12730873819475 
974	 0.134951394268762 
975	 0.141774095804692 
976	 0.137598012045443 
977	 0.134528388013545 
978	 0.134086635704379 
979	 0.134371992739941 
980	 0.130859347894592 
981	 0.125911401277029 
982	 0.134083269827007 
983	 0.139588098589148 
984	 0.135051503751451 
985	 0.131916644763461 
986	 0.129870366656335 
987	 0.127941993798833 
988	 0.13335806821383 
989	 0.14151746476651 
990	 0.141479453030979 
991	 0.136217185121456 
992	 0.130764606483196 
993	 0.139944568375617 
994	 0.146876035263872 
995	 0.143489653890031 
996	 0.139087886048274 
997	 0.137207632620973 
998	 0.140159556548457 
999	 0.140779244853947 
1000	 0.140051966903186 
1001	 0.141880713470538 
1002	 0.146682036011519 
1003	 0.151615344918163 
1004	 0.147737493469865 
1005	 0.140671137350106 
1006	 0.135140319953189 
1007	 0.140495800932576 
1008	 0.149619516734244 
1009	 0.155062409555653 
1010	 0.15269136304484 
1011	 0.146277920881752 
1012	 0.142229392868517 
1013	 0.145487549219465 
1014	 0.154598362198213 
1015	 0.164300844339005 
1016	 0.160145721855255 
1017	 0.144191846855396 
1018	 0.145644215385596 
1019	 0.151116920435729 
1020	 0.153573050474126 
1021	 0.162870851419186 
1022	 0.165410785147154 
1023	 0.150095474909075 
1024	 0.149080279176152 
1025	 0.159043491810195 
1026	 0.164817554194917 
1027	 0.154962575410979 
1028	 0.139743490263046 
1029	 0.163585363831852 
1030	 0.172012574178773 
1031	 0.15436920839411 
1032	 0.153861170145998 
1033	 0.160066358724328 
1034	 0.164733835870092 
1035	 0.162089590672853 
1036	 0.157978393027434 
1037	 0.159379284618482 
1038	 0.16503805173899 
1039	 0.16776600641173 
1040	 0.157076502531392 
1041	 0.146742362742076 
1042	 0.146693006768922 
1043	 0.173285657162978 
1044	 0.187681491182099 
1045	 0.176530433329447 
1046	 0.152257571760629 
1047	 0.133123196331056 
1048	 0.131179938494449 
1049	 0.135391592220459 
1050	 0.142358677564395 
1051	 0.149627098007075 
1052	 0.162584428763929 
1053	 0.17497415251192 
1054	 0.177657956948786 
1055	 0.169546860088998 
1056	 0.155364885461545 
1057	 0.147341341897787 
1058	 0.149032717743471 
1059	 0.156933699968395 
1060	 0.153419730491743 
1061	 0.150890140439297 
1062	 0.154682283609302 
1063	 0.163508414162913 
1064	 0.15826056014499 
1065	 0.131907700682915 
1066	 0.132703974821471 
1067	 0.155838932904356 
1068	 0.182789845617478 
1069	 0.171794575306286 
1070	 0.154300581502942 
1071	 0.195544850888484 
1072	 0.184857559600623 
1073	 0.134124816984355 
1074	 0.149120633665763 
1075	 0.130883529404872 
