Wavelength	AVEI200384.asd
325	 4.83815860972244E-02 
326	 5.46841766752397E-02 
327	 5.96003326197598E-02 
328	 5.11800665818154E-02 
329	 4.31723386832727E-02 
330	 0.040726026801221 
331	 4.00623204957791E-02 
332	 0.041406306991742 
333	 4.49657969904336E-02 
334	 4.75378100409068E-02 
335	 4.84017567879288E-02 
336	 4.72900585520991E-02 
337	 4.58979866467347E-02 
338	 4.48945308756317E-02 
339	 0.044622182707813 
340	 4.30295024927714E-02 
341	 3.89568479773422E-02 
342	 3.79074653801643E-02 
343	 4.01645317564974E-02 
344	 4.51030002051724E-02 
345	 4.60755462201416E-02 
346	 4.31679787406155E-02 
347	 0.044480985831598 
348	 4.53516038299372E-02 
349	 4.29715376659954E-02 
350	 4.25096761835281E-02 
351	 4.29572038087991E-02 
352	 4.17008322150131E-02 
353	 4.06417679495865E-02 
354	 4.03505986750596E-02 
355	 4.09184254143327E-02 
356	 4.23890329366962E-02 
357	 4.43155093849518E-02 
358	 4.31730590053896E-02 
359	 4.12959374345401E-02 
360	 0.042758529427242 
361	 4.19017447207006E-02 
362	 3.91834040657151E-02 
363	 4.08662378047635E-02 
364	 4.18351687309322E-02 
365	 4.00606934661523E-02 
366	 4.14520173304987E-02 
367	 4.28818642854174E-02 
368	 3.95319535488803E-02 
369	 3.77256416141569E-02 
370	 3.84323695246032E-02 
371	 3.96090720371358E-02 
372	 4.02993120457882E-02 
373	 4.00422862737555E-02 
374	 4.03828074571041E-02 
375	 4.02131632209611E-02 
376	 3.78898306444448E-02 
377	 3.82038113912381E-02 
378	 4.05296460060178E-02 
379	 3.90629974930988E-02 
380	 3.70891103645178E-02 
381	 3.64969137888423E-02 
382	 3.81304182290444E-02 
383	 3.98486281425489E-02 
384	 3.88188578849623E-02 
385	 3.91208600454854E-02 
386	 4.06744084775579E-02 
387	 4.03195777367652E-02 
388	 3.92167214121526E-02 
389	 3.80919415065394E-02 
390	 3.77203073091738E-02 
391	 0.038189176195741 
392	 0.039442449536128 
393	 3.87317721905633E-02 
394	 3.66617495634938E-02 
395	 3.66606361750147E-02 
396	 3.70181680870733E-02 
397	 3.69221072825442E-02 
398	 3.61363263299657E-02 
399	 0.035528525064405 
400	 3.58958841079673E-02 
401	 3.56433433886989E-02 
402	 3.49411537137401E-02 
403	 3.49202899797072E-02 
404	 3.49039786953093E-02 
405	 3.47168662751192E-02 
406	 3.50539953654466E-02 
407	 3.55521605999301E-02 
408	 3.57037878219739E-02 
409	 3.58406956111725E-02 
410	 3.57536514564187E-02 
411	 0.034482625462951 
412	 3.40247839368481E-02 
413	 3.50092936247676E-02 
414	 3.49415061508148E-02 
415	 3.42817716863611E-02 
416	 3.39335851097046E-02 
417	 3.40124389880837E-02 
418	 3.43765275048124E-02 
419	 0.034510086361753 
420	 3.42437777894351E-02 
421	 3.36592637136734E-02 
422	 0.033984371002653 
423	 3.48140216503658E-02 
424	 3.53948758247125E-02 
425	 3.51623037610137E-02 
426	 3.43147854226906E-02 
427	 3.41226340148024E-02 
428	 3.42880384406277E-02 
429	 3.45164655632854E-02 
430	 3.40312045427891E-02 
431	 3.34559966082978E-02 
432	 3.39921998186318E-02 
433	 3.43751294987146E-02 
434	 3.43108430846667E-02 
435	 3.41016795836737E-02 
436	 3.38636247918045E-02 
437	 3.36919356007045E-02 
438	 3.36823827328192E-02 
439	 3.37884517346052E-02 
440	 3.38952978993357E-02 
441	 3.41252933085722E-02 
442	 3.43310106494293E-02 
443	 3.37601920009107E-02 
444	 3.32996541386744E-02 
445	 3.36680572302944E-02 
446	 3.44594717142829E-02 
447	 3.51615740150072E-02 
448	 3.48056382600868E-02 
449	 3.46087791674943E-02 
450	 3.48337299554603E-02 
451	 3.44710468834384E-02 
452	 3.42693957308043E-02 
453	 3.49527632558382E-02 
454	 3.51175911101171E-02 
455	 3.48052196353956E-02 
456	 3.49200680797333E-02 
457	 3.51322100476894E-02 
458	 3.52677269081187E-02 
459	 3.50268803726337E-02 
460	 3.48162121876511E-02 
461	 3.51277425668676E-02 
462	 3.52442298056106E-02 
463	 3.51419396953291E-02 
464	 3.52563691018169E-02 
465	 3.55472474980269E-02 
466	 3.58729851803601E-02 
467	 3.53560912667293E-02 
468	 3.47113419629622E-02 
469	 3.51020603941577E-02 
470	 0.035556866310792 
471	 3.57999617289924E-02 
472	 0.035864019871325 
473	 0.035784934978614 
474	 3.56418750871456E-02 
475	 3.58873899059731E-02 
476	 3.60880476048539E-02 
477	 3.53397709707672E-02 
478	 3.51750720047043E-02 
479	 3.58784608386747E-02 
480	 3.66875754836327E-02 
481	 3.69259557494515E-02 
482	 3.61639701743669E-02 
483	 3.58637330356491E-02 
484	 3.60712920801855E-02 
485	 3.62537390016981E-02 
486	 3.63308018248025E-02 
487	 3.62571985933221E-02 
488	 3.61421353238676E-02 
489	 3.61595527221759E-02 
490	 3.64496506216287E-02 
491	 3.66278590665851E-02 
492	 3.65818149614378E-02 
493	 3.60946912733797E-02 
494	 3.63576239490606E-02 
495	 3.75310866589134E-02 
496	 0.037105771066358 
497	 3.61546888444728E-02 
498	 3.63561014035353E-02 
499	 3.67520502363903E-02 
500	 0.037175531021049 
501	 3.79053364472426E-02 
502	 3.82733985988878E-02 
503	 3.79616181099866E-02 
504	 3.78707426259244E-02 
505	 3.80312727132124E-02 
506	 3.82600693075057E-02 
507	 3.86795402531392E-02 
508	 3.92655645143736E-02 
509	 3.98352798350168E-02 
510	 4.03933478639989E-02 
511	 4.09207078973683E-02 
512	 4.11213076775069E-02 
513	 0.04117413773607 
514	 4.16231222081099E-02 
515	 4.18734143910986E-02 
516	 4.18800577933299E-02 
517	 4.26179082534758E-02 
518	 4.33595344493084E-02 
519	 4.32843555272729E-02 
520	 4.32993566792989E-02 
521	 4.36449948772983E-02 
522	 0.044458480578015 
523	 4.51548741144814E-02 
524	 4.54896190420583E-02 
525	 4.58684196591317E-02 
526	 4.63097243102382E-02 
527	 4.67749410178632E-02 
528	 4.71565328996007E-02 
529	 4.74700539964121E-02 
530	 0.047927239964303 
531	 4.82135142531118E-02 
532	 4.82052609420436E-02 
533	 4.87937583988858E-02 
534	 4.96518259354876E-02 
535	 4.99049346810303E-02 
536	 4.99721194357227E-02 
537	 5.00966354695356E-02 
538	 5.08107161329884E-02 
539	 5.14286493331932E-02 
540	 5.13075760102907E-02 
541	 5.15003294886525E-02 
542	 5.19902779376225E-02 
543	 5.21359597071627E-02 
544	 5.23902443353343E-02 
545	 5.28642701250652E-02 
546	 0.053043587549727 
547	 5.31614937430659E-02 
548	 5.35788009837835E-02 
549	 5.36586587346346E-02 
550	 5.35251127098901E-02 
551	 0.054170268977762 
552	 5.46810732052009E-02 
553	 5.45678844151824E-02 
554	 5.49389074157045E-02 
555	 5.55054529662389E-02 
556	 5.54322427435576E-02 
557	 5.55411451541804E-02 
558	 5.59445515158814E-02 
559	 5.59524374942623E-02 
560	 5.57063203620282E-02 
561	 5.53940568475452E-02 
562	 0.05532364448106 
563	 5.54983745362042E-02 
564	 5.57567583813919E-02 
565	 5.60022524428205E-02 
566	 5.61343834241697E-02 
567	 5.60042864619623E-02 
568	 0.055646412473113 
569	 5.51278719569606E-02 
570	 5.51381752159082E-02 
571	 5.55774715164407E-02 
572	 5.54689250012059E-02 
573	 5.52938942310105E-02 
574	 5.53213988385856E-02 
575	 5.52991220034655E-02 
576	 5.50865594724216E-02 
577	 5.44379088425596E-02 
578	 5.43870230771791E-02 
579	 5.50071132847273E-02 
580	 5.50584860505913E-02 
581	 5.48169036549555E-02 
582	 5.45789909540036E-02 
583	 5.44089180639314E-02 
584	 5.42823878424536E-02 
585	 5.40186423372747E-02 
586	 5.40360579894038E-02 
587	 0.054389051729071 
588	 5.42481564233726E-02 
589	 5.40356988562005E-02 
590	 5.43940370170298E-02 
591	 5.43775266422449E-02 
592	 5.40279371613629E-02 
593	 5.42579545472614E-02 
594	 5.43918408387548E-02 
595	 5.40977396908879E-02 
596	 5.40894431306797E-02 
597	 5.41989377772361E-02 
598	 5.39363009366002E-02 
599	 5.40770919021639E-02 
600	 5.45934277073621E-02 
601	 5.42738201170426E-02 
602	 5.39240467021068E-02 
603	 5.42419621170194E-02 
604	 5.42729924475172E-02 
605	 5.39813697779403E-02 
606	 5.36966577659968E-02 
607	 5.34916096697675E-02 
608	 5.33794279500355E-02 
609	 5.30649380410228E-02 
610	 5.28708379527523E-02 
611	 5.32183552390968E-02 
612	 5.31291680816268E-02 
613	 5.25289943581919E-02 
614	 5.19634509225056E-02 
615	 5.18006106814971E-02 
616	 5.21762161825169E-02 
617	 5.20861327734054E-02 
618	 5.17501249301445E-02 
619	 5.18216222926881E-02 
620	 5.16451382064582E-02 
621	 0.051190252063476 
622	 5.11235002157718E-02 
623	 5.13346561970021E-02 
624	 5.16684146759885E-02 
625	 5.16835361877099E-02 
626	 5.14755857142724E-02 
627	 5.15441904650486E-02 
628	 5.15846855968897E-02 
629	 5.15190282400336E-02 
630	 5.15739524117306E-02 
631	 5.17132517326014E-02 
632	 5.18648606563795E-02 
633	 5.15067910763117E-02 
634	 5.08788680021888E-02 
635	 5.11884075227201E-02 
636	 5.14577293628099E-02 
637	 5.11573084503454E-02 
638	 5.10227008840987E-02 
639	 5.10773733368589E-02 
640	 5.12289828513007E-02 
641	 5.09236663151137E-02 
642	 5.02095028516188E-02 
643	 5.00613625635758E-02 
644	 5.02569546609805E-02 
645	 5.05168455231413E-02 
646	 5.01761308227412E-02 
647	 4.94748937450563E-02 
648	 4.94391578624857E-02 
649	 4.92731233464637E-02 
650	 4.87441902666059E-02 
651	 4.83086437773776E-02 
652	 4.81303221145049E-02 
653	 4.83444948559575E-02 
654	 4.85073111135117E-02 
655	 4.83628590635627E-02 
656	 4.75117678882508E-02 
657	 4.66268879722897E-02 
658	 4.62138423320601E-02 
659	 4.64653831633672E-02 
660	 4.66935621511704E-02 
661	 4.57809605103775E-02 
662	 4.51078372080258E-02 
663	 4.48817285920827E-02 
664	 4.41719406207595E-02 
665	 4.33218731149544E-02 
666	 0.042669764158596 
667	 4.24149271227321E-02 
668	 0.04242499159802 
669	 4.23196242970144E-02 
670	 4.20976912573446E-02 
671	 4.17527549682702E-02 
672	 4.13438109630679E-02 
673	 4.11320247493872E-02 
674	 4.13860537106836E-02 
675	 4.15926282635671E-02 
676	 4.16493099603625E-02 
677	 4.16579725477947E-02 
678	 4.16754981147785E-02 
679	 0.041773547053149 
680	 4.21201444773685E-02 
681	 4.26856259055302E-02 
682	 4.33937813320559E-02 
683	 4.40721791740767E-02 
684	 4.47281373467377E-02 
685	 4.56228731971563E-02 
686	 4.68655202015955E-02 
687	 4.85133959159042E-02 
688	 0.050084771136724 
689	 5.15250188419116E-02 
690	 5.33129911456903E-02 
691	 5.49176819586704E-02 
692	 5.63892965320866E-02 
693	 5.85515497759946E-02 
694	 6.09643594296624E-02 
695	 6.30542871593448E-02 
696	 0.065480097807824 
697	 6.80361897026307E-02 
698	 6.98592945356944E-02 
699	 7.21224314045316E-02 
700	 7.50878980613163E-02 
701	 0.076670646753062 
702	 7.78688231656051E-02 
703	 8.03587100197845E-02 
704	 8.26966234017571E-02 
705	 8.45921017982133E-02 
706	 0.086230441926257 
707	 8.78863531363941E-02 
708	 8.97152988926627E-02 
709	 9.14164221881717E-02 
710	 9.29449431481354E-02 
711	 9.43016716763137E-02 
712	 9.56220102554452E-02 
713	 9.70346190828165E-02 
714	 9.89500117100623E-02 
715	 0.10057084930137 
716	 0.101251152989923 
717	 0.102312411786274 
718	 0.103837319672122 
719	 0.104781914619424 
720	 0.105945540589109 
721	 0.107385380441666 
722	 0.108465270262915 
723	 0.109153281489001 
724	 0.109335335156106 
725	 0.109759833818509 
726	 0.110574398867577 
727	 0.111668512130565 
728	 0.112729147964758 
729	 0.113542177662421 
730	 0.114001612776365 
731	 0.114484194585329 
732	 0.115504791603983 
733	 0.116149057071505 
734	 0.116375229510239 
735	 0.116703367731933 
736	 0.117210863048278 
737	 0.117900472606962 
738	 0.118352163372516 
739	 0.11876261508868 
740	 0.119651116387911 
741	 0.120098568630516 
742	 0.119988784175956 
743	 0.120037913098972 
744	 0.120553497808347 
745	 0.121661660796677 
746	 0.121819986089337 
747	 0.121356863849801 
748	 0.12169453725305 
749	 0.122316522515805 
750	 0.122976220797162 
751	 0.123271023688762 
752	 0.123357283012828 
753	 0.123452693947332 
754	 0.12377297676784 
755	 0.124262577230971 
756	 0.124701593111288 
757	 0.12463059082826 
758	 0.124015656506752 
759	 0.124859504103432 
760	 0.126973932845107 
761	 0.126768192637604 
762	 0.126708696566338 
763	 0.12722147342356 
764	 0.127064412983222 
765	 0.127190890125333 
766	 0.12777919179837 
767	 0.128053589867934 
768	 0.12826424111797 
769	 0.128761720104618 
770	 0.12913735834872 
771	 0.129300238179308 
772	 0.129296702095997 
773	 0.129335616513896 
774	 0.129591064439084 
775	 0.130285204310369 
776	 0.130940105535607 
777	 0.130648399125175 
778	 0.130586156601983 
779	 0.130987446723021 
780	 0.131142885872637 
781	 0.131435537712347 
782	 0.132118550693443 
783	 0.132367244315059 
784	 0.132458312944054 
785	 0.133300826422866 
786	 0.133922408458052 
787	 0.134060490618735 
788	 0.134148355661166 
789	 0.134231328336008 
790	 0.13435479150006 
791	 0.134782992033221 
792	 0.135249680937149 
793	 0.134979825716752 
794	 0.134783890013188 
795	 0.134984111804695 
796	 0.13558446276422 
797	 0.136079839748972 
798	 0.135998812188117 
799	 0.135889824770458 
800	 0.135982901395658 
801	 0.136632088993298 
802	 0.136910423919747 
803	 0.136689035528824 
804	 0.137589448352847 
805	 0.138383017954334 
806	 0.137724795848771 
807	 0.137907626101963 
808	 0.138815280367059 
809	 0.138641123978932 
810	 0.138784541511264 
811	 0.13967568045167 
812	 0.140097562419429 
813	 0.140008259380993 
814	 0.139529407298836 
815	 0.140199254032357 
816	 0.141810809622937 
817	 0.142342706042952 
818	 0.142636310132907 
819	 0.142878157112378 
820	 0.141872285734472 
821	 0.141406806609038 
822	 0.143582835472197 
823	 0.144663068240271 
824	 0.144261958422566 
825	 0.143975925813048 
826	 0.144113353858742 
827	 0.144763861890185 
828	 0.14512826438943 
829	 0.145245682957594 
830	 0.145271338516247 
831	 0.145372260533426 
832	 0.145629822275186 
833	 0.146236184651668 
834	 0.146202040879625 
835	 0.145392319878919 
836	 0.145681623747368 
837	 0.146291541125508 
838	 0.14622026701282 
839	 0.147490690692258 
840	 0.149366218163146 
841	 0.148689039939134 
842	 0.147465831484322 
843	 0.146825204254887 
844	 0.147896121163174 
845	 0.149005834520118 
846	 0.148254825799439 
847	 0.147929488935158 
848	 0.148284721218125 
849	 0.148599307125525 
850	 0.149026030873703 
851	 0.149486662191076 
852	 0.149416002825569 
853	 0.149207200550241 
854	 0.149288340723723 
855	 0.148573102946919 
856	 0.147671186718804 
857	 0.1485814613965 
858	 0.149520763727526 
859	 0.14990543318387 
860	 0.150087752867964 
861	 0.150436593045905 
862	 0.151253092663063 
863	 0.151988050384857 
864	 0.152380994947351 
865	 0.152107278356404 
866	 0.151563259682585 
867	 0.151178434210007 
868	 0.152021522894872 
869	 0.152926620447711 
870	 0.152916637636081 
871	 0.152360583177875 
872	 0.151892516204801 
873	 0.15256879836896 
874	 0.153636949147195 
875	 0.154527793687043 
876	 0.153984854863832 
877	 0.153663117525517 
878	 0.154673894348825 
879	 0.155757086917597 
880	 0.156489392593647 
881	 0.156506942226241 
882	 0.156343219719652 
883	 0.156550698171916 
884	 0.158432186536295 
885	 0.160025076055988 
886	 0.160227068699917 
887	 0.15998794325432 
888	 0.159581818795445 
889	 0.159247105640359 
890	 0.159708013885083 
891	 0.160884037127078 
892	 0.162126457635424 
893	 0.162230513460682 
894	 0.160956510756994 
895	 0.161148463317298 
896	 0.161885035393245 
897	 0.161871248260265 
898	 0.16316337698573 
899	 0.165118324001158 
900	 0.165275879846558 
901	 0.164723470380116 
902	 0.163856248609532 
903	 0.16238175753857 
904	 0.162387395222222 
905	 0.165090353521273 
906	 0.166017682355048 
907	 0.165711702906707 
908	 0.166380557124596 
909	 0.167248868800126 
910	 0.167780130444142 
911	 0.166771403050129 
912	 0.165312986216089 
913	 0.164305536151844 
914	 0.164547522706893 
915	 0.165849423092426 
916	 0.167780463011886 
917	 0.168783707186671 
918	 0.168808431101656 
919	 0.168810537518661 
920	 0.168706370250126 
921	 0.168633423102469 
922	 0.169099669855844 
923	 0.1696342306497 
924	 0.169702309431222 
925	 0.168444033321555 
926	 0.166629081784605 
927	 0.166232881968827 
928	 0.167168290206167 
929	 0.168433741687284 
930	 0.164548653262671 
931	 0.163681624253042 
932	 0.170884857073763 
933	 0.167368928867255 
934	 0.159050969568034 
935	 0.159468953275374 
936	 0.165706190591047 
937	 0.172556243671194 
938	 0.168937249277333 
939	 0.163076802468341 
940	 0.159877030208525 
941	 0.16834835487884 
942	 0.177085030851925 
943	 0.177971363482303 
944	 0.177192854425375 
945	 0.174940323679771 
946	 0.170365012950697 
947	 0.162426613359207 
948	 0.155270516402476 
949	 0.161216755805884 
950	 0.167575255456847 
951	 0.168646226338362 
952	 0.168078684325351 
953	 0.168077313571625 
954	 0.169670391318681 
955	 0.16198469059199 
956	 0.153840527561436 
957	 0.164307145906836 
958	 0.171782230478334 
959	 0.170588634845643 
960	 0.16043347026354 
961	 0.159070125494046 
962	 0.17093872968348 
963	 0.169605407692557 
964	 0.164035398178252 
965	 0.164484237426666 
966	 0.164338328117837 
967	 0.163202315749323 
968	 0.161938793976877 
969	 0.164618545828684 
970	 0.169546627780565 
971	 0.166215366199273 
972	 0.163626489291706 
973	 0.165946319459341 
974	 0.165589762417627 
975	 0.162858628508881 
976	 0.159338985927412 
977	 0.162006307937834 
978	 0.167883270095008 
979	 0.167948329253691 
980	 0.1659744658166 
981	 0.163474235504586 
982	 0.161449144670407 
983	 0.162717070143438 
984	 0.167544396440941 
985	 0.167990471021312 
986	 0.166064891315663 
987	 0.164987923520744 
988	 0.168372417649472 
989	 0.172082512366805 
990	 0.166359001733886 
991	 0.165805950607102 
992	 0.171761242227033 
993	 0.173713602194775 
994	 0.170726322768074 
995	 0.16445679925094 
996	 0.168487136039799 
997	 0.172469905980861 
998	 0.166705257052844 
999	 0.16823033544525 
1000	 0.174242051634952 
1001	 0.174964738420174 
1002	 0.174111433026357 
1003	 0.171854893194002 
1004	 0.166145145880645 
1005	 0.161102587677192 
1006	 0.15968507126967 
1007	 0.165479574121403 
1008	 0.175262068642051 
1009	 0.18479644596136 
1010	 0.182637519154981 
1011	 0.177155399226096 
1012	 0.181655281094083 
1013	 0.182513624622823 
1014	 0.178557169303743 
1015	 0.173328889507649 
1016	 0.175478914871983 
1017	 0.182928558267661 
1018	 0.174509195606464 
1019	 0.168158646509214 
1020	 0.173093791422672 
1021	 0.178709006809865 
1022	 0.177815930817905 
1023	 0.166313381572453 
1024	 0.171995217817102 
1025	 0.184944506070426 
1026	 0.18168550315978 
1027	 0.181730643592387 
1028	 0.185145242338949 
1029	 0.177806305968914 
1030	 0.173134857310298 
1031	 0.17443998829695 
1032	 0.172019347111942 
1033	 0.172879891018762 
1034	 0.17957158271452 
1035	 0.177734283526121 
1036	 0.173149760788628 
1037	 0.173147049009808 
1038	 0.169583161311039 
1039	 0.16842048327264 
1040	 0.18138618457301 
1041	 0.179932026414999 
1042	 0.163629522323369 
1043	 0.153463283509593 
1044	 0.159811057156055 
1045	 0.181651984790989 
1046	 0.197348758482556 
1047	 0.196926474730299 
1048	 0.180269282346391 
1049	 0.17990195091759 
1050	 0.19059042374702 
1051	 0.201820432607859 
1052	 0.192550943362353 
1053	 0.178995017256416 
1054	 0.190031285065119 
1055	 0.194128987188156 
1056	 0.189116686918622 
1057	 0.188420456042276 
1058	 0.173377711057064 
1059	 0.150674084080175 
1060	 0.16804402829303 
1061	 0.183387625420835 
1062	 0.180076103292175 
1063	 0.167338614315787 
1064	 0.169747951898194 
1065	 0.197380000454274 
1066	 0.198527424150759 
1067	 0.182652444956574 
1068	 0.168467079366096 
1069	 0.162758524531751 
1070	 0.166264057396701 
1071	 0.177199928339103 
1072	 0.165792094757356 
1073	 0.142155867452241 
1074	 0.153944655562108 
1075	 0.180399812332473 
