Wavelength	AVEI200129.asd
325	 4.12417284468355E-02 
326	 4.03732685987496E-02 
327	 3.32158460846811E-02 
328	 3.60295242358895E-02 
329	 3.77407736692079E-02 
330	 3.53319022663085E-02 
331	 3.51748214220786E-02 
332	 3.53534023919823E-02 
333	 3.38179379633106E-02 
334	 0.033506810066041 
335	 3.43554101842712E-02 
336	 3.54918960779262E-02 
337	 3.42707278613364E-02 
338	 0.031275116320162 
339	 3.33345667872605E-02 
340	 3.54334243923883E-02 
341	 3.36893935470489E-02 
342	 3.32148544996264E-02 
343	 3.43284158698823E-02 
344	 0.036279381118327 
345	 3.67677920829396E-02 
346	 3.56058772024756E-02 
347	 3.48532931659791E-02 
348	 3.42320068320282E-02 
349	 3.34168030197836E-02 
350	 3.12310609381431E-02 
351	 2.93865588394049E-02 
352	 3.07308141751279E-02 
353	 3.16961658566045E-02 
354	 3.17113198147732E-02 
355	 3.24036243078241E-02 
356	 3.24903814748433E-02 
357	 0.031594640304999 
358	 0.03326278862153 
359	 3.49599428837557E-02 
360	 3.24000796613722E-02 
361	 3.08206291101759E-02 
362	 3.12669689276643E-02 
363	 3.25878962042473E-02 
364	 3.34635521212327E-02 
365	 3.31546639625182E-02 
366	 3.20419409460368E-02 
367	 3.11293232634974E-02 
368	 3.16265513608188E-02 
369	 3.19280798751856E-02 
370	 3.17645429980539E-02 
371	 3.16694217527937E-02 
372	 0.031271585457982 
373	 3.04782493050521E-02 
374	 0.029928135838753 
375	 2.99078220522398E-02 
376	 3.06605889847998E-02 
377	 3.04431161434293E-02 
378	 0.029313960683629 
379	 2.87643949053866E-02 
380	 2.93355488747223E-02 
381	 3.09952247596118E-02 
382	 3.17521806672816E-02 
383	 0.031755628173309 
384	 0.031470390537692 
385	 0.029984132716378 
386	 2.81848925272512E-02 
387	 2.92266309691368E-02 
388	 3.03481803034317E-02 
389	 3.01603129111321E-02 
390	 2.88397418755189E-02 
391	 2.77345940073195E-02 
392	 2.82944306827946E-02 
393	 2.89076630427824E-02 
394	 2.91836532016015E-02 
395	 2.89571368941488E-02 
396	 2.96436314083029E-02 
397	 3.11540797517159E-02 
398	 2.94785199669881E-02 
399	 2.75741276607261E-02 
400	 2.86084742681649E-02 
401	 0.029214709710224 
402	 2.89103870469249E-02 
403	 2.79092233097174E-02 
404	 2.77644111823361E-02 
405	 2.87040174898292E-02 
406	 2.78109871807226E-02 
407	 2.66237658884274E-02 
408	 2.72890844153831E-02 
409	 2.81684614260927E-02 
410	 2.86026809508175E-02 
411	 0.027793443730231 
412	 2.72170466192015E-02 
413	 2.74778246754248E-02 
414	 2.74668416604878E-02 
415	 2.73061255449927E-02 
416	 2.72868874811479E-02 
417	 2.75260193708354E-02 
418	 2.78744069546603E-02 
419	 2.78080534938178E-02 
420	 2.76125595571035E-02 
421	 2.75007166521117E-02 
422	 2.78239277446951E-02 
423	 2.81102538058585E-02 
424	 2.76306616733482E-02 
425	 2.73460081182054E-02 
426	 2.74082894530566E-02 
427	 2.73803043607304E-02 
428	 0.027452956610398 
429	 2.77132898049626E-02 
430	 2.79272696205603E-02 
431	 2.78742463464782E-02 
432	 2.72238163515131E-02 
433	 0.027302356074212 
434	 2.79761296790719E-02 
435	 2.73233424740671E-02 
436	 2.67927023594788E-02 
437	 2.72643108367109E-02 
438	 2.74521695109137E-02 
439	 2.72775535627498E-02 
440	 2.69132056450087E-02 
441	 2.66868794348555E-02 
442	 2.67689463403163E-02 
443	 0.027390891642655 
444	 2.76345101064588E-02 
445	 2.68732196923963E-02 
446	 2.67476953610228E-02 
447	 2.71313128949216E-02 
448	 2.70991810185949E-02 
449	 2.71675844851828E-02 
450	 2.73988625193285E-02 
451	 2.73199552610966E-02 
452	 2.72129334366688E-02 
453	 2.73733075434308E-02 
454	 2.76396505809429E-02 
455	 2.78044346244365E-02 
456	 2.73433745047907E-02 
457	 0.027170456317337 
458	 2.75590562924021E-02 
459	 2.76391802324858E-02 
460	 2.75339219633007E-02 
461	 2.74778585858157E-02 
462	 2.74809755420958E-02 
463	 2.75023623467291E-02 
464	 2.73677894699407E-02 
465	 0.027325450619469 
466	 2.74329745954426E-02 
467	 2.70964979396022E-02 
468	 2.67458225342605E-02 
469	 2.70945563743465E-02 
470	 2.72526780612741E-02 
471	 2.71123386628585E-02 
472	 2.71688243738651E-02 
473	 2.73263848926612E-02 
474	 2.74777428912586E-02 
475	 2.72699670681293E-02 
476	 2.69258435238776E-02 
477	 2.68914496012325E-02 
478	 0.027170577142582 
479	 0.027567529914174 
480	 2.72780122442111E-02 
481	 2.69363462311624E-02 
482	 0.027068380864584 
483	 2.73632837603675E-02 
484	 2.76608398143569E-02 
485	 0.027707748898795 
486	 2.77678131336798E-02 
487	 2.78759211847453E-02 
488	 2.76817199545173E-02 
489	 2.75120304952921E-02 
490	 2.76933974841888E-02 
491	 2.76405798577265E-02 
492	 2.73893224590762E-02 
493	 2.73267491774716E-02 
494	 2.73835421913753E-02 
495	 2.75231164608523E-02 
496	 2.76241721724311E-02 
497	 2.78198725442346E-02 
498	 2.82991024054307E-02 
499	 0.028288886709845 
500	 0.027896184004187 
501	 2.81349436097362E-02 
502	 2.85790429529364E-02 
503	 2.89270073616517E-02 
504	 0.028991711095148 
505	 2.89752209223151E-02 
506	 2.92561285639612E-02 
507	 2.95608873474735E-02 
508	 2.98228841320641E-02 
509	 3.00443423280721E-02 
510	 0.030486349137832 
511	 3.12767413300933E-02 
512	 3.14293807067074E-02 
513	 3.11439025080526E-02 
514	 3.12015075055025E-02 
515	 3.16705706817266E-02 
516	 3.24747676533836E-02 
517	 0.032911088166901 
518	 3.30423117255066E-02 
519	 3.30347658023444E-02 
520	 3.36527955481293E-02 
521	 3.47557570652391E-02 
522	 3.55988986450817E-02 
523	 3.61488488622748E-02 
524	 3.64022030549181E-02 
525	 3.65604161871468E-02 
526	 3.68224937707282E-02 
527	 3.74196044108341E-02 
528	 3.78812274951017E-02 
529	 3.81579096978392E-02 
530	 3.85439141141297E-02 
531	 3.90597080895173E-02 
532	 3.96677172148078E-02 
533	 3.98531423915102E-02 
534	 3.98844746490084E-02 
535	 4.04473771045722E-02 
536	 4.08860596406192E-02 
537	 4.10460509965527E-02 
538	 4.12226937131783E-02 
539	 4.14726847369775E-02 
540	 4.18208062462409E-02 
541	 4.19770646726837E-02 
542	 4.19846101411392E-02 
543	 4.21008768769226E-02 
544	 4.23127841539323E-02 
545	 4.26056847853373E-02 
546	 4.28717003997556E-02 
547	 4.31040891575445E-02 
548	 4.33113417971478E-02 
549	 0.043336088910449 
550	 4.32685588276401E-02 
551	 4.35268228324654E-02 
552	 4.38349635587341E-02 
553	 4.40119300665501E-02 
554	 4.41221198115276E-02 
555	 4.42060626480361E-02 
556	 4.43332153019825E-02 
557	 4.43742299462574E-02 
558	 4.43193799870018E-02 
559	 4.43331287999836E-02 
560	 4.43155584906828E-02 
561	 4.41866483130386E-02 
562	 4.42543397998598E-02 
563	 4.43933820733267E-02 
564	 4.41363689531964E-02 
565	 4.38125668407132E-02 
566	 4.35834647412895E-02 
567	 4.35556113935451E-02 
568	 4.35037828472206E-02 
569	 4.31314979321031E-02 
570	 4.29429172606026E-02 
571	 4.29513000465435E-02 
572	 4.27529371914805E-02 
573	 4.24931714042738E-02 
574	 4.22700529625908E-02 
575	 4.21605815218385E-02 
576	 4.20644439859975E-02 
577	 4.17779397267833E-02 
578	 4.15017360244858E-02 
579	 4.13026586245458E-02 
580	 4.11283639032973E-02 
581	 0.041095911747783 
582	 4.12693645970126E-02 
583	 4.10867142466534E-02 
584	 4.07048371598954E-02 
585	 0.040828267996678 
586	 4.08348760798191E-02 
587	 4.05235278825179E-02 
588	 0.040291964559288 
589	 4.01455805575185E-02 
590	 4.00476113196525E-02 
591	 3.98752815874636E-02 
592	 3.96861406284407E-02 
593	 3.97726737819422E-02 
594	 3.98498749136599E-02 
595	 3.97527429180939E-02 
596	 3.96203889137132E-02 
597	 3.94948094000159E-02 
598	 3.94085816538573E-02 
599	 3.93909821375336E-02 
600	 3.94396071751256E-02 
601	 3.95117855299409E-02 
602	 3.95180198541163E-02 
603	 0.03940181210255 
604	 3.94604811008648E-02 
605	 3.96462348351627E-02 
606	 3.97951029129374E-02 
607	 3.93999420394702E-02 
608	 3.84873182389078E-02 
609	 3.86045648481645E-02 
610	 3.90723739617307E-02 
611	 3.88605670979521E-02 
612	 3.84475422588179E-02 
613	 3.80587026971914E-02 
614	 3.80548112276515E-02 
615	 3.81520493803248E-02 
616	 3.81547645392321E-02 
617	 3.80486119251818E-02 
618	 0.037826857970853 
619	 3.74823980727615E-02 
620	 3.71659969354819E-02 
621	 3.69857457646221E-02 
622	 3.71682036090685E-02 
623	 3.72638840568359E-02 
624	 3.69103721428382E-02 
625	 3.69873083644768E-02 
626	 3.73545582649888E-02 
627	 3.72200180564022E-02 
628	 3.70371235513719E-02 
629	 3.69798028747321E-02 
630	 3.69521934739344E-02 
631	 3.70619563356447E-02 
632	 3.74373216254212E-02 
633	 3.74897371762437E-02 
634	 3.72103010134163E-02 
635	 3.70873748618034E-02 
636	 3.69480021143123E-02 
637	 3.66971414857178E-02 
638	 3.63726660107528E-02 
639	 3.60602771393158E-02 
640	 3.59001104141764E-02 
641	 3.57603823535113E-02 
642	 3.55686440673719E-02 
643	 3.52584650242188E-02 
644	 3.47564189266678E-02 
645	 3.40376471058999E-02 
646	 3.36488090177517E-02 
647	 3.36014323984576E-02 
648	 3.36693811038723E-02 
649	 3.35053813614424E-02 
650	 3.30568185950513E-02 
651	 3.30133448948953E-02 
652	 0.033146645470495 
653	 3.31152764177091E-02 
654	 3.28255047313629E-02 
655	 3.24090545457218E-02 
656	 3.24648866000121E-02 
657	 3.26302399376465E-02 
658	 3.26449469957864E-02 
659	 3.24346366336451E-02 
660	 0.032104545252105 
661	 3.18452122471123E-02 
662	 3.13295121295765E-02 
663	 3.06863080794408E-02 
664	 0.030777428351808 
665	 3.10839501401519E-02 
666	 3.11181049802409E-02 
667	 3.07042478619159E-02 
668	 3.01258585249246E-02 
669	 3.01205375872273E-02 
670	 3.03332788525633E-02 
671	 0.030520777493791 
672	 3.00503772758156E-02 
673	 0.029572618195889 
674	 2.98721450225669E-02 
675	 0.03029290331422 
676	 0.030595918323727 
677	 3.05506615322541E-02 
678	 3.05252876981099E-02 
679	 3.07122764429986E-02 
680	 3.09003898546206E-02 
681	 3.10800023539548E-02 
682	 3.12729002060151E-02 
683	 3.14728747601109E-02 
684	 3.18234437872064E-02 
685	 3.29180745146338E-02 
686	 3.40769733281375E-02 
687	 3.47142986071863E-02 
688	 0.035797374164767 
689	 3.71769293414602E-02 
690	 3.82902946401928E-02 
691	 3.96698986708185E-02 
692	 4.14537881492667E-02 
693	 4.32393025114532E-02 
694	 4.51485161184876E-02 
695	 4.72433770793457E-02 
696	 4.95782642922171E-02 
697	 5.20675955414265E-02 
698	 5.45731056377005E-02 
699	 0.057301725544124 
700	 6.02387431497702E-02 
701	 0.062886545485488 
702	 6.54207443426337E-02 
703	 6.81688497883118E-02 
704	 7.11512716451038E-02 
705	 7.42490940827225E-02 
706	 7.69513993247542E-02 
707	 7.94673832125534E-02 
708	 8.19510569192182E-02 
709	 8.45109971722933E-02 
710	 8.71415894147561E-02 
711	 8.98138527750218E-02 
712	 9.24689449988616E-02 
713	 9.49907634674481E-02 
714	 9.70977794669075E-02 
715	 0.09904133826829 
716	 0.101156146589922 
717	 0.102921227552659 
718	 0.104672326270969 
719	 0.107477016083647 
720	 0.110048696870373 
721	 0.111785751526604 
722	 0.113150361370292 
723	 0.114601809158799 
724	 0.116488307144383 
725	 0.118188306846168 
726	 0.119506713665621 
727	 0.120784024300118 
728	 0.122138733639501 
729	 0.123574176488435 
730	 0.124591569294232 
731	 0.125439875803655 
732	 0.126523586666429 
733	 0.127440055092122 
734	 0.128226877009442 
735	 0.129191798170607 
736	 0.1303282721426 
737	 0.131533475153062 
738	 0.132299065350467 
739	 0.132828868366294 
740	 0.133657095227247 
741	 0.134142839746162 
742	 0.134296424694817 
743	 0.13498600467171 
744	 0.135716752790917 
745	 0.136085116384186 
746	 0.136644938668754 
747	 0.137360172295452 
748	 0.137926222138962 
749	 0.138548904850931 
750	 0.139162741379848 
751	 0.139041236311293 
752	 0.139026190562438 
753	 0.140000671589345 
754	 0.140506076969715 
755	 0.140522590572079 
756	 0.140852790128574 
757	 0.141461461017383 
758	 0.142248474538598 
759	 0.141733215250071 
760	 0.14055394948796 
761	 0.142380373801164 
762	 0.142850935987402 
763	 0.141964090331087 
764	 0.143121888987129 
765	 0.144346734888699 
766	 0.144906601890039 
767	 0.145163699758202 
768	 0.145378035232594 
769	 0.145782071796737 
770	 0.146338417496193 
771	 0.146909345165349 
772	 0.14705852533029 
773	 0.147091448632285 
774	 0.147235866555239 
775	 0.147497247425733 
776	 0.147947002533453 
777	 0.148741434052036 
778	 0.149098706691581 
779	 0.148904816799629 
780	 0.148775362191665 
781	 0.148937131126969 
782	 0.149547215854077 
783	 0.150459126226095 
784	 0.151177336589278 
785	 0.150693989402077 
786	 0.150680877273524 
787	 0.151461286663124 
788	 0.151559045392081 
789	 0.151477868805058 
790	 0.151735475364098 
791	 0.151877103863895 
792	 0.151999576023391 
793	 0.152565183688719 
794	 0.152910485140562 
795	 0.152808905652754 
796	 0.152365805014599 
797	 0.152365862036939 
798	 0.153490076686142 
799	 0.154160357141073 
800	 0.154133224875785 
801	 0.153531143399846 
802	 0.153615108710367 
803	 0.154719899836962 
804	 0.15543639889579 
805	 0.155651036645176 
806	 0.155410487702671 
807	 0.155449820065729 
808	 0.155781075280616 
809	 0.15586484346308 
810	 0.156240820932256 
811	 0.156966250234177 
812	 0.156878965521398 
813	 0.15645199273203 
814	 0.15646674762766 
815	 0.156923531290288 
816	 0.157564183901716 
817	 0.157458523416455 
818	 0.157643265832617 
819	 0.158526138222216 
820	 0.15983523808182 
821	 0.160625554043702 
822	 0.159864754802627 
823	 0.159843778005757 
824	 0.160850664325821 
825	 0.162196428576738 
826	 0.162825002776759 
827	 0.162390354692558 
828	 0.161867653862209 
829	 0.161872422372775 
830	 0.162964069052529 
831	 0.163593887663656 
832	 0.163729979104494 
833	 0.16439810660309 
834	 0.165003013267555 
835	 0.165293964350479 
836	 0.165280807813636 
837	 0.16546101290799 
838	 0.166356355555804 
839	 0.167220531188684 
840	 0.167648010110215 
841	 0.166942300666406 
842	 0.166546114959256 
843	 0.167019588655571 
844	 0.167483442250431 
845	 0.167793991242754 
846	 0.167873774218475 
847	 0.167686171184902 
848	 0.167459030910851 
849	 0.167807862094298 
850	 0.168330034027586 
851	 0.168677705977475 
852	 0.167832984685319 
853	 0.167349562702716 
854	 0.168822348156737 
855	 0.169642543003623 
856	 0.169368567936593 
857	 0.168089427072561 
858	 0.168062445666498 
859	 0.169595675160688 
860	 0.169625760824066 
861	 0.169361780586786 
862	 0.170029051929415 
863	 0.17007554522201 
864	 0.16970877671875 
865	 0.170052734951588 
866	 0.170473669273216 
867	 0.170851754569545 
868	 0.171645414476708 
869	 0.172243884887166 
870	 0.172217872023843 
871	 0.172532474859078 
872	 0.173017452854168 
873	 0.173010716447948 
874	 0.173394406241861 
875	 0.174277420571644 
876	 0.174878830729627 
877	 0.175800230802883 
878	 0.177277681538423 
879	 0.177586218497308 
880	 0.177359027586905 
881	 0.17799572350876 
882	 0.178858062161148 
883	 0.179584492402096 
884	 0.179561106149275 
885	 0.179190062612067 
886	 0.178952347854748 
887	 0.180224199926924 
888	 0.182070552546454 
889	 0.183055087791764 
890	 0.183414880690617 
891	 0.183180617794599 
892	 0.182172864688949 
893	 0.182362591765919 
894	 0.184000778496456 
895	 0.181678097987712 
896	 0.178991725008575 
897	 0.180751508567464 
898	 0.182672619560462 
899	 0.183845060595054 
900	 0.184531048871998 
901	 0.18474686107383 
902	 0.184839200838565 
903	 0.186251081239744 
904	 0.186757155829525 
905	 0.184964861025735 
906	 0.184970030356274 
907	 0.186266206957043 
908	 0.18686656833958 
909	 0.186822382475897 
910	 0.186004601045692 
911	 0.184019393971988 
912	 0.183318672665994 
913	 0.185069003305333 
914	 0.18659926707931 
915	 0.18716737876877 
916	 0.186360224700879 
917	 0.186159136938488 
918	 0.18700328355094 
919	 0.188971428978059 
920	 0.189975719380032 
921	 0.189293186393466 
922	 0.187674506921021 
923	 0.186245973212132 
924	 0.186055218814001 
925	 0.187558105529314 
926	 0.189036601251863 
927	 0.186559048669646 
928	 0.183216510636274 
929	 0.18065066024761 
930	 0.181015063673933 
931	 0.180359322624942 
932	 0.176214785938238 
933	 0.179294388551057 
934	 0.183814900423242 
935	 0.178771375963018 
936	 0.173305625126233 
937	 0.16927824789176 
938	 0.164908788931631 
939	 0.161257533871474 
940	 0.160038407428777 
941	 0.167938314974366 
942	 0.171245087556273 
943	 0.162217611955518 
944	 0.164237489868625 
945	 0.172191355449629 
946	 0.173164496415664 
947	 0.172363318511528 
948	 0.170830843011505 
949	 0.168902810120824 
950	 0.1642086928988 
951	 0.157178885029591 
952	 0.155519750957444 
953	 0.155817718570555 
954	 0.154889789434117 
955	 0.159994308015362 
956	 0.165508214398702 
957	 0.159796134477874 
958	 0.158289734388937 
959	 0.161851459672613 
960	 0.159499305487862 
961	 0.156398280660858 
962	 0.155292577495755 
963	 0.156510099704752 
964	 0.156644986475456 
965	 0.153084822404248 
966	 0.155287260153102 
967	 0.159810441518873 
968	 0.156722736339336 
969	 0.157434388783907 
970	 0.162430044439788 
971	 0.161996436775076 
972	 0.15971711236391 
973	 0.158107953359084 
974	 0.15942465293851 
975	 0.161692200651446 
976	 0.162459509978126 
977	 0.161956600875918 
978	 0.161518135943896 
979	 0.164132211212297 
980	 0.163690546983608 
981	 0.160689748963608 
982	 0.164118179769295 
983	 0.166828051139234 
984	 0.165202954716462 
985	 0.162193320140438 
986	 0.161708321249305 
987	 0.16695655353841 
988	 0.168479956803894 
989	 0.166516583444465 
990	 0.16506582615794 
991	 0.163277212960856 
992	 0.162496250814863 
993	 0.167340821383815 
994	 0.172897852805993 
995	 0.175752847233566 
996	 0.172859232319315 
997	 0.168578079333982 
998	 0.167676188064299 
999	 0.170786963369289 
1000	 0.173203071967994 
1001	 0.16660279385471 
1002	 0.167889712469034 
1003	 0.176325423278875 
1004	 0.174672937800996 
1005	 0.173834405014531 
1006	 0.177495304800577 
1007	 0.180999629320411 
1008	 0.182550352441329 
1009	 0.180982201977496 
1010	 0.177883723399732 
1011	 0.173666734962781 
1012	 0.168936600668627 
1013	 0.173142468648008 
1014	 0.183447246001254 
1015	 0.189232692728138 
1016	 0.181751114847878 
1017	 0.165310529401436 
1018	 0.169788030748467 
1019	 0.178364272251039 
1020	 0.180949100518885 
1021	 0.181263475877758 
1022	 0.179263043825247 
1023	 0.176028352561007 
1024	 0.184214893480287 
1025	 0.194618153672261 
1026	 0.189093803931634 
1027	 0.182748895035433 
1028	 0.180333429105289 
1029	 0.184090172649577 
1030	 0.184594123757475 
1031	 0.181015149641507 
1032	 0.187204387058456 
1033	 0.190682868074477 
1034	 0.186069272672765 
1035	 0.195764540552399 
1036	 0.203833664187228 
1037	 0.193088640888814 
1038	 0.185643454372745 
1039	 0.184539785896835 
1040	 0.187462076577992 
1041	 0.192533350597663 
1042	 0.196121801851986 
1043	 0.188358446613393 
1044	 0.188065627171164 
1045	 0.199795891511112 
1046	 0.212727230943734 
1047	 0.209343158739545 
1048	 0.186006296742931 
1049	 0.18672120996063 
1050	 0.198798892271073 
1051	 0.204026786171127 
1052	 0.189955931167257 
1053	 0.178092907519592 
1054	 0.203155342035715 
1055	 0.198475613164308 
1056	 0.174704342442542 
1057	 0.195934096608764 
1058	 0.197174868890271 
1059	 0.172157783030109 
1060	 0.174957204589041 
1061	 0.181647118224398 
1062	 0.181335999325095 
1063	 0.175168211906074 
1064	 0.178985712232017 
1065	 0.197211427215284 
1066	 0.182906984677993 
1067	 0.166834736738783 
1068	 0.186628006105786 
1069	 0.195593151469257 
1070	 0.191853801867298 
1071	 0.186748298668188 
1072	 0.183831744461232 
1073	 0.179010317591137 
1074	 0.155451681646572 
1075	 0.178006253192823 
