Wavelength	AVEI200372.asd
325	 9.67529957101372E-02 
326	 9.41237053592197E-02 
327	 0.096650249543809 
328	 9.92492288381696E-02 
329	 9.78747019537522E-02 
330	 9.23959697701812E-02 
331	 8.94814331776451E-02 
332	 9.10972229064853E-02 
333	 9.78394560878688E-02 
334	 9.52793909609865E-02 
335	 8.72102652401981E-02 
336	 8.72140651710044E-02 
337	 9.15283571470965E-02 
338	 0.096911484966536 
339	 9.47710254624058E-02 
340	 9.17930200323424E-02 
341	 9.33946905724916E-02 
342	 0.092345166168859 
343	 9.12668184223084E-02 
344	 9.72930848546802E-02 
345	 9.98681382670028E-02 
346	 9.72050169731002E-02 
347	 9.35939413357939E-02 
348	 9.20642773192178E-02 
349	 9.41393828955766E-02 
350	 9.52637510826815E-02 
351	 9.54352553625294E-02 
352	 9.57973021751172E-02 
353	 9.43610078021829E-02 
354	 0.091987108951562 
355	 9.36377274439956E-02 
356	 9.39808699433941E-02 
357	 9.06248509217853E-02 
358	 9.15287578882055E-02 
359	 9.42604070439733E-02 
360	 9.39152399778826E-02 
361	 9.28092173996375E-02 
362	 9.15916864918016E-02 
363	 9.02971232396414E-02 
364	 9.04468865457034E-02 
365	 0.092076146283619 
366	 9.00468863735008E-02 
367	 8.69614202662899E-02 
368	 8.68964049482438E-02 
369	 8.72355831192239E-02 
370	 8.74402990849859E-02 
371	 8.76378637853175E-02 
372	 8.86222497024013E-02 
373	 9.03195830372159E-02 
374	 8.92909073761619E-02 
375	 8.75416932470048E-02 
376	 8.81959159338572E-02 
377	 8.68086919397321E-02 
378	 8.41054436855207E-02 
379	 8.57682475999606E-02 
380	 8.74039615030425E-02 
381	 8.68489564948962E-02 
382	 8.56394302284816E-02 
383	 8.43539618735314E-02 
384	 8.35774935429876E-02 
385	 8.57720548051536E-02 
386	 8.92005473984872E-02 
387	 8.71869170453098E-02 
388	 8.47045889435299E-02 
389	 8.40648447082351E-02 
390	 8.42859491589151E-02 
391	 8.49204611914298E-02 
392	 8.55280272999942E-02 
393	 8.54754839261282E-02 
394	 8.53576873132619E-02 
395	 8.74237481662025E-02 
396	 8.85007587160881E-02 
397	 8.75325058258772E-02 
398	 8.65861428858327E-02 
399	 8.64713936085058E-02 
400	 8.76529067532199E-02 
401	 8.70919752041417E-02 
402	 8.53371562297167E-02 
403	 8.49499736432593E-02 
404	 8.52008878843142E-02 
405	 8.56115236753504E-02 
406	 8.49726593705382E-02 
407	 8.44265048221506E-02 
408	 8.54578831163897E-02 
409	 8.59731617929827E-02 
410	 8.57644093446764E-02 
411	 8.56927106642908E-02 
412	 8.55541073609384E-02 
413	 8.52427202398939E-02 
414	 8.44882307138907E-02 
415	 8.40991316119619E-02 
416	 8.51014075837346E-02 
417	 8.52168260470508E-02 
418	 8.44692597122034E-02 
419	 8.46776914253467E-02 
420	 8.50422558932464E-02 
421	 8.51718702681284E-02 
422	 8.55370829554118E-02 
423	 8.58271793799765E-02 
424	 0.085550097805969 
425	 8.50982021243771E-02 
426	 8.48119504327398E-02 
427	 8.54878652405535E-02 
428	 8.60918301308222E-02 
429	 8.59788702909438E-02 
430	 8.57958013659074E-02 
431	 8.58446941319785E-02 
432	 8.64823640287749E-02 
433	 8.66876582916756E-02 
434	 8.63577485185043E-02 
435	 8.61997828878603E-02 
436	 8.61595565624678E-02 
437	 0.086173743368272 
438	 0.085999985888375 
439	 0.085858106939592 
440	 8.62164029108203E-02 
441	 8.65755428612022E-02 
442	 0.086787612520853 
443	 0.086987511130063 
444	 8.70441895840372E-02 
445	 8.68933890404372E-02 
446	 8.70382036459021E-02 
447	 8.73607358875605E-02 
448	 8.74295816492348E-02 
449	 8.73455672223967E-02 
450	 8.71642079801362E-02 
451	 8.70111656269692E-02 
452	 8.69338639799769E-02 
453	 8.69834138327449E-02 
454	 8.74341039674586E-02 
455	 8.80550415020686E-02 
456	 8.81172890736522E-02 
457	 8.80461576201075E-02 
458	 8.80577118009068E-02 
459	 8.83771075007959E-02 
460	 8.85935212375812E-02 
461	 8.82181338217009E-02 
462	 0.087848612174309 
463	 8.76863856720339E-02 
464	 8.78098344112912E-02 
465	 8.82205823089233E-02 
466	 0.088801909195132 
467	 8.87701499802348E-02 
468	 8.87228123377136E-02 
469	 8.96530576831646E-02 
470	 9.00313107430423E-02 
471	 8.97687204011338E-02 
472	 0.090080916570031 
473	 9.02749939942234E-02 
474	 8.99835122615315E-02 
475	 8.99733408584862E-02 
476	 9.01340601075184E-02 
477	 9.00801285886469E-02 
478	 9.01958299035862E-02 
479	 9.03880845111459E-02 
480	 8.98170058022237E-02 
481	 8.92846201300374E-02 
482	 8.94534149154128E-02 
483	 0.089962923202403 
484	 9.05586998325384E-02 
485	 9.08119313961332E-02 
486	 9.10043219938684E-02 
487	 9.12193978196802E-02 
488	 9.13915749868076E-02 
489	 9.15120291592109E-02 
490	 9.15741453674281E-02 
491	 9.14637435442727E-02 
492	 9.13349979229132E-02 
493	 9.16571993476802E-02 
494	 0.091919805691162 
495	 9.18984802603645E-02 
496	 9.17160717668787E-02 
497	 9.16113722317004E-02 
498	 9.18673757218194E-02 
499	 9.21579139913441E-02 
500	 9.23677529273992E-02 
501	 9.24327988141816E-02 
502	 9.24637380030497E-02 
503	 9.25320049963046E-02 
504	 9.25864776003374E-02 
505	 9.26987226989276E-02 
506	 9.30115025266592E-02 
507	 9.30546813752555E-02 
508	 9.28623620447712E-02 
509	 9.31198697954951E-02 
510	 9.35493707962723E-02 
511	 9.38947268194313E-02 
512	 9.41018911281985E-02 
513	 9.40740263457448E-02 
514	 9.35404627271783E-02 
515	 0.093399949119868 
516	 9.38957723627209E-02 
517	 9.42357552992315E-02 
518	 9.44952669154399E-02 
519	 9.48089237855582E-02 
520	 0.09496918457663 
521	 9.49684895186184E-02 
522	 9.48488904794369E-02 
523	 9.49287628448592E-02 
524	 9.52780572388627E-02 
525	 9.52551191778021E-02 
526	 9.50813047400666E-02 
527	 0.09515766932729 
528	 9.54584054837401E-02 
529	 0.095845645940724 
530	 9.58826236234136E-02 
531	 9.58745938149835E-02 
532	 9.60123741356302E-02 
533	 9.60506110774621E-02 
534	 9.60318798610176E-02 
535	 9.60916564623371E-02 
536	 0.096245706167236 
537	 9.64645907031617E-02 
538	 9.65893740091341E-02 
539	 9.66369667965333E-02 
540	 9.66366707400034E-02 
541	 9.66495559760531E-02 
542	 9.67195560985274E-02 
543	 9.69324857997457E-02 
544	 9.70770115370679E-02 
545	 9.70663766477221E-02 
546	 9.69855288141812E-02 
547	 9.69574941620701E-02 
548	 9.71257447089618E-02 
549	 9.72161296836226E-02 
550	 9.72462046414281E-02 
551	 9.75519586312186E-02 
552	 9.77633239035876E-02 
553	 0.097678665642137 
554	 9.77194868355699E-02 
555	 9.78420870969125E-02 
556	 9.78469092360914E-02 
557	 9.79038131738856E-02 
558	 0.098040889129158 
559	 9.80902307972936E-02 
560	 9.83093086928967E-02 
561	 9.88820509933457E-02 
562	 9.89416910557395E-02 
563	 9.86535551393602E-02 
564	 9.88855260271928E-02 
565	 9.90971580526669E-02 
566	 9.91056578490562E-02 
567	 9.91535938827501E-02 
568	 9.92243021034193E-02 
569	 9.92714055559557E-02 
570	 9.91675527178824E-02 
571	 9.90036150053005E-02 
572	 9.91869854815094E-02 
573	 9.93827811669636E-02 
574	 9.93834482019337E-02 
575	 9.92911515335206E-02 
576	 9.91992940224829E-02 
577	 9.92356519163046E-02 
578	 9.94738432346875E-02 
579	 9.98315211409624E-02 
580	 0.099873811864145 
581	 9.98262212742266E-02 
582	 9.99022600969105E-02 
583	 9.99964633186471E-02 
584	 0.100109561483523 
585	 0.100295233790549 
586	 0.100428507181033 
587	 0.100463157064413 
588	 0.100505406623242 
589	 0.100465777805073 
590	 0.100224245211077 
591	 0.1001294559013 
592	 0.100316145669038 
593	 0.100937204221572 
594	 0.101383610232025 
595	 0.101310280695321 
596	 0.101136720654088 
597	 0.101014928550072 
598	 0.101091941675515 
599	 0.101227364000354 
600	 0.101347702243973 
601	 0.101334670752619 
602	 0.101391152542773 
603	 0.101657083371212 
604	 0.101504832557311 
605	 0.101052464027399 
606	 0.100843038912017 
607	 0.100813474793211 
608	 0.100934676215477 
609	 0.101014810201969 
610	 0.101142001534209 
611	 0.101447104497621 
612	 0.101424684847687 
613	 0.101150100846598 
614	 0.101281641513883 
615	 0.101574428998885 
616	 0.101821342967838 
617	 0.101622698087877 
618	 0.101284768156519 
619	 0.101428322754389 
620	 0.101545960863607 
621	 0.101569157463358 
622	 0.101958749513556 
623	 0.102000488335663 
624	 0.101151783937222 
625	 0.101223243074543 
626	 0.101990875902637 
627	 0.101955418071391 
628	 0.101963108160902 
629	 0.102240590567583 
630	 0.102224317937357 
631	 0.10207591206383 
632	 0.102051917405301 
633	 0.102259861091254 
634	 0.102554542982229 
635	 0.102380667767502 
636	 0.102150648521768 
637	 0.102118111921613 
638	 0.102187797992149 
639	 0.10225742167699 
640	 0.102147095521502 
641	 0.102275191987998 
642	 0.102654607736164 
643	 0.1027620892627 
644	 0.102773054309097 
645	 0.102832812175023 
646	 0.102474355068179 
647	 0.10200928922053 
648	 0.102470976663163 
649	 0.102888439786957 
650	 0.102916255193332 
651	 0.103046069902228 
652	 0.103108231661935 
653	 0.102865368601299 
654	 0.102793029062785 
655	 0.102940552670086 
656	 0.103055583116703 
657	 0.103019659027036 
658	 0.102777138948895 
659	 0.102467730086407 
660	 0.102120543919498 
661	 0.101726665051372 
662	 0.101579534328152 
663	 0.101677037724708 
664	 0.101601598603318 
665	 0.101531191163762 
666	 0.101597109873591 
667	 0.101382411517163 
668	 0.10105644596274 
669	 0.101250518820634 
670	 0.101166921382196 
671	 0.100703391072534 
672	 0.101026391966667 
673	 0.101520449858262 
674	 0.101398520044266 
675	 0.101434632843148 
676	 0.101645897793558 
677	 0.101538463582918 
678	 0.101482792622685 
679	 0.101653523811775 
680	 0.10173883646056 
681	 0.101870001339735 
682	 0.102310611105898 
683	 0.102766081463307 
684	 0.103113003143774 
685	 0.103252332803239 
686	 0.103439032020041 
687	 0.10387584803868 
688	 0.104136763288561 
689	 0.104254491012423 
690	 0.10457171750273 
691	 0.104636843024039 
692	 0.104455368968419 
693	 0.10465783451163 
694	 0.105260490422719 
695	 0.106162440795164 
696	 0.106087373591183 
697	 0.105466625127722 
698	 0.106244880693096 
699	 0.106788453595664 
700	 0.106397606974487 
701	 0.105979399109703 
702	 0.105869890973112 
703	 0.106367307284028 
704	 0.106664218178982 
705	 0.106684711757522 
706	 0.10696301187501 
707	 0.107202124421118 
708	 0.107239577709056 
709	 0.107470507541294 
710	 0.107679035167203 
711	 0.10734441423939 
712	 0.107242626182436 
713	 0.107537260571282 
714	 0.107761147291574 
715	 0.107948435211776 
716	 0.108148710257417 
717	 0.10823767752092 
718	 0.108290690245824 
719	 0.108625758459674 
720	 0.108854268401522 
721	 0.108891031505275 
722	 0.109128901377859 
723	 0.109336946387013 
724	 0.109222118150867 
725	 0.109391669100683 
726	 0.109754615232261 
727	 0.109599285740864 
728	 0.109466970837344 
729	 0.109608439424585 
730	 0.109749352024964 
731	 0.109790058418498 
732	 0.10964300365373 
733	 0.10964111706058 
734	 0.109730275786467 
735	 0.109408866452119 
736	 0.109197656715105 
737	 0.109415619863731 
738	 0.109522101582288 
739	 0.109535462665089 
740	 0.109627733297946 
741	 0.109868685714504 
742	 0.110191308572028 
743	 0.110215229954325 
744	 0.110209967509376 
745	 0.110398250840548 
746	 0.110489370286001 
747	 0.110452307347467 
748	 0.11029309857893 
749	 0.110343949835876 
750	 0.110661341746872 
751	 0.110817782642705 
752	 0.110754520368383 
753	 0.110476503144727 
754	 0.11067471628531 
755	 0.111160350533408 
756	 0.110994003638995 
757	 0.110644525358907 
758	 0.110371618170486 
759	 0.110685749879911 
760	 0.111884475947024 
761	 0.113250813326268 
762	 0.113419775070729 
763	 0.112746827534662 
764	 0.112740861611608 
765	 0.112556146972365 
766	 0.112024861851411 
767	 0.111638472688229 
768	 0.111547134236751 
769	 0.111941163760736 
770	 0.112062754713379 
771	 0.11185218260328 
772	 0.111850949856347 
773	 0.111898584509322 
774	 0.111915987768187 
775	 0.112200739070218 
776	 0.112509049934296 
777	 0.112336666108925 
778	 0.112250595423942 
779	 0.1123775109423 
780	 0.11246658594495 
781	 0.112503749989754 
782	 0.112483439628239 
783	 0.112420524881794 
784	 0.112383659268572 
785	 0.112506388167848 
786	 0.112614999746193 
787	 0.112679542148821 
788	 0.112867757833111 
789	 0.113056629175812 
790	 0.113124184469828 
791	 0.113105983682877 
792	 0.113116330498682 
793	 0.113455715262219 
794	 0.1135030278508 
795	 0.113173369226175 
796	 0.113272520244134 
797	 0.113504537535122 
798	 0.113534480803776 
799	 0.113660711113113 
800	 0.113807358279574 
801	 0.113592750553973 
802	 0.113544641132288 
803	 0.113828846059973 
804	 0.114103326272599 
805	 0.114225642657913 
806	 0.11409525653434 
807	 0.114215442113736 
808	 0.114483717003839 
809	 0.114218604235661 
810	 0.114281991660166 
811	 0.114944235311751 
812	 0.115434764262079 
813	 0.115329370226646 
814	 0.114209052457657 
815	 0.113866506665037 
816	 0.114497148933198 
817	 0.115008011229727 
818	 0.115239349266773 
819	 0.115181983860728 
820	 0.115572639138889 
821	 0.115723772902979 
822	 0.11479807074899 
823	 0.114470103200312 
824	 0.114866420603072 
825	 0.115127987763702 
826	 0.115381548794477 
827	 0.115591025835861 
828	 0.115368645971265 
829	 0.11503558337689 
830	 0.115025263297182 
831	 0.115177379762792 
832	 0.115411839658399 
833	 0.115641704343583 
834	 0.115663699551565 
835	 0.115472026875099 
836	 0.115621606630703 
837	 0.115786420164937 
838	 0.115557633131228 
839	 0.115181508189554 
840	 0.115033411701302 
841	 0.116127100194711 
842	 0.116555306547112 
843	 0.115715218246075 
844	 0.115394418026804 
845	 0.115626274385265 
846	 0.116229222679999 
847	 0.116184422024994 
848	 0.11568508831925 
849	 0.116061182844341 
850	 0.115969327154046 
851	 0.115070106828782 
852	 0.114770556068631 
853	 0.114783086378929 
854	 0.11469032225127 
855	 0.114863480182901 
856	 0.115301997134212 
857	 0.115954972721969 
858	 0.116126983270863 
859	 0.115694319550194 
860	 0.115418069404079 
861	 0.115242881835904 
862	 0.115150293619414 
863	 0.116295267352419 
864	 0.11770499003506 
865	 0.116596745381841 
866	 0.115698328760446 
867	 0.115931959991617 
868	 0.116686281912957 
869	 0.117538655551607 
870	 0.118013519494278 
871	 0.116831926190051 
872	 0.115146357376244 
873	 0.115498612293829 
874	 0.116053998167255 
875	 0.116327416576665 
876	 0.11671695973481 
877	 0.117037042814781 
878	 0.117209946598039 
879	 0.117850550266985 
880	 0.118295717691181 
881	 0.117365999380152 
882	 0.117124673963039 
883	 0.117655903724516 
884	 0.117101683778991 
885	 0.116573811452538 
886	 0.116674234294337 
887	 0.116789908849022 
888	 0.117328632922298 
889	 0.118850630689679 
890	 0.11898297272133 
891	 0.117882885955637 
892	 0.117952846726733 
893	 0.117923448943362 
894	 0.117437289539659 
895	 0.117955474198054 
896	 0.11826363712459 
897	 0.116949339447515 
898	 0.116999051018014 
899	 0.118247524269585 
900	 0.118598795414457 
901	 0.119075685937529 
902	 0.119651920461475 
903	 0.118918700692168 
904	 0.118207704591189 
905	 0.118545483626343 
906	 0.118961212556056 
907	 0.119570242405228 
908	 0.120910925351722 
909	 0.120075192931299 
910	 0.117525606288729 
911	 0.118548225146786 
912	 0.119306641942009 
913	 0.117920597815882 
914	 0.117858968540238 
915	 0.118611824543782 
916	 0.119113089951746 
917	 0.119369553496574 
918	 0.119282171068586 
919	 0.118560478520074 
920	 0.118545285546685 
921	 0.119402257448324 
922	 0.119304312806725 
923	 0.11890605375241 
924	 0.118896618101299 
925	 0.119405593019514 
926	 0.119867965578465 
927	 0.118923162059968 
928	 0.119155821952131 
929	 0.121076754504054 
930	 0.122266281898044 
931	 0.121347038834911 
932	 0.117822638535908 
933	 0.118091188019121 
934	 0.120890559105192 
935	 0.122477009226021 
936	 0.126054035251356 
937	 0.130677057107152 
938	 0.133551826246514 
939	 0.129185505813148 
940	 0.119427981937549 
941	 0.119404736701614 
942	 0.122383506894465 
943	 0.123002303559124 
944	 0.122933738654167 
945	 0.121985970799292 
946	 0.119713590522617 
947	 0.119560833782288 
948	 0.121468170544271 
949	 0.122313502262729 
950	 0.121555488190777 
951	 0.119148305591885 
952	 0.116214473274919 
953	 0.114627956541052 
954	 0.115730708366079 
955	 0.116555368913601 
956	 0.116568740782965 
957	 0.115726135315034 
958	 0.117319759765608 
959	 0.120971300104646 
960	 0.12254088301399 
961	 0.12392107087857 
962	 0.125437357542226 
963	 0.124248196033308 
964	 0.120466081082815 
965	 0.115165662765062 
966	 0.1197129517679 
967	 0.127592036561186 
968	 0.122476902199171 
969	 0.119978800034956 
970	 0.122327865556271 
971	 0.12069613805556 
972	 0.120572145916928 
973	 0.12415758656135 
974	 0.125562118620138 
975	 0.123502324986457 
976	 0.117603729120957 
977	 0.112701648315488 
978	 0.112607541500697 
979	 0.122964645907901 
980	 0.128442017942915 
981	 0.125699751352095 
982	 0.121630925317429 
983	 0.116892680598005 
984	 0.113452407612398 
985	 0.118861717116158 
986	 0.124796045350662 
987	 0.12223864255411 
988	 0.119812285341362 
989	 0.119620210574518 
990	 0.122577709858193 
991	 0.123755278904888 
992	 0.122541295193528 
993	 0.122530802652728 
994	 0.123186686446411 
995	 0.124120837435423 
996	 0.124555658169452 
997	 0.124913680799681 
998	 0.125541194215943 
999	 0.124913141518796 
1000	 0.123976881269618 
1001	 0.124834052597028 
1002	 0.123291515747559 
1003	 0.119788811331764 
1004	 0.11894506582701 
1005	 0.121318812102128 
1006	 0.125969280852655 
1007	 0.127434193637828 
1008	 0.125946777184806 
1009	 0.122623411129825 
1010	 0.123379072686199 
1011	 0.124003352717379 
1012	 0.118121020652427 
1013	 0.118829911082708 
1014	 0.123835095584007 
1015	 0.119829589465531 
1016	 0.120899014367805 
1017	 0.127787386514247 
1018	 0.126073004168563 
1019	 0.119867837835845 
1020	 0.113991452077903 
1021	 0.120728267377889 
1022	 0.130949746107095 
1023	 0.134514796540262 
1024	 0.135240882979494 
1025	 0.133417856587108 
1026	 0.128983573087303 
1027	 0.126347434840349 
1028	 0.125317879721342 
1029	 0.121343614569688 
1030	 0.119248929285476 
1031	 0.119598923245057 
1032	 0.115382456416093 
1033	 0.121923134065202 
1034	 0.142917798160258 
1035	 0.136443439194329 
1036	 0.120344585370001 
1037	 0.117654638350183 
1038	 0.117897698594063 
1039	 0.12127806802731 
1040	 0.129940792601236 
1041	 0.132866905604379 
1042	 0.130688333469494 
1043	 0.133559629370075 
1044	 0.135384850554154 
1045	 0.134915268752952 
1046	 0.137375166269029 
1047	 0.129425990491117 
1048	 0.108977857861544 
1049	 0.118246166010782 
1050	 0.134336526369719 
1051	 0.133666308807521 
1052	 0.124096068549176 
1053	 0.117895745044 
1054	 0.130822662875075 
1055	 0.13261468959356 
1056	 0.125057959545848 
1057	 0.131068976632255 
1058	 0.119051786625144 
1059	 9.56587194071695E-02 
1060	 0.120484474211657 
1061	 0.139443888512193 
1062	 0.133740499841401 
1063	 0.150613699228072 
1064	 0.154162821086875 
1065	 0.12205912413099 
1066	 0.115811375608358 
1067	 0.123291440264355 
1068	 0.122255838308614 
1069	 0.125712920494606 
1070	 0.135995666108094 
1071	 0.151816877712392 
1072	 0.119955311085967 
1073	 6.53289967215838E-02 
1074	 7.38431972150572E-02 
1075	 0.113861449615026 
