Wavelength	AVEI200261.asd
325	 6.83522602799048E-02 
326	 7.14371173921232E-02 
327	 8.32686320745387E-02 
328	 6.77678587267175E-02 
329	 6.37848451262618E-02 
330	 7.91703025040907E-02 
331	 7.87619708031507E-02 
332	 7.19573652695865E-02 
333	 7.02367223102926E-02 
334	 7.09060211189557E-02 
335	 7.22438912985621E-02 
336	 7.06710884009946E-02 
337	 7.20501708513713E-02 
338	 7.63696396583879E-02 
339	 7.51229110128017E-02 
340	 7.25984949912028E-02 
341	 7.26210483939373E-02 
342	 7.28092971708599E-02 
343	 7.28854090256122E-02 
344	 7.28823708237519E-02 
345	 7.37789099142811E-02 
346	 0.074992132087729 
347	 7.32206833595724E-02 
348	 0.072110267603881 
349	 7.36028314391862E-02 
350	 7.15141606801394E-02 
351	 6.86619863327087E-02 
352	 7.06339134205787E-02 
353	 0.071850980599794 
354	 7.12528768993668E-02 
355	 7.05907932933003E-02 
356	 6.90511600353047E-02 
357	 0.066909432099157 
358	 0.07029579100542 
359	 7.43867533632637E-02 
360	 7.10364494666817E-02 
361	 7.02332750872708E-02 
362	 0.072878480702655 
363	 7.35548973940472E-02 
364	 7.26283782231099E-02 
365	 7.08169060940454E-02 
366	 7.15124799852441E-02 
367	 0.072428033451542 
368	 7.01092065867061E-02 
369	 6.95858730896547E-02 
370	 7.10586566830586E-02 
371	 0.071245899030236 
372	 7.08258183435526E-02 
373	 7.03739251256926E-02 
374	 7.17482059386709E-02 
375	 7.26393070551704E-02 
376	 6.97793644893931E-02 
377	 6.93059569942159E-02 
378	 7.11522195278469E-02 
379	 6.98753979361336E-02 
380	 6.94252948240391E-02 
381	 7.12735247437998E-02 
382	 7.14686410105756E-02 
383	 7.07837689930613E-02 
384	 7.06874827652037E-02 
385	 7.03840277310149E-02 
386	 6.98752225115761E-02 
387	 6.95335821266217E-02 
388	 6.97288205128205E-02 
389	 7.02887928742858E-02 
390	 6.92102665685328E-02 
391	 6.78784328413948E-02 
392	 6.80551150113756E-02 
393	 7.00386155684684E-02 
394	 7.22228467360852E-02 
395	 6.99466692274966E-02 
396	 6.87653220494017E-02 
397	 7.03951984660396E-02 
398	 7.00914063938267E-02 
399	 6.88680800310384E-02 
400	 6.81594853084133E-02 
401	 6.89067048039617E-02 
402	 7.03041324920888E-02 
403	 7.00155531639539E-02 
404	 6.96553888689804E-02 
405	 6.98702132734043E-02 
406	 7.03352051474486E-02 
407	 7.06234883099469E-02 
408	 7.02638393976708E-02 
409	 6.97604914177475E-02 
410	 6.93724734870183E-02 
411	 6.93594658978273E-02 
412	 6.97737230136899E-02 
413	 7.04361607431819E-02 
414	 0.070110160374966 
415	 6.96517878066491E-02 
416	 7.02901823739075E-02 
417	 7.06588347760122E-02 
418	 7.06914385064095E-02 
419	 7.12913120593788E-02 
420	 7.15775796112632E-02 
421	 7.11432010834222E-02 
422	 7.06379655620741E-02 
423	 7.05066068917842E-02 
424	 7.12574934233109E-02 
425	 7.16676291091745E-02 
426	 7.16192899826724E-02 
427	 7.19330196722131E-02 
428	 7.24186045108155E-02 
429	 7.29327738827084E-02 
430	 7.34842557764257E-02 
431	 7.37755447512171E-02 
432	 7.33471552433745E-02 
433	 7.28185793574192E-02 
434	 7.24698527798322E-02 
435	 7.24569434280398E-02 
436	 7.27253935231304E-02 
437	 7.31935729325149E-02 
438	 7.35551963789651E-02 
439	 0.073749691206993 
440	 0.073750109249369 
441	 7.39320420930863E-02 
442	 7.42944460801954E-02 
443	 7.42676829999503E-02 
444	 7.42423978895586E-02 
445	 7.45605261074259E-02 
446	 7.52451617409046E-02 
447	 7.59841855684859E-02 
448	 7.61114623969731E-02 
449	 7.60683265766917E-02 
450	 7.61142233682737E-02 
451	 0.076745125602649 
452	 7.72986945725154E-02 
453	 7.71221735922624E-02 
454	 7.68607309997092E-02 
455	 7.67732772109696E-02 
456	 7.71835353143652E-02 
457	 7.75358840498836E-02 
458	 7.76682061821775E-02 
459	 7.82211017478188E-02 
460	 7.86410543216033E-02 
461	 7.82478867486063E-02 
462	 7.81634925818095E-02 
463	 7.85045427207396E-02 
464	 7.87792505392495E-02 
465	 0.078972487969594 
466	 7.90591847205935E-02 
467	 7.90577304447057E-02 
468	 7.91057197565658E-02 
469	 7.93928074847406E-02 
470	 7.94937923754134E-02 
471	 7.94793729978704E-02 
472	 8.00517813880832E-02 
473	 8.04644398104387E-02 
474	 8.02865070674763E-02 
475	 8.01798589533785E-02 
476	 8.01653934790465E-02 
477	 8.01038166075037E-02 
478	 0.080107927125809 
479	 8.02042918957876E-02 
480	 8.03443007298431E-02 
481	 8.05492852312963E-02 
482	 8.08409043665399E-02 
483	 8.12864634546051E-02 
484	 0.081699806642791 
485	 8.16184709520293E-02 
486	 8.15141874141881E-02 
487	 8.15674262436438E-02 
488	 8.16695223765741E-02 
489	 8.18510787409407E-02 
490	 8.21370093842681E-02 
491	 8.23548934546865E-02 
492	 8.25075761738698E-02 
493	 8.27179920595603E-02 
494	 8.28786527322634E-02 
495	 8.29609598445385E-02 
496	 8.30404141701208E-02 
497	 8.33054587154818E-02 
498	 8.39822520959959E-02 
499	 8.43210407067359E-02 
500	 0.084255672120041 
501	 8.42141621795146E-02 
502	 8.44472631691341E-02 
503	 8.50535182412469E-02 
504	 8.55570123012773E-02 
505	 8.56873876063738E-02 
506	 8.50815621986228E-02 
507	 8.50939880828511E-02 
508	 8.58442872703543E-02 
509	 8.60298477240754E-02 
510	 8.61824703567077E-02 
511	 8.67191579869598E-02 
512	 8.71298888662997E-02 
513	 8.73497256019121E-02 
514	 8.73979042413586E-02 
515	 8.75863898760884E-02 
516	 8.79859828364268E-02 
517	 8.82296714944275E-02 
518	 8.84094071620932E-02 
519	 8.86415493932741E-02 
520	 8.85142772475962E-02 
521	 8.82463061791572E-02 
522	 8.85953529309255E-02 
523	 8.91017854940295E-02 
524	 8.95034433670357E-02 
525	 8.95087198231812E-02 
526	 0.089577487839278 
527	 9.04036148193871E-02 
528	 9.08336112041248E-02 
529	 9.07415791489343E-02 
530	 9.08254663713569E-02 
531	 9.09512562927618E-02 
532	 9.10466095148201E-02 
533	 9.12676899904868E-02 
534	 9.15368633419867E-02 
535	 9.16464337222424E-02 
536	 0.091907558508241 
537	 0.092328529316203 
538	 9.24307717221879E-02 
539	 9.26313871931196E-02 
540	 9.33081691309929E-02 
541	 9.35551451962359E-02 
542	 9.34596265881078E-02 
543	 9.37571113616867E-02 
544	 0.094049619559605 
545	 9.41693766880608E-02 
546	 9.40633426370558E-02 
547	 9.40978333141883E-02 
548	 9.47442891733073E-02 
549	 9.49718754036003E-02 
550	 9.47727503793238E-02 
551	 9.50827381565619E-02 
552	 9.53864194356843E-02 
553	 9.53787060744165E-02 
554	 9.53297818217416E-02 
555	 9.54737177967158E-02 
556	 9.61896831234524E-02 
557	 9.67985205442159E-02 
558	 9.69795110141003E-02 
559	 9.64577688518937E-02 
560	 9.60193056837509E-02 
561	 9.63742697273009E-02 
562	 9.68555480800242E-02 
563	 9.72992212071257E-02 
564	 9.77367588029622E-02 
565	 9.76595283240523E-02 
566	 9.70797213788052E-02 
567	 9.74692221989561E-02 
568	 9.81603524654236E-02 
569	 9.81303268260614E-02 
570	 0.09814320194068 
571	 9.82849069245459E-02 
572	 9.81871490156763E-02 
573	 9.82139859559099E-02 
574	 9.85447471349933E-02 
575	 9.86559818235853E-02 
576	 9.87378770328231E-02 
577	 9.92943158748255E-02 
578	 9.96036545409834E-02 
579	 9.94409546961228E-02 
580	 9.88658478428398E-02 
581	 9.86513908259335E-02 
582	 9.93731211965687E-02 
583	 9.93258956293775E-02 
584	 9.88017442554079E-02 
585	 0.099414019118471 
586	 9.99857806412189E-02 
587	 0.100045495522305 
588	 9.97559650375658E-02 
589	 9.94953157982596E-02 
590	 9.97417425347667E-02 
591	 9.99616794192209E-02 
592	 0.100048970803948 
593	 0.100173319155837 
594	 0.100145476812882 
595	 9.98962302232035E-02 
596	 9.97898640391496E-02 
597	 9.98091419267618E-02 
598	 0.0998077504403 
599	 0.100109318096052 
600	 0.100625059203936 
601	 0.100655691903141 
602	 0.100191509324703 
603	 9.93735262380274E-02 
604	 9.97876719907874E-02 
605	 0.100892781287234 
606	 0.100582470747264 
607	 0.100194270670549 
608	 0.100219090851559 
609	 0.100361232356863 
610	 0.100463705667974 
611	 0.100358652896365 
612	 0.100408699889702 
613	 0.100609764970845 
614	 0.100619643991158 
615	 0.100710945502777 
616	 0.100952641062614 
617	 0.1004827717183 
618	 0.099826260449141 
619	 0.100040321194062 
620	 0.100761002672129 
621	 0.101512297144463 
622	 0.100739784859731 
623	 9.99604907407917E-02 
624	 0.100531665984667 
625	 0.10099323592577 
626	 0.101048470284999 
627	 0.100606577316629 
628	 0.100484189347831 
629	 0.100915754561776 
630	 0.100963543117484 
631	 0.100877422060807 
632	 0.10106491622283 
633	 0.101008537015401 
634	 0.100705398806539 
635	 0.100483660735334 
636	 0.100546179656974 
637	 0.100948571211397 
638	 0.101039881141817 
639	 0.100969697322806 
640	 0.101192021657612 
641	 0.101078373705574 
642	 0.100683215876062 
643	 0.101034343132783 
644	 0.101682843211072 
645	 0.102154618550742 
646	 0.101950324016746 
647	 0.101347959049614 
648	 0.101300220064883 
649	 0.101633996883327 
650	 0.102110342709675 
651	 0.10172439319784 
652	 0.101050533129671 
653	 0.100866954022173 
654	 0.100822132750943 
655	 0.100901635661966 
656	 0.101353321570482 
657	 0.101573820501714 
658	 0.10117383943755 
659	 0.100120739098081 
660	 9.91779026320715E-02 
661	 9.95763901545777E-02 
662	 9.92726606194631E-02 
663	 9.81367962364365E-02 
664	 9.83116223353536E-02 
665	 9.85749672249857E-02 
666	 9.79029890094014E-02 
667	 9.72962874634828E-02 
668	 9.70326725563172E-02 
669	 9.73840160475315E-02 
670	 9.75937925103687E-02 
671	 9.74256024490084E-02 
672	 9.74883558705022E-02 
673	 0.097402373225074 
674	 9.67105405628492E-02 
675	 9.62943352095096E-02 
676	 9.64521350777061E-02 
677	 9.75159129214787E-02 
678	 9.80020638553351E-02 
679	 9.73393031359591E-02 
680	 9.78979484058611E-02 
681	 9.88957211427466E-02 
682	 9.86317311792086E-02 
683	 9.88005878941142E-02 
684	 9.96160993279012E-02 
685	 9.99729780879825E-02 
686	 0.100305349574399 
687	 0.100989311606508 
688	 0.101693961582467 
689	 0.102313505316905 
690	 0.10291131152299 
691	 0.103481184969053 
692	 0.104065158641669 
693	 0.104845537807264 
694	 0.105301217002191 
695	 0.104938519451939 
696	 0.10549837185278 
697	 0.10675498520212 
698	 0.107263031963045 
699	 0.107368454130191 
700	 0.107257219728093 
701	 0.107376838479826 
702	 0.107611359776493 
703	 0.107715470241049 
704	 0.107900655427788 
705	 0.108130702377071 
706	 0.10812116978602 
707	 0.108051784727997 
708	 0.108058132724159 
709	 0.108197585958316 
710	 0.108453530098493 
711	 0.108795610522781 
712	 0.108993460279382 
713	 0.108993744552299 
714	 0.108873651857238 
715	 0.109076990282496 
716	 0.110022412692022 
717	 0.110859130778807 
718	 0.111298301440083 
719	 0.111131674037939 
720	 0.110964771198732 
721	 0.111047062691643 
722	 0.111138949952551 
723	 0.1110946532554 
724	 0.110754476182182 
725	 0.110745637212827 
726	 0.111136791667496 
727	 0.111668755501664 
728	 0.11183718924244 
729	 0.111471467306132 
730	 0.111399534207568 
731	 0.111573658849404 
732	 0.111782699224545 
733	 0.111804102000698 
734	 0.111673028056473 
735	 0.111676774150542 
736	 0.111797535553102 
737	 0.111971692352885 
738	 0.11178686075689 
739	 0.111359286509891 
740	 0.110958497347847 
741	 0.111134924064267 
742	 0.111811922727554 
743	 0.11187144370875 
744	 0.111746378262052 
745	 0.11182279647609 
746	 0.111768110074791 
747	 0.111698613845363 
748	 0.111989986032638 
749	 0.112398417344912 
750	 0.112803613472349 
751	 0.113154093254109 
752	 0.113253237289714 
753	 0.112939073288159 
754	 0.112957770467484 
755	 0.113260942909027 
756	 0.113287496167388 
757	 0.112941686774036 
758	 0.112262735146677 
759	 0.112372181953179 
760	 0.113707788560025 
761	 0.115602200195438 
762	 0.116089257382038 
763	 0.115568622886034 
764	 0.116400239838732 
765	 0.116450391719211 
766	 0.11535382754611 
767	 0.114656752126829 
768	 0.114249739489833 
769	 0.113909345265668 
770	 0.11380137007422 
771	 0.113917076009745 
772	 0.114103663277571 
773	 0.114221607820826 
774	 0.1142358993379 
775	 0.114780935969793 
776	 0.115393934803018 
777	 0.11507415689206 
778	 0.115130992970493 
779	 0.115739553199022 
780	 0.115952858854692 
781	 0.115624880752591 
782	 0.114773441510134 
783	 0.114569035268725 
784	 0.115050847774263 
785	 0.115944336808514 
786	 0.115974682295064 
787	 0.114992998488196 
788	 0.114701782928168 
789	 0.115023289140648 
790	 0.115714960270166 
791	 0.115649454139428 
792	 0.115225300321055 
793	 0.116039469681976 
794	 0.116459630672712 
795	 0.11613325307309 
796	 0.116437811343974 
797	 0.116801755910168 
798	 0.116600430250333 
799	 0.116429440500169 
800	 0.116408482874646 
801	 0.116540701454847 
802	 0.116711664097814 
803	 0.116741049169888 
804	 0.115859236661862 
805	 0.115523785629413 
806	 0.117195725858987 
807	 0.117710473605996 
808	 0.117057493963788 
809	 0.11724366591726 
810	 0.117163506286848 
811	 0.116622205113154 
812	 0.117327099283051 
813	 0.118241795744216 
814	 0.117807515646768 
815	 0.11813220697925 
816	 0.119215207106708 
817	 0.119200820515851 
818	 0.119483277651968 
819	 0.120254588663983 
820	 0.119110214695771 
821	 0.117839003966041 
822	 0.118671970925342 
823	 0.118635106908029 
824	 0.117615160864983 
825	 0.11706935251181 
826	 0.117490396235515 
827	 0.118860243138979 
828	 0.119414876348248 
829	 0.119247152303415 
830	 0.118744688038779 
831	 0.118855590447559 
832	 0.119643345920687 
833	 0.120836336232969 
834	 0.120577625857264 
835	 0.118604204319513 
836	 0.118307503696967 
837	 0.119117269301979 
838	 0.120015157990513 
839	 0.119903692008523 
840	 0.119104238558009 
841	 0.119434084004545 
842	 0.119228636964052 
843	 0.118085715851251 
844	 0.117827290800594 
845	 0.118335793412135 
846	 0.119238343923708 
847	 0.119111403332098 
848	 0.118334472570649 
849	 0.119014869199336 
850	 0.119485511379152 
851	 0.119187094658747 
852	 0.118993429488449 
853	 0.119252937083668 
854	 0.12011974071475 
855	 0.119034559788569 
856	 0.116987785500946 
857	 0.117584021725322 
858	 0.119077584265628 
859	 0.120477115108803 
860	 0.119913928029954 
861	 0.119014772134119 
862	 0.119352335638986 
863	 0.119095647088535 
864	 0.118624487937148 
865	 0.119613710904201 
866	 0.120393793821592 
867	 0.120417666843304 
868	 0.120167386659886 
869	 0.119829661302136 
870	 0.119572524380449 
871	 0.119594664724432 
872	 0.119599309264817 
873	 0.118896625949856 
874	 0.118941115179527 
875	 0.11990026614395 
876	 0.120452357040167 
877	 0.121163402629681 
878	 0.122197337766974 
879	 0.121560935386474 
880	 0.11994925220368 
881	 0.118894488298023 
882	 0.119488038366277 
883	 0.121002911942511 
884	 0.119638600101886 
885	 0.118509294795643 
886	 0.119241959432385 
887	 0.119832510241595 
888	 0.12016489486731 
889	 0.120373023776901 
890	 0.120415984520568 
891	 0.120298757862664 
892	 0.120067561422095 
893	 0.11965655299169 
894	 0.119098278196437 
895	 0.118520672160531 
896	 0.119097305313967 
897	 0.121906958150962 
898	 0.122100304385594 
899	 0.120535668476923 
900	 0.1222341308873 
901	 0.123689220008321 
902	 0.123814447235375 
903	 0.123055357065493 
904	 0.122469380324654 
905	 0.122784359824547 
906	 0.122932297408513 
907	 0.122293086209637 
908	 0.11999116300069 
909	 0.119891937774965 
910	 0.122267507757308 
911	 0.123451606629692 
912	 0.122663522905564 
913	 0.120179875435075 
914	 0.120896830542915 
915	 0.12340092542586 
916	 0.12524684367932 
917	 0.126044831435837 
918	 0.125453195547248 
919	 0.122843620023639 
920	 0.12091746841392 
921	 0.121058389634217 
922	 0.124800946310109 
923	 0.1261973464084 
924	 0.120618446561871 
925	 0.119131228138567 
926	 0.122517976782732 
927	 0.128103171582889 
928	 0.128552286777263 
929	 0.122674659687136 
930	 0.122443229464393 
931	 0.123833404499292 
932	 0.124072577641404 
933	 0.13006896280674 
934	 0.134628602021401 
935	 0.126199414924371 
936	 0.123924658439425 
937	 0.128568032481121 
938	 0.12882537952642 
939	 0.130290832185794 
940	 0.133264348547205 
941	 0.133418656773556 
942	 0.128852647049027 
943	 0.119751168812425 
944	 0.116385086990006 
945	 0.119268967707985 
946	 0.12669197793203 
947	 0.13075036272894 
948	 0.129265433196843 
949	 0.122022786857941 
950	 0.120021239486756 
951	 0.125876554468773 
952	 0.12328513387301 
953	 0.125580571748082 
954	 0.1425574042197 
955	 0.138048373020863 
956	 0.123833662136954 
957	 0.130620140105777 
958	 0.136840121980436 
959	 0.136374237740466 
960	 0.126514723444948 
961	 0.12567332721194 
962	 0.137493790889787 
963	 0.131242349567683 
964	 0.124110212103973 
965	 0.133112791122812 
966	 0.133448587478826 
967	 0.127150330371566 
968	 0.126098448716624 
969	 0.123196672031893 
970	 0.120316215484251 
971	 0.131760184314409 
972	 0.136685759944595 
973	 0.126927550383163 
974	 0.128938728076652 
975	 0.13425304993972 
976	 0.131167959294373 
977	 0.129130878336131 
978	 0.128200987763738 
979	 0.124922772416683 
980	 0.121425126753884 
981	 0.119652613336886 
982	 0.123645072197363 
983	 0.130089745398209 
984	 0.135653092661923 
985	 0.132143489706542 
986	 0.127429608366415 
987	 0.129822854870853 
988	 0.125808711713098 
989	 0.120178565801971 
990	 0.12789130148931 
991	 0.126261159250186 
992	 0.114715331392813 
993	 0.114723207779207 
994	 0.119287355496942 
995	 0.12337101682757 
996	 0.119511511267082 
997	 0.118151920375565 
998	 0.128358666893275 
999	 0.127521362159357 
1000	 0.121930058574494 
1001	 0.128951590581663 
1002	 0.132928205879639 
1003	 0.132331994223706 
1004	 0.136496920961401 
1005	 0.135951453577603 
1006	 0.128478314477199 
1007	 0.121727083076708 
1008	 0.122821995859118 
1009	 0.133949772524997 
1010	 0.126588578412713 
1011	 0.116170677469464 
1012	 0.127903596901812 
1013	 0.123053019859851 
1014	 0.108800763548931 
1015	 0.124107024790174 
1016	 0.133389825044737 
1017	 0.129438491874941 
1018	 0.130982276461286 
1019	 0.132950239163368 
1020	 0.131728291697337 
1021	 0.122478504658181 
1022	 0.117477692042345 
1023	 0.127264293131905 
1024	 0.12616116162664 
1025	 0.117362620032457 
1026	 0.114084593294033 
1027	 0.124425739864224 
1028	 0.138834028845672 
1029	 0.12212900868829 
1030	 0.122608618185421 
1031	 0.146481815159218 
1032	 0.142415523638586 
1033	 0.135826940637954 
1034	 0.140801585834721 
1035	 0.128913857746901 
1036	 0.114291191685217 
1037	 0.11537978306088 
1038	 0.120745260447442 
1039	 0.124354721174995 
1040	 0.119126712399944 
1041	 0.126221294555413 
1042	 0.140548877938694 
1043	 0.133279975821211 
1044	 0.122271976515028 
1045	 0.116070772739138 
1046	 0.116446531311147 
1047	 0.1259028366963 
1048	 0.140075710821993 
1049	 0.129097108342925 
1050	 0.123982838938903 
1051	 0.151607333271988 
1052	 0.139988859116617 
1053	 0.12016653411685 
1054	 0.149785076490289 
1055	 0.150180026579433 
1056	 0.12355856131033 
1057	 0.121809413741604 
1058	 0.128987350980175 
1059	 0.13251978022943 
1060	 9.28789059213823E-02 
1061	 9.30718433126991E-02 
1062	 0.151057321226568 
1063	 0.17515513009881 
1064	 0.152460167396536 
1065	 9.04247662106397E-02 
1066	 9.92757265505086E-02 
1067	 0.133364609898549 
1068	 0.13175399916923 
1069	 0.132416529252784 
1070	 0.12863585474833 
1071	 0.101975046913451 
1072	 0.123898633917419 
1073	 0.177515562361016 
1074	 0.182271921553837 
1075	 0.152815247880488 
