Wavelength	AVEI200240.asd
325	 4.05890562682838E-02 
326	 4.00468355902367E-02 
327	 4.42260969497846E-02 
328	 4.74666946479611E-02 
329	 4.64177985221961E-02 
330	 4.25766859432744E-02 
331	 5.08917276332537E-02 
332	 5.83223994525661E-02 
333	 5.29053684364939E-02 
334	 4.74462602285578E-02 
335	 4.39749457915853E-02 
336	 4.11831027541125E-02 
337	 3.89595484291803E-02 
338	 3.84945114704701E-02 
339	 4.58124291300186E-02 
340	 5.12105786310516E-02 
341	 4.74566253206916E-02 
342	 4.66624831289197E-02 
343	 4.77401451513479E-02 
344	 4.46257933873655E-02 
345	 4.38969729590215E-02 
346	 4.64636256427844E-02 
347	 4.94343569507495E-02 
348	 4.94139310026301E-02 
349	 4.49809683024764E-02 
350	 4.32191635134227E-02 
351	 4.40107219183074E-02 
352	 4.57415611851345E-02 
353	 4.43931968147347E-02 
354	 4.08143024704071E-02 
355	 4.19181651816009E-02 
356	 4.42121144425693E-02 
357	 4.52327169818358E-02 
358	 4.36898527280811E-02 
359	 4.19347028644904E-02 
360	 4.36638469530688E-02 
361	 0.044233058124019 
362	 4.30900921051606E-02 
363	 4.24027665542457E-02 
364	 4.20606224963342E-02 
365	 4.19769239573874E-02 
366	 0.041789775791124 
367	 4.17385206629196E-02 
368	 4.21996635327725E-02 
369	 4.20265709301686E-02 
370	 4.15087137398044E-02 
371	 0.042884686529122 
372	 4.22829074489959E-02 
373	 3.85735911272651E-02 
374	 3.94617000796945E-02 
375	 0.041883979186282 
376	 4.06067239101708E-02 
377	 4.00829591767974E-02 
378	 4.07484844968723E-02 
379	 4.05560447937038E-02 
380	 4.01799893014716E-02 
381	 4.01480606303704E-02 
382	 4.17761541997532E-02 
383	 4.30035616255497E-02 
384	 4.11204272532806E-02 
385	 4.08216253492915E-02 
386	 4.18821846936782E-02 
387	 3.98126515102408E-02 
388	 3.78634420749147E-02 
389	 3.77329226850451E-02 
390	 3.98936800351858E-02 
391	 4.13714460787963E-02 
392	 3.89284888115968E-02 
393	 3.81366718363313E-02 
394	 3.91496446464673E-02 
395	 3.87269823718856E-02 
396	 3.85901156899062E-02 
397	 3.91899823269466E-02 
398	 3.89534744527848E-02 
399	 3.84668371825175E-02 
400	 3.84432217984342E-02 
401	 3.77609153718309E-02 
402	 3.68557917878879E-02 
403	 3.73070333965247E-02 
404	 3.75247047783724E-02 
405	 3.70473880692959E-02 
406	 3.73576988339391E-02 
407	 3.77504405447493E-02 
408	 3.72334212345458E-02 
409	 3.71374334143605E-02 
410	 3.74548504842043E-02 
411	 0.037261285029737 
412	 3.71001990717377E-02 
413	 3.72150455620503E-02 
414	 3.74527233308909E-02 
415	 3.75838167831981E-02 
416	 3.73451247197163E-02 
417	 0.037229942293763 
418	 0.037262759290838 
419	 3.71110951459265E-02 
420	 3.70047929615931E-02 
421	 0.03706131554742 
422	 3.71808811577544E-02 
423	 3.72611596911017E-02 
424	 3.71803243219787E-02 
425	 3.70284944042041E-02 
426	 3.69165513436036E-02 
427	 3.71978321617568E-02 
428	 3.71879620795316E-02 
429	 3.65522192301324E-02 
430	 3.63382303550388E-02 
431	 3.66143728324883E-02 
432	 0.037273447801215 
433	 3.71788450152161E-02 
434	 3.64484961623115E-02 
435	 3.67786383628096E-02 
436	 3.70761528226713E-02 
437	 3.66749474300524E-02 
438	 3.65635379666884E-02 
439	 3.67264079901737E-02 
440	 3.68968518684546E-02 
441	 3.69179437795866E-02 
442	 3.68188649552334E-02 
443	 3.69845911226468E-02 
444	 3.72441983830053E-02 
445	 3.74318949005798E-02 
446	 3.74450896890969E-02 
447	 3.72795516694196E-02 
448	 3.69190877733419E-02 
449	 3.68733901139314E-02 
450	 3.71636342297989E-02 
451	 0.036901632053063 
452	 3.65408575812755E-02 
453	 3.65666534508565E-02 
454	 3.66128088557686E-02 
455	 3.66849274201069E-02 
456	 3.70014679383456E-02 
457	 3.72955773373828E-02 
458	 3.74151072242235E-02 
459	 3.72089115360265E-02 
460	 3.71131161907595E-02 
461	 3.76301737731231E-02 
462	 3.78875615715101E-02 
463	 3.77042376019663E-02 
464	 3.71038094898109E-02 
465	 3.70204618054682E-02 
466	 3.77336445884411E-02 
467	 3.73060085428992E-02 
468	 0.036651573910265 
469	 3.74188957006111E-02 
470	 3.76846188774456E-02 
471	 3.73159556758576E-02 
472	 3.77221707161102E-02 
473	 3.81519134890103E-02 
474	 3.81344329284931E-02 
475	 3.80318200346479E-02 
476	 3.78899182327967E-02 
477	 0.037697180665788 
478	 3.75498338445528E-02 
479	 3.74774654181014E-02 
480	 3.74175280867256E-02 
481	 3.74540554749248E-02 
482	 0.037668306285826 
483	 3.82286540693914E-02 
484	 3.88085786951357E-02 
485	 3.86282912453628E-02 
486	 3.81266419336196E-02 
487	 3.75985535775618E-02 
488	 3.75491357965838E-02 
489	 0.037884336773265 
490	 3.84148896054471E-02 
491	 3.84002466099741E-02 
492	 3.80811403638765E-02 
493	 3.86437948599774E-02 
494	 0.038660454739616 
495	 3.77396432405199E-02 
496	 3.75009695881694E-02 
497	 3.78062441319504E-02 
498	 3.82632389985105E-02 
499	 3.89424938529313E-02 
500	 3.95836444835224E-02 
501	 0.03937867761098 
502	 3.92460425020598E-02 
503	 3.96719884409612E-02 
504	 3.96651154655904E-02 
505	 3.95667816071551E-02 
506	 4.01425319429457E-02 
507	 4.07603342031346E-02 
508	 4.12386094360679E-02 
509	 4.16319988974111E-02 
510	 4.20078755027483E-02 
511	 4.24210270306549E-02 
512	 4.28503560544417E-02 
513	 4.32729222375971E-02 
514	 4.36222596598297E-02 
515	 4.40563127639739E-02 
516	 4.46750837878491E-02 
517	 4.57191334919386E-02 
518	 4.64725200093047E-02 
519	 4.62112385636729E-02 
520	 4.64607116235466E-02 
521	 4.72966382495323E-02 
522	 4.80607219666232E-02 
523	 4.85276313014132E-02 
524	 4.87072008214088E-02 
525	 4.95211607208255E-02 
526	 5.05778755029423E-02 
527	 5.11922539000525E-02 
528	 5.14139388779884E-02 
529	 5.15036972013319E-02 
530	 5.23483094480373E-02 
531	 0.053142255419916 
532	 5.33900690261013E-02 
533	 5.37784721751244E-02 
534	 5.42913425959891E-02 
535	 5.47263033006134E-02 
536	 5.49097526396864E-02 
537	 5.49110114512646E-02 
538	 5.53298959468511E-02 
539	 5.58559594421573E-02 
540	 5.61618007698927E-02 
541	 5.64357610833063E-02 
542	 5.66862205542149E-02 
543	 5.68409736876779E-02 
544	 5.70201393791512E-02 
545	 0.057285539552668 
546	 5.76327512186756E-02 
547	 5.80243821911851E-02 
548	 5.84132920536911E-02 
549	 5.85297685702184E-02 
550	 5.85022090044127E-02 
551	 5.89873217967073E-02 
552	 5.95691335623569E-02 
553	 5.99268848754295E-02 
554	 5.97556714914749E-02 
555	 5.94333291981851E-02 
556	 5.97346958896469E-02 
557	 5.99975336393821E-02 
558	 6.00557486712254E-02 
559	 6.02352813143999E-02 
560	 6.01455075944117E-02 
561	 5.95032721124815E-02 
562	 5.95989136196846E-02 
563	 6.02329575582775E-02 
564	 6.02658860379434E-02 
565	 6.01280707885989E-02 
566	 5.99256586266585E-02 
567	 5.93443902638184E-02 
568	 0.058880301586964 
569	 5.91763561803633E-02 
570	 0.059186011159617 
571	 0.058801414147083 
572	 5.86505209283213E-02 
573	 0.058451208900455 
574	 5.80605445577691E-02 
575	 5.77791407702347E-02 
576	 5.75306071329785E-02 
577	 5.70910966702119E-02 
578	 5.67378935190067E-02 
579	 5.66163543965462E-02 
580	 0.056924324298778 
581	 0.057197280690318 
582	 5.70414402077236E-02 
583	 0.05698099669741 
584	 5.69296089903298E-02 
585	 5.63651916471313E-02 
586	 5.59871146721799E-02 
587	 5.60456513411401E-02 
588	 5.61443256700147E-02 
589	 5.60577142270937E-02 
590	 5.55563707084205E-02 
591	 5.53428700869704E-02 
592	 0.055555387699821 
593	 0.056047036197113 
594	 5.63130544435364E-02 
595	 5.60655565899647E-02 
596	 5.56428888839201E-02 
597	 5.53944136672805E-02 
598	 5.58795222494895E-02 
599	 5.56890553194358E-02 
600	 5.47706759364936E-02 
601	 5.49743691061054E-02 
602	 5.52939069624771E-02 
603	 5.48596336607443E-02 
604	 5.50348516063193E-02 
605	 5.56634728024772E-02 
606	 5.58171868264329E-02 
607	 5.56469935770251E-02 
608	 5.51819145447392E-02 
609	 5.43701379855638E-02 
610	 0.053882597160688 
611	 5.45216104501039E-02 
612	 5.44149146036099E-02 
613	 5.35496312829174E-02 
614	 5.35564222924809E-02 
615	 5.36489045025374E-02 
616	 0.053379974041563 
617	 5.31670836629842E-02 
618	 5.30550369513714E-02 
619	 5.30212290628306E-02 
620	 5.30678107251453E-02 
621	 5.31259456741545E-02 
622	 5.29587019777787E-02 
623	 5.26609146000345E-02 
624	 5.23587020053042E-02 
625	 5.24771686159562E-02 
626	 5.28071449321681E-02 
627	 5.25398693546529E-02 
628	 5.25310303361961E-02 
629	 0.053042417581441 
630	 5.35237759571214E-02 
631	 5.35972616909275E-02 
632	 5.28903306363781E-02 
633	 5.27016788422405E-02 
634	 5.30205783824942E-02 
635	 5.26817887754353E-02 
636	 5.22622061336702E-02 
637	 5.20853674261979E-02 
638	 5.18464879433985E-02 
639	 5.15943043026624E-02 
640	 5.14934139502002E-02 
641	 5.12474816005269E-02 
642	 5.07855610147975E-02 
643	 5.02172701318075E-02 
644	 4.97391905988254E-02 
645	 4.95064271574676E-02 
646	 4.92909491910634E-02 
647	 0.049051680215176 
648	 4.88534754371709E-02 
649	 4.84175069059416E-02 
650	 4.77634942294572E-02 
651	 4.76222357734041E-02 
652	 4.77370782643851E-02 
653	 4.77244619013998E-02 
654	 4.72572919683033E-02 
655	 4.66543833442602E-02 
656	 0.047467620564237 
657	 4.81076107732303E-02 
658	 0.047614985203314 
659	 4.65324393961469E-02 
660	 4.56420124767543E-02 
661	 4.61181829976959E-02 
662	 4.57462350240429E-02 
663	 4.43373925230415E-02 
664	 4.39172448740451E-02 
665	 0.044181917524811 
666	 0.044711057145082 
667	 4.42277244838174E-02 
668	 4.31486186090823E-02 
669	 4.30255162498198E-02 
670	 4.32145345553695E-02 
671	 4.35191602512975E-02 
672	 4.40672525918838E-02 
673	 4.43976705648363E-02 
674	 4.40154942756388E-02 
675	 4.39007279189373E-02 
676	 4.41087233141091E-02 
677	 4.39936561630847E-02 
678	 0.044131746656769 
679	 4.47699820230894E-02 
680	 4.53191904622267E-02 
681	 4.57455640865226E-02 
682	 4.60982323725741E-02 
683	 0.046881600146427 
684	 4.81209278297169E-02 
685	 0.04937406743091 
686	 0.050512692933205 
687	 5.14264762371146E-02 
688	 5.26585650896213E-02 
689	 0.05428604176981 
690	 5.64310084419439E-02 
691	 5.86984580835349E-02 
692	 6.09806558535861E-02 
693	 6.31584813576985E-02 
694	 6.55143546353243E-02 
695	 0.068224304874168 
696	 7.08726947935313E-02 
697	 7.35670084893182E-02 
698	 7.69142127097748E-02 
699	 8.07248963632716E-02 
700	 8.47491944501452E-02 
701	 8.83467249493962E-02 
702	 9.17435602122762E-02 
703	 9.53955021318308E-02 
704	 9.88365746317223E-02 
705	 0.10205087757375 
706	 0.105175594953333 
707	 0.108436689585539 
708	 0.111976502951803 
709	 0.115814041848414 
710	 0.119678654433896 
711	 0.123119482474068 
712	 0.12630975345584 
713	 0.12923287456734 
714	 0.131687743322039 
715	 0.134242428217777 
716	 0.137559651198199 
717	 0.140575997588582 
718	 0.143370412162059 
719	 0.146582986183386 
720	 0.149326908608226 
721	 0.151364456197655 
722	 0.153840925809799 
723	 0.156464637191921 
724	 0.158632658946328 
725	 0.160179612051915 
726	 0.161273513794312 
727	 0.162955022386747 
728	 0.164824641164259 
729	 0.166666430186032 
730	 0.168411599823803 
731	 0.169835638562185 
732	 0.170696608134188 
733	 0.171200420828397 
734	 0.171741565124103 
735	 0.173385197176316 
736	 0.174623739012246 
737	 0.174553287859444 
738	 0.175067909914298 
739	 0.176177116686484 
740	 0.177401415736354 
741	 0.17833782482473 
742	 0.178858853101159 
743	 0.179102946079633 
744	 0.179635003195932 
745	 0.180869221609189 
746	 0.181902313713785 
747	 0.182593296579678 
748	 0.18297935715667 
749	 0.183637071266938 
750	 0.184635791543666 
751	 0.185039070733549 
752	 0.18522679745857 
753	 0.185674763029637 
754	 0.186281981666739 
755	 0.186976806320339 
756	 0.18755055218032 
757	 0.188441567499495 
758	 0.189816093269063 
759	 0.190528283459207 
760	 0.190879158075483 
761	 0.191590657897293 
762	 0.193041612321586 
763	 0.194098756712479 
764	 0.192375292783607 
765	 0.191137347359088 
766	 0.191393808229288 
767	 0.191827544274777 
768	 0.192520188782368 
769	 0.193774526960452 
770	 0.194302920003189 
771	 0.194117668507623 
772	 0.194515226053961 
773	 0.195066570784806 
774	 0.195494143571938 
775	 0.196009909778811 
776	 0.196526095451636 
777	 0.196860988440122 
778	 0.197016783389163 
779	 0.197157827604159 
780	 0.19790268773687 
781	 0.198805186041255 
782	 0.199460177900697 
783	 0.199636438639731 
784	 0.199727877102247 
785	 0.200683565863722 
786	 0.20132868973538 
787	 0.201505264552965 
788	 0.202571633861597 
789	 0.203341551898943 
790	 0.202739274482813 
791	 0.202443812104136 
792	 0.202760477713584 
793	 0.203622686972136 
794	 0.204298380110637 
795	 0.204640475221686 
796	 0.205644985479892 
797	 0.206370377815442 
798	 0.205890496707198 
799	 0.205237895302075 
800	 0.205051008116493 
801	 0.206569419519597 
802	 0.207263785000991 
803	 0.206494225675754 
804	 0.206989018062543 
805	 0.207742938032188 
806	 0.207558177842765 
807	 0.208743694521514 
808	 0.210686701139226 
809	 0.210240560166446 
810	 0.209880119070392 
811	 0.210649954686178 
812	 0.211773853926228 
813	 0.212718609164489 
814	 0.212846200990281 
815	 0.213253911254333 
816	 0.213958198617511 
817	 0.214038977554485 
818	 0.214115079369328 
819	 0.214586543832771 
820	 0.216092236159234 
821	 0.217497968623039 
822	 0.217436091946917 
823	 0.216643020677423 
824	 0.21600245385675 
825	 0.217302346556089 
826	 0.218674638834383 
827	 0.219304173968738 
828	 0.219367897340302 
829	 0.219105728188463 
830	 0.218853500136278 
831	 0.2197803950141 
832	 0.221315069965548 
833	 0.221153906859322 
834	 0.220735969519346 
835	 0.220669933534375 
836	 0.220702170088681 
837	 0.22066035701618 
838	 0.220366373061504 
839	 0.219660526155642 
840	 0.21928156384602 
841	 0.22150931014881 
842	 0.222951671420024 
843	 0.222368481811196 
844	 0.222073382366046 
845	 0.222091136473457 
846	 0.222252866475698 
847	 0.2231109226989 
848	 0.224138135388503 
849	 0.223503305828062 
850	 0.223230912632355 
851	 0.223753508104029 
852	 0.222182731761251 
853	 0.221072663754502 
854	 0.223150742066201 
855	 0.224066008318503 
856	 0.22378596734351 
857	 0.22456806244432 
858	 0.225085523397952 
859	 0.224924608977439 
860	 0.223990361226742 
861	 0.223948016295953 
862	 0.226137396835554 
863	 0.226584558815732 
864	 0.225732349121471 
865	 0.226515997014918 
866	 0.227058217790337 
867	 0.226826951804617 
868	 0.225939617357929 
869	 0.226813653532219 
870	 0.230725917610621 
871	 0.230165719420292 
872	 0.227516792627273 
873	 0.229694838758231 
874	 0.231441461454212 
875	 0.231478029462832 
876	 0.231124967855933 
877	 0.231630510333279 
878	 0.233642105644744 
879	 0.234848334694861 
880	 0.234928855806126 
881	 0.233921297062711 
882	 0.234601558064224 
883	 0.237024208202145 
884	 0.238576257174746 
885	 0.238786048398915 
886	 0.237889621515989 
887	 0.239918223743084 
888	 0.241904538138705 
889	 0.239509090326058 
890	 0.240412182050009 
891	 0.244022244929134 
892	 0.24220667323881 
893	 0.241355318492482 
894	 0.244000988381637 
895	 0.245618312213191 
896	 0.245766231449153 
897	 0.244419770293308 
898	 0.24217361320563 
899	 0.240890894402142 
900	 0.244390580937256 
901	 0.247404745270503 
902	 0.248243764145846 
903	 0.248338575283979 
904	 0.248599171519513 
905	 0.24943828667191 
906	 0.24780988424015 
907	 0.24534247237851 
908	 0.24569323696264 
909	 0.247203685864351 
910	 0.248886209971929 
911	 0.248958737290667 
912	 0.248380239716825 
913	 0.247834998104581 
914	 0.247558526460466 
915	 0.247582509342325 
916	 0.247849310177208 
917	 0.247557658888295 
918	 0.247038782586158 
919	 0.247592022403691 
920	 0.248234986710422 
921	 0.249079371847634 
922	 0.252754600399746 
923	 0.255019656087728 
924	 0.252388241156979 
925	 0.252196441741386 
926	 0.253611799497765 
927	 0.251742403890742 
928	 0.251509728788998 
929	 0.253015145915197 
930	 0.247489114547511 
931	 0.241558535184027 
932	 0.241296414120127 
933	 0.245696681228402 
934	 0.247879292347372 
935	 0.238644291615478 
936	 0.232141550400603 
937	 0.231516053848013 
938	 0.234385314033771 
939	 0.230898422386814 
940	 0.222634711925786 
941	 0.232991684554947 
942	 0.239102874542041 
943	 0.226423236312231 
944	 0.221308270471001 
945	 0.222090404824845 
946	 0.220151289639716 
947	 0.225672255052936 
948	 0.235062716654637 
949	 0.230562079343251 
950	 0.224525487728676 
951	 0.222265484273244 
952	 0.221413184724081 
953	 0.220738993269818 
954	 0.218622726987967 
955	 0.206792768241529 
956	 0.196757619031447 
957	 0.211458783395993 
958	 0.218451722771345 
959	 0.213852278466494 
960	 0.214458164097137 
961	 0.214365572560528 
962	 0.211491783741578 
963	 0.210063299590063 
964	 0.206573325647633 
965	 0.198287430077954 
966	 0.199176678349501 
967	 0.204517672246565 
968	 0.200585837047507 
969	 0.200180736638871 
970	 0.204625726289143 
971	 0.206496395332756 
972	 0.202143453416436 
973	 0.192742331835109 
974	 0.198266730770732 
975	 0.209181650218557 
976	 0.212846077438712 
977	 0.210418484946155 
978	 0.205109177073989 
979	 0.203457456879158 
980	 0.201331009287623 
981	 0.199239641924818 
982	 0.202776118711724 
983	 0.207860555684349 
984	 0.211603098351836 
985	 0.212146736208163 
986	 0.210719834067065 
987	 0.209041737213778 
988	 0.210026912913937 
989	 0.211800556468722 
990	 0.20939994723739 
991	 0.209980752223252 
992	 0.212978754047093 
993	 0.208351802558201 
994	 0.207042082745796 
995	 0.213306727268395 
996	 0.216139641539245 
997	 0.216787435292396 
998	 0.217336157445601 
999	 0.216430464595917 
1000	 0.218879121429413 
1001	 0.233081534145364 
1002	 0.232097771898418 
1003	 0.216745677474776 
1004	 0.214578678586521 
1005	 0.219070566314101 
1006	 0.226965760519478 
1007	 0.234746344900189 
1008	 0.235518040658709 
1009	 0.225763919468493 
1010	 0.219588380723404 
1011	 0.220428690585661 
1012	 0.229151462433006 
1013	 0.225202638560962 
1014	 0.214642727411098 
1015	 0.224510468106887 
1016	 0.228562442635175 
1017	 0.221990464899266 
1018	 0.219164035737957 
1019	 0.223910612474179 
1020	 0.23536660029039 
1021	 0.237351043911703 
1022	 0.237382488813379 
1023	 0.243473335453489 
1024	 0.247284573700044 
1025	 0.246754907478898 
1026	 0.240765297250807 
1027	 0.236991710544536 
1028	 0.236381337846603 
1029	 0.235686917078004 
1030	 0.231475697235355 
1031	 0.226175092286011 
1032	 0.238145997490784 
1033	 0.242916258164733 
1034	 0.230579480380795 
1035	 0.247429479570044 
1036	 0.263012188709675 
1037	 0.244957699298636 
1038	 0.246634764823284 
1039	 0.255630625898762 
1040	 0.236248927492249 
1041	 0.237983575441828 
1042	 0.260324467093875 
1043	 0.260401777517682 
1044	 0.265736297118917 
1045	 0.274953187978038 
1046	 0.24210874672414 
1047	 0.221257854673984 
1048	 0.241209827386112 
1049	 0.249188787956738 
1050	 0.252421246191845 
1051	 0.260255618403178 
1052	 0.259489197457001 
1053	 0.255305792154403 
1054	 0.258686088206652 
1055	 0.254686352367861 
1056	 0.250188750471876 
1057	 0.268605373004372 
1058	 0.270774019724079 
1059	 0.252645650895402 
1060	 0.252876493512513 
1061	 0.255240254855191 
1062	 0.25585972477601 
1063	 0.276698259758612 
1064	 0.281593340920789 
1065	 0.252600935112671 
1066	 0.268353819738675 
1067	 0.272754030721522 
1068	 0.201121288468569 
1069	 0.176724497059756 
1070	 0.198873141976228 
1071	 0.218052675937944 
1072	 0.259850418253748 
1073	 0.295959530350327 
1074	 0.250520859229273 
1075	 0.215560036327581 
