Wavelength	AVEI200415.asd
325	 3.28857510718515E-02 
326	 2.75463393606643E-02 
327	 2.69683233954267E-02 
328	 2.84339300903471E-02 
329	 2.98480901067502E-02 
330	 0.030682503834565 
331	 3.41057145160197E-02 
332	 3.55386020609885E-02 
333	 0.030969684561074 
334	 2.91157842179909E-02 
335	 3.02014596133534E-02 
336	 3.09528714814145E-02 
337	 3.19425239521373E-02 
338	 3.26616061649259E-02 
339	 2.99706001707528E-02 
340	 3.02013603250524E-02 
341	 3.74883990347829E-02 
342	 3.81141298179014E-02 
343	 3.41407715353812E-02 
344	 3.35799103623725E-02 
345	 3.26114147715874E-02 
346	 3.08003007436195E-02 
347	 2.96722619058209E-02 
348	 2.97904239945156E-02 
349	 0.031153517089761 
350	 3.04263628460221E-02 
351	 2.96497390034969E-02 
352	 3.28916658706993E-02 
353	 3.41675667424133E-02 
354	 3.25740257986226E-02 
355	 3.04388211294433E-02 
356	 2.98633709674621E-02 
357	 3.17012542111062E-02 
358	 3.20586276010775E-02 
359	 3.14434741161588E-02 
360	 3.13721302168395E-02 
361	 3.20901014897119E-02 
362	 3.30560409779114E-02 
363	 3.20242863005098E-02 
364	 3.17746936952955E-02 
365	 3.33357013228843E-02 
366	 3.27291528726016E-02 
367	 3.15094784461999E-02 
368	 3.22731695573137E-02 
369	 3.30492239927962E-02 
370	 3.31832509904109E-02 
371	 3.20510465621704E-02 
372	 3.11464807455322E-02 
373	 3.12086649913176E-02 
374	 0.031032604128217 
375	 0.030738962447056 
376	 3.06676834645317E-02 
377	 3.20042444453111E-02 
378	 3.37191105871062E-02 
379	 3.14479155516525E-02 
380	 2.99663095798179E-02 
381	 0.031251564483933 
382	 3.05523767921085E-02 
383	 2.97155570340983E-02 
384	 3.16514705890136E-02 
385	 3.15162369730066E-02 
386	 2.92952770486684E-02 
387	 2.87022684089651E-02 
388	 2.89121278942378E-02 
389	 2.94518898469862E-02 
390	 2.96633356213787E-02 
391	 0.030011025553572 
392	 3.10864674547794E-02 
393	 0.030863991052617 
394	 2.96031821584304E-02 
395	 2.90375613821638E-02 
396	 2.98830159178711E-02 
397	 3.17864937072906E-02 
398	 3.10769160957337E-02 
399	 2.96875699259188E-02 
400	 2.98718007578848E-02 
401	 2.98209979346249E-02 
402	 2.95522029347963E-02 
403	 2.99440710776855E-02 
404	 3.02838490854513E-02 
405	 3.02739509004055E-02 
406	 2.99714348141021E-02 
407	 2.98194520866687E-02 
408	 3.03316337353505E-02 
409	 3.03685372732279E-02 
410	 2.99319723879816E-02 
411	 2.98186534231617E-02 
412	 2.97498158996877E-02 
413	 2.96278804590084E-02 
414	 2.95977135805393E-02 
415	 0.029840412027721 
416	 3.05703174081391E-02 
417	 3.04226039400302E-02 
418	 2.96302378748407E-02 
419	 2.99793596651033E-02 
420	 3.03934569890777E-02 
421	 3.03215387136599E-02 
422	 3.03176200638042E-02 
423	 3.03141090251926E-02 
424	 3.01286598962991E-02 
425	 2.99309221292443E-02 
426	 2.98243824876405E-02 
427	 3.00033092830953E-02 
428	 3.01595045377682E-02 
429	 0.030099079622301 
430	 3.00057350583242E-02 
431	 3.00319121052139E-02 
432	 3.03850538190829E-02 
433	 3.06566894958813E-02 
434	 3.07307092377647E-02 
435	 0.030691105869806 
436	 3.05612427827157E-02 
437	 3.04192373116716E-02 
438	 3.08614601549398E-02 
439	 3.13685300256255E-02 
440	 3.08015788266786E-02 
441	 0.030544538777998 
442	 0.030928465621156 
443	 3.14511065485575E-02 
444	 3.16810957419584E-02 
445	 3.13483346751714E-02 
446	 0.03137116988488 
447	 3.15925479147049E-02 
448	 3.12905027382219E-02 
449	 3.09476522831416E-02 
450	 0.030837685330946 
451	 3.14117483967431E-02 
452	 3.20818336417918E-02 
453	 3.22382554826825E-02 
454	 3.19835451122198E-02 
455	 3.16262472467408E-02 
456	 3.19416752510546E-02 
457	 3.23163632331437E-02 
458	 3.24805126613308E-02 
459	 3.24919608985378E-02 
460	 3.24505283490539E-02 
461	 3.24747971782325E-02 
462	 3.26535619717898E-02 
463	 3.28700467289048E-02 
464	 3.26219143148743E-02 
465	 3.27896678946538E-02 
466	 0.033608465899029 
467	 3.32286395689674E-02 
468	 0.032506188393912 
469	 3.29967527584419E-02 
470	 3.32497611959077E-02 
471	 3.30987788741079E-02 
472	 0.033386213376138 
473	 3.35382655484515E-02 
474	 3.32549250666179E-02 
475	 3.32851907987293E-02 
476	 3.34724137988055E-02 
477	 3.33458054239542E-02 
478	 3.33762740858657E-02 
479	 3.36535887230954E-02 
480	 3.39807564457514E-02 
481	 3.41825268661563E-02 
482	 3.41162372816654E-02 
483	 3.37699372471693E-02 
484	 3.33812790235737E-02 
485	 0.033477138323121 
486	 3.36960422527588E-02 
487	 3.39072697197093E-02 
488	 3.41613818014734E-02 
489	 3.44158110601438E-02 
490	 3.46185558243034E-02 
491	 3.45287958046392E-02 
492	 0.034287266578742 
493	 3.43651896483228E-02 
494	 3.45292354744618E-02 
495	 3.46928518887759E-02 
496	 3.49457056236686E-02 
497	 3.52524710431389E-02 
498	 0.035565459584758 
499	 3.53189003811309E-02 
500	 3.48038524192906E-02 
501	 3.54993909406063E-02 
502	 3.61491134384328E-02 
503	 3.60666021491795E-02 
504	 3.63825135803153E-02 
505	 3.69038502842716E-02 
506	 3.70629478878285E-02 
507	 0.037380922316879 
508	 3.78400726861567E-02 
509	 3.77720242169112E-02 
510	 3.76733265192845E-02 
511	 3.79392706903868E-02 
512	 3.81768139450926E-02 
513	 0.038422629658878 
514	 3.89082421018299E-02 
515	 3.94816921664109E-02 
516	 4.00394298425527E-02 
517	 4.04375764957079E-02 
518	 4.06220280922989E-02 
519	 4.05796774071848E-02 
520	 4.10235136736189E-02 
521	 4.17776867418973E-02 
522	 4.19568395366554E-02 
523	 4.21578289607491E-02 
524	 4.25937232355039E-02 
525	 4.27630768739811E-02 
526	 4.28659098499594E-02 
527	 4.32427643260247E-02 
528	 4.37974373831234E-02 
529	 4.44179770925638E-02 
530	 0.044920365668283 
531	 4.50391717480716E-02 
532	 4.47051687303705E-02 
533	 0.044948347237864 
534	 4.56175502753164E-02 
535	 4.61394929343106E-02 
536	 4.62907495066705E-02 
537	 4.61436149682051E-02 
538	 4.64825110068123E-02 
539	 4.70198443622294E-02 
540	 4.74119549767525E-02 
541	 4.72739695631703E-02 
542	 4.69323821115241E-02 
543	 4.74655640228741E-02 
544	 4.80052699543138E-02 
545	 4.82233850310587E-02 
546	 4.85737074817008E-02 
547	 4.87788866975665E-02 
548	 4.84361030665625E-02 
549	 4.85379868224172E-02 
550	 4.90906558755816E-02 
551	 4.91839093460522E-02 
552	 4.92777727621712E-02 
553	 4.96301641906866E-02 
554	 4.98695151591163E-02 
555	 4.99704759090102E-02 
556	 4.99710449549745E-02 
557	 5.00686120097297E-02 
558	 5.03070213037982E-02 
559	 5.05513439528841E-02 
560	 5.06457406833538E-02 
561	 5.04782274241912E-02 
562	 5.04109411246246E-02 
563	 5.05337609137066E-02 
564	 0.050928698643535 
565	 0.051084115253184 
566	 5.08267885622266E-02 
567	 5.06227768064292E-02 
568	 5.05338218698804E-02 
569	 0.050577633900797 
570	 5.08498429440327E-02 
571	 5.12251484331094E-02 
572	 5.12659232514611E-02 
573	 5.11456410857553E-02 
574	 5.10120235061426E-02 
575	 5.11390207120981E-02 
576	 5.13641645896127E-02 
577	 5.13141464450148E-02 
578	 5.12366755401516E-02 
579	 5.12438010325682E-02 
580	 5.15319449236827E-02 
581	 5.15491894744572E-02 
582	 5.08944000253127E-02 
583	 5.09369358876309E-02 
584	 5.14924605658506E-02 
585	 5.14266351964332E-02 
586	 5.13074514441253E-02 
587	 5.13564180359724E-02 
588	 5.15900387119348E-02 
589	 5.18359730399327E-02 
590	 5.18551241479643E-02 
591	 5.18676755826111E-02 
592	 5.19353926015282E-02 
593	 5.20909791321531E-02 
594	 5.21369491850087E-02 
595	 5.19677601102262E-02 
596	 5.17019289826041E-02 
597	 5.16083075639241E-02 
598	 5.21205332152819E-02 
599	 5.25804188095882E-02 
600	 5.27383580898159E-02 
601	 5.25304544660606E-02 
602	 5.23856666336159E-02 
603	 5.26475323744175E-02 
604	 5.26456889203726E-02 
605	 5.24277608616567E-02 
606	 5.24091145738132E-02 
607	 5.24778755296334E-02 
608	 5.25771601827082E-02 
609	 5.25797766788296E-02 
610	 5.25246484635685E-02 
611	 5.24788502684628E-02 
612	 5.23589139099011E-02 
613	 5.22246449800584E-02 
614	 5.23460946820182E-02 
615	 5.24108309157785E-02 
616	 5.22119159013262E-02 
617	 5.17079271834055E-02 
618	 5.13442570147289E-02 
619	 5.18992670943854E-02 
620	 5.22333455445044E-02 
621	 5.21019225034809E-02 
622	 5.20694103722336E-02 
623	 5.22723135078235E-02 
624	 5.27605522363714E-02 
625	 0.05266810787259 
626	 5.22067753870031E-02 
627	 5.23855164861854E-02 
628	 5.25364337728134E-02 
629	 5.24489828987261E-02 
630	 5.24619515001043E-02 
631	 5.26400058848018E-02 
632	 5.30193243920912E-02 
633	 5.31698701013102E-02 
634	 5.31543772809256E-02 
635	 5.36129358623044E-02 
636	 5.38037099175419E-02 
637	 0.053371450209551 
638	 5.32469598024481E-02 
639	 5.33070904896696E-02 
640	 5.30801524972444E-02 
641	 5.31530336724038E-02 
642	 5.35272433382208E-02 
643	 5.34633221408901E-02 
644	 5.31507171100945E-02 
645	 5.27892113795106E-02 
646	 5.24148753264495E-02 
647	 5.22001005975135E-02 
648	 5.25821600721235E-02 
649	 5.27860603292354E-02 
650	 5.25511050163369E-02 
651	 5.24700845993457E-02 
652	 5.23820079940243E-02 
653	 5.20414828746207E-02 
654	 5.18381167461267E-02 
655	 5.19068903013395E-02 
656	 5.25109158205058E-02 
657	 5.23789922115937E-02 
658	 5.10125586275612E-02 
659	 5.03801242919167E-02 
660	 5.03356854522067E-02 
661	 5.03026024168007E-02 
662	 5.00207619585936E-02 
663	 4.95358815666635E-02 
664	 4.95223950296542E-02 
665	 4.95592497334108E-02 
666	 4.92771384658427E-02 
667	 4.87835079556581E-02 
668	 4.83560671548953E-02 
669	 4.87191147944416E-02 
670	 4.85444020614884E-02 
671	 4.75744907659271E-02 
672	 4.73419378549854E-02 
673	 4.76411373263473E-02 
674	 0.048075821353893 
675	 4.83424245364117E-02 
676	 4.84591905141774E-02 
677	 4.87905249143225E-02 
678	 4.91425852174448E-02 
679	 4.94267737857728E-02 
680	 4.97601538459587E-02 
681	 5.01811731049518E-02 
682	 0.050714761095312 
683	 5.15031331306916E-02 
684	 5.25214151039582E-02 
685	 0.053559472034004 
686	 5.47270134214949E-02 
687	 5.60915694414114E-02 
688	 5.74473828338583E-02 
689	 5.87218714304921E-02 
690	 6.02246072699352E-02 
691	 0.061501189917579 
692	 0.06262645656879 
693	 6.43488789502936E-02 
694	 6.64217375819842E-02 
695	 6.84210433705429E-02 
696	 7.04079670843255E-02 
697	 7.23092024689092E-02 
698	 7.40362296702692E-02 
699	 7.56145556328509E-02 
700	 7.71092962995006E-02 
701	 7.90869627583792E-02 
702	 8.12734900021475E-02 
703	 8.32386696202823E-02 
704	 8.45378312899748E-02 
705	 8.55691123615683E-02 
706	 0.088104604099651 
707	 9.00303178272767E-02 
708	 9.01689957175564E-02 
709	 0.09084857306073 
710	 9.21102219247316E-02 
711	 9.33891843598015E-02 
712	 9.46364976258547E-02 
713	 9.58413926282575E-02 
714	 9.71865498529566E-02 
715	 9.86753968890515E-02 
716	 0.100382746385666 
717	 0.101857081074387 
718	 0.102879357859595 
719	 0.103071307674413 
720	 0.103557313024723 
721	 0.104637370016807 
722	 0.105731658303601 
723	 0.106668071351899 
724	 0.107174084405496 
725	 0.107965620222159 
726	 0.109113168142312 
727	 0.110551837180713 
728	 0.111463002348879 
729	 0.111496050653089 
730	 0.111335861805184 
731	 0.111667613481744 
732	 0.113214706205084 
733	 0.114125235886815 
734	 0.11414825802947 
735	 0.113730967979677 
736	 0.113768098877151 
737	 0.114757621075327 
738	 0.115264809796877 
739	 0.115569481127124 
740	 0.116620795560487 
741	 0.11717601754683 
742	 0.116993858967142 
743	 0.116673047034181 
744	 0.116723177745985 
745	 0.11753141578972 
746	 0.118703571933997 
747	 0.119685759184763 
748	 0.119340142175433 
749	 0.11934109556849 
750	 0.120143852190776 
751	 0.120473357787582 
752	 0.120842056211345 
753	 0.121837090382519 
754	 0.122437061270791 
755	 0.122552244145409 
756	 0.122500901188452 
757	 0.122728769281157 
758	 0.123454171919608 
759	 0.123961930175879 
760	 0.1246143757575 
761	 0.125865736391077 
762	 0.127814484388589 
763	 0.129212293155267 
764	 0.127995567117849 
765	 0.1270642962864 
766	 0.127176049411982 
767	 0.126876915836569 
768	 0.126485407860513 
769	 0.126421781849477 
770	 0.127002507131077 
771	 0.128041808484106 
772	 0.128562173565677 
773	 0.129099626638814 
774	 0.129877766956314 
775	 0.129559318997567 
776	 0.128958376447985 
777	 0.129855060390059 
778	 0.130645713010666 
779	 0.130905981945427 
780	 0.130998872463092 
781	 0.131258773323692 
782	 0.13191991998171 
783	 0.132514334163367 
784	 0.133043296110067 
785	 0.133753147573121 
786	 0.133909633596797 
787	 0.133545870893264 
788	 0.134087178373922 
789	 0.134834706270809 
790	 0.135073693486713 
791	 0.135379492529274 
792	 0.13568514402453 
793	 0.135556230020384 
794	 0.135627567380032 
795	 0.136097845601689 
796	 0.136653219714852 
797	 0.137178845333964 
798	 0.137568309777788 
799	 0.137605522666842 
800	 0.137627526240397 
801	 0.138746958570996 
802	 0.139258190323307 
803	 0.138736489032307 
804	 0.138888967400214 
805	 0.139546481747034 
806	 0.140369884718877 
807	 0.141011777353454 
808	 0.141374793553312 
809	 0.141356605810343 
810	 0.141867032751411 
811	 0.143063763158268 
812	 0.142811344988873 
813	 0.142607432343813 
814	 0.144652787545976 
815	 0.144701181258191 
816	 0.143104300694512 
817	 0.144787374456568 
818	 0.146495908453748 
819	 0.146876856405584 
820	 0.146897669037222 
821	 0.146787655555796 
822	 0.146720862757155 
823	 0.1464940669801 
824	 0.146244671670771 
825	 0.146323976919258 
826	 0.146841041517628 
827	 0.147804480829824 
828	 0.148882990229637 
829	 0.149600581427871 
830	 0.149456992068433 
831	 0.149188795647242 
832	 0.149202203143628 
833	 0.150045327298086 
834	 0.151040608933591 
835	 0.151577672003589 
836	 0.150007171610083 
837	 0.14902768114818 
838	 0.151617662721166 
839	 0.152925030682908 
840	 0.152453673587538 
841	 0.15181214229864 
842	 0.151617823181712 
843	 0.152210684965149 
844	 0.15337658362238 
845	 0.154016969608412 
846	 0.153030939129352 
847	 0.152474748044463 
848	 0.152661986017392 
849	 0.153112238237762 
850	 0.153589052131052 
851	 0.153859887040167 
852	 0.153476370506622 
853	 0.153227973173785 
854	 0.153953273381258 
855	 0.154781657110612 
856	 0.155511521522064 
857	 0.156212385370062 
858	 0.156480614143753 
859	 0.156279413730892 
860	 0.156215946636534 
861	 0.156044312905172 
862	 0.155550689823148 
863	 0.155424522336181 
864	 0.155863076430076 
865	 0.156926491961123 
866	 0.158623765167076 
867	 0.160275842920322 
868	 0.159173602890269 
869	 0.157887837714095 
870	 0.158512339272146 
871	 0.158940475373534 
872	 0.159318966818652 
873	 0.160630340451388 
874	 0.160801787230625 
875	 0.160001930808785 
876	 0.161767739537969 
877	 0.163068839612606 
878	 0.162027613646426 
879	 0.162141117630532 
880	 0.163121555509499 
881	 0.163704694976591 
882	 0.164461786338706 
883	 0.165058076692299 
884	 0.163775937345519 
885	 0.163674982014216 
886	 0.165921850176008 
887	 0.165298891148651 
888	 0.164363133839005 
889	 0.167154292552005 
890	 0.167769125567004 
891	 0.166180817655774 
892	 0.167068228786825 
893	 0.167639317543304 
894	 0.166810057038279 
895	 0.166303871579669 
896	 0.16672906793981 
897	 0.168555301855738 
898	 0.170718354447844 
899	 0.172135906427959 
900	 0.170817473956871 
901	 0.171171790393029 
902	 0.173721700115737 
903	 0.173726423078515 
904	 0.172584557803304 
905	 0.17175984135643 
906	 0.173354344363247 
907	 0.175464507179739 
908	 0.174078845262525 
909	 0.172661667060773 
910	 0.172302757906698 
911	 0.172792301395296 
912	 0.173765291995467 
913	 0.174751001990333 
914	 0.174568330722316 
915	 0.17390421495608 
916	 0.173800933158758 
917	 0.175747692841672 
918	 0.178588689529866 
919	 0.178979213296578 
920	 0.176454350163046 
921	 0.17222662050846 
922	 0.173313303413915 
923	 0.17558343078888 
924	 0.1750669419357 
925	 0.174410333016969 
926	 0.173508070481912 
927	 0.170934232424709 
928	 0.175132280868582 
929	 0.185447680459417 
930	 0.180746915210848 
931	 0.174004456535466 
932	 0.176484843793364 
933	 0.176454561991107 
934	 0.175255712673626 
935	 0.177149757742662 
936	 0.175343912481972 
937	 0.170189506909332 
938	 0.166100045939087 
939	 0.166618709301968 
940	 0.171732270969913 
941	 0.176406418749662 
942	 0.177901846352054 
943	 0.175478235566716 
944	 0.18127096052971 
945	 0.185611218338834 
946	 0.171138806487653 
947	 0.164836498347459 
948	 0.168845549316656 
949	 0.164018567360377 
950	 0.167606375696514 
951	 0.181337217138363 
952	 0.176710393402017 
953	 0.169968753349896 
954	 0.17646812203266 
955	 0.177071042811573 
956	 0.174425443601989 
957	 0.178298868469386 
958	 0.181795119133806 
959	 0.182844364165563 
960	 0.182815151904944 
961	 0.173384781050809 
962	 0.15676223156785 
963	 0.164687085886226 
964	 0.177495318411339 
965	 0.175656401367402 
966	 0.174478452535724 
967	 0.176006278607455 
968	 0.179807725397848 
969	 0.178743516468343 
970	 0.174192641942871 
971	 0.179831535213622 
972	 0.179840917916976 
973	 0.169031456229931 
974	 0.172539129408857 
975	 0.18000640519766 
976	 0.177642982274096 
977	 0.173840014820171 
978	 0.172141148973375 
979	 0.176936859735909 
980	 0.179187819304385 
981	 0.177472933597537 
982	 0.17707941948505 
983	 0.178086365771758 
984	 0.180098692628599 
985	 0.181081164909775 
986	 0.178947524006588 
987	 0.172357091339009 
988	 0.168785426416055 
989	 0.170448462351225 
990	 0.178459734376837 
991	 0.184080780999076 
992	 0.18513483634635 
993	 0.184275141698634 
994	 0.179815820727758 
995	 0.173352636578155 
996	 0.177751142208309 
997	 0.181193781775518 
998	 0.172839202074653 
999	 0.175926049772386 
1000	 0.183967184761196 
1001	 0.179130474287262 
1002	 0.175546114368132 
1003	 0.17674026241102 
1004	 0.182761297442323 
1005	 0.184631204867762 
1006	 0.18034346729554 
1007	 0.181560845624037 
1008	 0.185065194567034 
1009	 0.187525683920933 
1010	 0.187511711340771 
1011	 0.18518802299989 
1012	 0.181342650412271 
1013	 0.178613966600528 
1014	 0.177573690642244 
1015	 0.177475156071071 
1016	 0.1789348229963 
1017	 0.18170082103539 
1018	 0.185907198325351 
1019	 0.181001758308 
1020	 0.166182123548269 
1021	 0.172694071495549 
1022	 0.18773838103745 
1023	 0.195289064563142 
1024	 0.191403803950583 
1025	 0.185430014484813 
1026	 0.193538673409273 
1027	 0.196909893932475 
1028	 0.192407405784528 
1029	 0.184951643572506 
1030	 0.176626017478569 
1031	 0.173053099155875 
1032	 0.191591460971889 
1033	 0.202789987953568 
1034	 0.191187862093387 
1035	 0.186666561330143 
1036	 0.189490283154779 
1037	 0.195654246485109 
1038	 0.198250848471293 
1039	 0.192897074878591 
1040	 0.174766140209806 
1041	 0.163974202509625 
1042	 0.167499194018517 
1043	 0.188796361295234 
1044	 0.195032830681936 
1045	 0.178786622610407 
1046	 0.161874495682198 
1047	 0.176659118243855 
1048	 0.223170890694631 
1049	 0.207614643910335 
1050	 0.176019640076321 
1051	 0.180283429413814 
1052	 0.194139464966835 
1053	 0.20501715501725 
1054	 0.198595665593116 
1055	 0.163526326677006 
1056	 0.13011977169319 
1057	 0.17897369521961 
1058	 0.178621883529451 
1059	 0.130167087200366 
1060	 0.193133438635304 
1061	 0.206813319949782 
1062	 0.129944538245474 
1063	 0.181066689206322 
1064	 0.247215962197199 
1065	 0.247761155747639 
1066	 0.209451768604567 
1067	 0.168702476850109 
1068	 0.16285002422313 
1069	 0.166626230648037 
1070	 0.165269897167394 
1071	 0.142489927864769 
1072	 0.134846538339477 
1073	 0.145868763926392 
1074	 0.168595853252013 
1075	 0.182982893337533 
