Wavelength	AVEI200195.asd
325	 6.37601735799507E-02 
326	 6.05358048382399E-02 
327	 4.85623386100896E-02 
328	 0.046079380297477 
329	 0.049223553043194 
330	 5.46691461905666E-02 
331	 5.46179757608456E-02 
332	 5.16739031609771E-02 
333	 4.89130308111884E-02 
334	 0.046701937928587 
335	 4.61586794783588E-02 
336	 5.04187629646316E-02 
337	 4.87767882529919E-02 
338	 4.14823589613835E-02 
339	 4.65447871865011E-02 
340	 5.11060965008626E-02 
341	 0.045337719883774 
342	 4.42045542847903E-02 
343	 4.71614820078901E-02 
344	 4.90367944397955E-02 
345	 0.048446958317174 
346	 4.59220302926611E-02 
347	 4.54037050435609E-02 
348	 4.53054587600174E-02 
349	 0.044428809852775 
350	 4.24208945061595E-02 
351	 4.07840203533426E-02 
352	 4.17780552930136E-02 
353	 4.42764182057436E-02 
354	 4.67365271079372E-02 
355	 4.50191650969917E-02 
356	 4.35209857319211E-02 
357	 4.46923498361077E-02 
358	 4.56210602588131E-02 
359	 4.55167940197729E-02 
360	 4.37731124576654E-02 
361	 0.042707568185087 
362	 4.28199299233748E-02 
363	 4.35666526240023E-02 
364	 4.40391829758628E-02 
365	 4.37950021750711E-02 
366	 4.35435729845108E-02 
367	 0.043459020997056 
368	 4.36709583570601E-02 
369	 4.29478755498075E-02 
370	 4.15079096341091E-02 
371	 4.08893769951516E-02 
372	 4.10253084762891E-02 
373	 4.16420588189276E-02 
374	 4.09558547526147E-02 
375	 4.01152134947792E-02 
376	 4.09040622153066E-02 
377	 0.040637701798714 
378	 3.92294976022075E-02 
379	 3.83794713175726E-02 
380	 3.86194348429027E-02 
381	 3.99373796668095E-02 
382	 4.02447192097545E-02 
383	 4.03564331311124E-02 
384	 4.15589252962116E-02 
385	 4.06552006587814E-02 
386	 3.84074716543361E-02 
387	 3.95670772546441E-02 
388	 4.04510416371815E-02 
389	 3.97378738066468E-02 
390	 4.05715506198213E-02 
391	 4.12454423352069E-02 
392	 3.96098757500015E-02 
393	 0.039853866296132 
394	 4.14232208620945E-02 
395	 4.01527950682631E-02 
396	 3.92062383550572E-02 
397	 3.96639619909362E-02 
398	 3.95088552161015E-02 
399	 3.93043364317347E-02 
400	 3.97548042225979E-02 
401	 3.93203811406539E-02 
402	 3.83408833100118E-02 
403	 3.82728316371426E-02 
404	 3.83483230965192E-02 
405	 3.82031935045695E-02 
406	 3.75370641308827E-02 
407	 3.71141611066146E-02 
408	 3.78641744500404E-02 
409	 3.85975288637529E-02 
410	 3.88519816536076E-02 
411	 3.81786139408442E-02 
412	 3.75276872845115E-02 
413	 3.73776580329092E-02 
414	 3.75067827449364E-02 
415	 3.76167313318036E-02 
416	 3.73620656323696E-02 
417	 3.76049386835855E-02 
418	 3.81896070309882E-02 
419	 3.80024519403386E-02 
420	 3.78339683681041E-02 
421	 3.80421132192672E-02 
422	 3.79287420753043E-02 
423	 3.76865983865352E-02 
424	 3.76949474681766E-02 
425	 3.77942895616348E-02 
426	 3.78950070239182E-02 
427	 3.78421733700987E-02 
428	 3.76701371965504E-02 
429	 3.74600555038628E-02 
430	 3.76456150489195E-02 
431	 3.79405428905209E-02 
432	 3.77842789018157E-02 
433	 3.75855215155795E-02 
434	 3.74456494138981E-02 
435	 3.72714474850385E-02 
436	 3.71965180769345E-02 
437	 3.72806349138718E-02 
438	 3.72225296754181E-02 
439	 3.71295378793554E-02 
440	 3.72874279022149E-02 
441	 3.73616399485364E-02 
442	 3.73160598647145E-02 
443	 0.037505556058202 
444	 3.74894943855572E-02 
445	 3.69814469815012E-02 
446	 3.69956134664929E-02 
447	 3.73656798502223E-02 
448	 3.73437223451559E-02 
449	 3.73023423025126E-02 
450	 3.73583112595165E-02 
451	 3.75070880671963E-02 
452	 3.76690628520678E-02 
453	 3.77717597327043E-02 
454	 3.80120525187092E-02 
455	 3.82125008116249E-02 
456	 3.77304696276367E-02 
457	 3.75583959202914E-02 
458	 3.79886082286286E-02 
459	 3.80667403851031E-02 
460	 3.79618149923965E-02 
461	 3.79668749504808E-02 
462	 0.037892534788654 
463	 3.77949263580836E-02 
464	 3.79417545985823E-02 
465	 3.81683058998426E-02 
466	 0.038305194417614 
467	 3.78679249359729E-02 
468	 3.72644885757646E-02 
469	 3.71536829945851E-02 
470	 3.75385640925921E-02 
471	 3.81481796041261E-02 
472	 3.80425724214808E-02 
473	 3.79330886731417E-02 
474	 3.82021265168863E-02 
475	 3.79949013913338E-02 
476	 3.75785364786018E-02 
477	 3.75914774561336E-02 
478	 3.78079063727993E-02 
479	 3.80547934404294E-02 
480	 3.79116089675717E-02 
481	 3.76810836383062E-02 
482	 3.76290520157217E-02 
483	 3.77667491782921E-02 
484	 3.79538392903069E-02 
485	 3.77842034841467E-02 
486	 3.80613567044419E-02 
487	 0.038833062191565 
488	 3.87650745559475E-02 
489	 3.83287010368437E-02 
490	 3.81159763589341E-02 
491	 3.81836538361264E-02 
492	 3.83993687921494E-02 
493	 3.83629212664876E-02 
494	 3.82177326794268E-02 
495	 3.81022224775133E-02 
496	 3.84480624138656E-02 
497	 3.89687146476868E-02 
498	 3.92482915394821E-02 
499	 3.94029768805728E-02 
500	 3.94880886688194E-02 
501	 3.95735680343636E-02 
502	 3.98858126418099E-02 
503	 4.04671238086433E-02 
504	 4.04796132107179E-02 
505	 4.03592226144517E-02 
506	 4.10096224514743E-02 
507	 4.15775664611824E-02 
508	 4.19122036946155E-02 
509	 4.24122350093166E-02 
510	 4.30420355627128E-02 
511	 4.37423117627357E-02 
512	 4.42801352460148E-02 
513	 4.46337586221873E-02 
514	 4.47873898767302E-02 
515	 4.52897622193163E-02 
516	 4.62602393211249E-02 
517	 4.70560634981014E-02 
518	 4.77405651335596E-02 
519	 4.84332444302547E-02 
520	 4.92132716143969E-02 
521	 5.01559272862759E-02 
522	 5.15047907439775E-02 
523	 5.24806566405416E-02 
524	 5.28455064578804E-02 
525	 5.36364439293323E-02 
526	 5.45300233281209E-02 
527	 5.49031231675764E-02 
528	 5.54455741870491E-02 
529	 0.056260511380698 
530	 5.70746453938664E-02 
531	 5.78734127676119E-02 
532	 5.86276054835718E-02 
533	 5.91762349313103E-02 
534	 5.95849419610574E-02 
535	 6.00218998930914E-02 
536	 0.060431463708095 
537	 6.08198193964072E-02 
538	 0.061258719026748 
539	 6.16771440417343E-02 
540	 6.20008639554861E-02 
541	 6.22401709301266E-02 
542	 6.24533323395531E-02 
543	 6.27315368074095E-02 
544	 6.32857990667253E-02 
545	 6.40889715529041E-02 
546	 6.44286851916168E-02 
547	 6.44569080386403E-02 
548	 6.44616158731783E-02 
549	 6.47192182658107E-02 
550	 6.52013117096225E-02 
551	 6.55223279114694E-02 
552	 6.57477084668368E-02 
553	 6.59269638729714E-02 
554	 6.61461375899517E-02 
555	 6.63951838288307E-02 
556	 6.66563170679698E-02 
557	 6.65951842924079E-02 
558	 6.62476200831814E-02 
559	 6.63218825184861E-02 
560	 6.64374754322712E-02 
561	 6.62398299233673E-02 
562	 6.62143120484957E-02 
563	 6.63121640264429E-02 
564	 6.61920121273781E-02 
565	 6.59900822376304E-02 
566	 6.57307302075735E-02 
567	 0.065256393507585 
568	 6.47729167548788E-02 
569	 6.45509212077496E-02 
570	 6.42436754274562E-02 
571	 6.38376437860773E-02 
572	 6.35950942801537E-02 
573	 6.33467727672297E-02 
574	 6.29981568158885E-02 
575	 6.27287237286583E-02 
576	 6.24115654277983E-02 
577	 6.17523323534071E-02 
578	 6.13875015652911E-02 
579	 6.13954236980065E-02 
580	 6.11164302461757E-02 
581	 0.060871131952315 
582	 6.09211151937794E-02 
583	 6.06064013950062E-02 
584	 6.00695676530722E-02 
585	 0.059975113804483 
586	 5.99423289929629E-02 
587	 5.98404791395021E-02 
588	 5.98339925827655E-02 
589	 5.97417028405385E-02 
590	 5.93254688888086E-02 
591	 5.91518396810155E-02 
592	 5.91888773199418E-02 
593	 5.88138695170706E-02 
594	 5.85567525189313E-02 
595	 5.86579314563361E-02 
596	 5.83985069460867E-02 
597	 5.79771854617791E-02 
598	 5.78908583576655E-02 
599	 5.79791879294199E-02 
600	 5.81077062580784E-02 
601	 5.78956885685674E-02 
602	 5.76566471765628E-02 
603	 5.76727538587074E-02 
604	 5.77550512039126E-02 
605	 5.77532715164512E-02 
606	 5.73723988104112E-02 
607	 5.69974398990237E-02 
608	 5.67889596073115E-02 
609	 5.66637773590992E-02 
610	 5.64918171327874E-02 
611	 5.61224269883351E-02 
612	 5.57605952900268E-02 
613	 5.54480834377153E-02 
614	 5.50963665995868E-02 
615	 5.49187278628657E-02 
616	 0.054994419956192 
617	 5.48599910440706E-02 
618	 5.45366699646914E-02 
619	 5.41625677900403E-02 
620	 5.40138541835178E-02 
621	 5.40338741597539E-02 
622	 5.35154067020944E-02 
623	 5.30890191383351E-02 
624	 5.33214717244001E-02 
625	 5.36881822130616E-02 
626	 5.39248110968127E-02 
627	 5.36345277651146E-02 
628	 5.33583322444725E-02 
629	 5.33214123023804E-02 
630	 5.33485155320142E-02 
631	 5.34387200152657E-02 
632	 5.36025370712174E-02 
633	 5.34706158452094E-02 
634	 5.31331733959271E-02 
635	 5.32449734755892E-02 
636	 5.31204145803508E-02 
637	 5.24057803742715E-02 
638	 5.17614665791678E-02 
639	 5.12309106397002E-02 
640	 5.07150003912118E-02 
641	 5.03127990821469E-02 
642	 4.99716414649266E-02 
643	 4.93837554031615E-02 
644	 4.86011394405073E-02 
645	 4.77142799395366E-02 
646	 4.72267549485581E-02 
647	 4.71020258155843E-02 
648	 4.69962913368469E-02 
649	 4.67634195124605E-02 
650	 4.63707091069141E-02 
651	 0.046184109930716 
652	 4.59434151625891E-02 
653	 4.53070953537405E-02 
654	 4.48768511866388E-02 
655	 4.47839949053416E-02 
656	 4.49786971495162E-02 
657	 4.50600491567704E-02 
658	 4.47992608647922E-02 
659	 4.45435048990243E-02 
660	 4.42166873913106E-02 
661	 4.36078282533158E-02 
662	 4.32189190200513E-02 
663	 4.30711128705479E-02 
664	 0.04255950285617 
665	 4.20798266221954E-02 
666	 4.19532901658066E-02 
667	 4.17476580054411E-02 
668	 4.14525368604975E-02 
669	 4.11977076159726E-02 
670	 4.11677812168408E-02 
671	 0.04130270876401 
672	 4.07907915872462E-02 
673	 4.03384181983087E-02 
674	 4.07947262874963E-02 
675	 4.09945800416184E-02 
676	 4.08335818457364E-02 
677	 4.08306789918025E-02 
678	 4.09487630586205E-02 
679	 4.12021325828675E-02 
680	 4.17370283772785E-02 
681	 4.23166166417513E-02 
682	 0.042544268198495 
683	 4.29735588883361E-02 
684	 4.37777536284197E-02 
685	 4.49676537375282E-02 
686	 4.63902874447691E-02 
687	 4.78942384797706E-02 
688	 0.049519110513339 
689	 0.051260579349214 
690	 5.34249782387182E-02 
691	 5.55826018986323E-02 
692	 5.78039660385943E-02 
693	 6.07143852653951E-02 
694	 6.42263502931477E-02 
695	 6.80138218259715E-02 
696	 7.14109997780875E-02 
697	 7.46571160337666E-02 
698	 7.89895744172949E-02 
699	 8.34488442998689E-02 
700	 8.75619002856674E-02 
701	 9.18898413114797E-02 
702	 9.63845565723698E-02 
703	 0.10091799595705 
704	 0.105336378405063 
705	 0.109765119697171 
706	 0.114646816870401 
707	 0.11923967314019 
708	 0.123148001808117 
709	 0.127477159270476 
710	 0.132050089054075 
711	 0.136290011038084 
712	 0.140358052414082 
713	 0.144293007928434 
714	 0.148258492376512 
715	 0.151992218520267 
716	 0.15543870423011 
717	 0.158736776896681 
718	 0.162380273731338 
719	 0.167132644033523 
720	 0.171068056418356 
721	 0.173496131125718 
722	 0.175854023179729 
723	 0.17849520909628 
724	 0.181524713907044 
725	 0.184417781304834 
726	 0.186823969866888 
727	 0.188914837850168 
728	 0.190931728611736 
729	 0.192982722004303 
730	 0.194833723671854 
731	 0.196349381410473 
732	 0.197379581868943 
733	 0.198813978515589 
734	 0.200693540702876 
735	 0.202359697733262 
736	 0.203772396228944 
737	 0.204876547174236 
738	 0.206066987556826 
739	 0.207260128578014 
740	 0.208194150201549 
741	 0.208838905839991 
742	 0.209339389838411 
743	 0.210308057350841 
744	 0.2113794772133 
745	 0.212234009418589 
746	 0.212954567049028 
747	 0.213633372187098 
748	 0.214468895462491 
749	 0.215390611984923 
750	 0.216234272545197 
751	 0.216309608688984 
752	 0.216323158091835 
753	 0.217044071343782 
754	 0.217573349963587 
755	 0.217950990809535 
756	 0.218872637868652 
757	 0.21958645106745 
758	 0.219863868336084 
759	 0.220574706445332 
760	 0.22199427198374 
761	 0.222956501123774 
762	 0.22313982894329 
763	 0.222978937770096 
764	 0.223257816568317 
765	 0.22388973081739 
766	 0.224614710374793 
767	 0.224544105266945 
768	 0.224415696647098 
769	 0.225120166902716 
770	 0.225734522747312 
771	 0.226105047504398 
772	 0.226542378754444 
773	 0.22688632135082 
774	 0.227091000479764 
775	 0.227743486559056 
776	 0.228516197258467 
777	 0.228678701768917 
778	 0.228952598186685 
779	 0.22940944688676 
780	 0.229348901774217 
781	 0.22946461211864 
782	 0.230259082019571 
783	 0.230838808420364 
784	 0.231117091938782 
785	 0.231212240975277 
786	 0.231588214290112 
787	 0.2322538594864 
788	 0.232356333495108 
789	 0.232278132873359 
790	 0.23244218725369 
791	 0.233029209933665 
792	 0.233778948956767 
793	 0.234023059649378 
794	 0.233955200368234 
795	 0.233753797121108 
796	 0.233926541918583 
797	 0.234409218930829 
798	 0.235064328121916 
799	 0.235392467200735 
800	 0.23540240395606 
801	 0.235356582399458 
802	 0.235617971875443 
803	 0.236297228914044 
804	 0.236985469895287 
805	 0.237564152812593 
806	 0.237955749410912 
807	 0.238179493481977 
808	 0.238390836501819 
809	 0.239024487693936 
810	 0.239507442464836 
811	 0.239608844879978 
812	 0.239684484554662 
813	 0.239680732728581 
814	 0.239504549362028 
815	 0.23976413685551 
816	 0.240568407887069 
817	 0.241744962799419 
818	 0.24227844025063 
819	 0.242032167586687 
820	 0.243065004664224 
821	 0.244140829968346 
822	 0.243670833179601 
823	 0.243447010959637 
824	 0.243853713814398 
825	 0.244729333971208 
826	 0.245564749439745 
827	 0.246062287873588 
828	 0.245889653426242 
829	 0.245547766459787 
830	 0.245677890924432 
831	 0.2454480427865 
832	 0.245252880500168 
833	 0.246825114196889 
834	 0.247683709898303 
835	 0.247025029925525 
836	 0.246890440681993 
837	 0.247366227050198 
838	 0.248313291001653 
839	 0.248794843192061 
840	 0.248758803057805 
841	 0.248689161885335 
842	 0.248817407374508 
843	 0.249162456725613 
844	 0.248912137812541 
845	 0.249049360840151 
846	 0.250627330545778 
847	 0.250814136225224 
848	 0.249795173407459 
849	 0.249854692606922 
850	 0.250193624511046 
851	 0.250476127083063 
852	 0.25046744393557 
853	 0.25018522547249 
854	 0.249750320240139 
855	 0.250323516714347 
856	 0.251300841508092 
857	 0.250532536242784 
858	 0.250240711750736 
859	 0.250986159572715 
860	 0.25139982318147 
861	 0.251979882963183 
862	 0.253122809823138 
863	 0.252729150156993 
864	 0.251426824809825 
865	 0.251593897338775 
866	 0.251968940420867 
867	 0.252239491480896 
868	 0.252824881599731 
869	 0.253545106134014 
870	 0.254215574610491 
871	 0.254676531466649 
872	 0.254891597065573 
873	 0.254801056532665 
874	 0.25525025061251 
875	 0.256315998834079 
876	 0.257090216103542 
877	 0.257902927360881 
878	 0.258880170971738 
879	 0.259002829666287 
880	 0.258910266610731 
881	 0.259843970711493 
882	 0.260488712866118 
883	 0.260729825756619 
884	 0.261539827897473 
885	 0.262023806060309 
886	 0.261871739090628 
887	 0.262578008963216 
888	 0.263757990877788 
889	 0.264674078356145 
890	 0.264937880755227 
891	 0.264623435707543 
892	 0.264246057096278 
893	 0.264433467119481 
894	 0.265316330999652 
895	 0.265238007781066 
896	 0.265129135583439 
897	 0.266183891777636 
898	 0.266329204188124 
899	 0.265858484396849 
900	 0.266697569528024 
901	 0.266912611513622 
902	 0.266336447847348 
903	 0.267241744110913 
904	 0.267727745276623 
905	 0.266563797964996 
906	 0.267206037065791 
907	 0.268601375384906 
908	 0.267975582790272 
909	 0.267620042218159 
910	 0.267870043191634 
911	 0.267333773290563 
912	 0.26701717917911 
913	 0.26734196884366 
914	 0.266792495542166 
915	 0.266575402290221 
916	 0.268171359592504 
917	 0.267212257385683 
918	 0.26461020857565 
919	 0.264994502486372 
920	 0.266749941341854 
921	 0.26873243837466 
922	 0.268110141932553 
923	 0.266876089226105 
924	 0.266898447606727 
925	 0.26678548985724 
926	 0.266204624652587 
927	 0.264951590640315 
928	 0.26224042767375 
929	 0.259072212272709 
930	 0.262386869898295 
931	 0.262618814330622 
932	 0.253420140243657 
933	 0.257783318566106 
934	 0.263599026206115 
935	 0.248330729065168 
936	 0.242394717213476 
937	 0.247271604124159 
938	 0.246634979042701 
939	 0.246607627863411 
940	 0.2471011781213 
941	 0.240456772085046 
942	 0.236907312234314 
943	 0.24269796170984 
944	 0.244429422671483 
945	 0.24254197882996 
946	 0.240852084903003 
947	 0.237361170546747 
948	 0.232589829217162 
949	 0.229486562630742 
950	 0.225218393730377 
951	 0.219613671086306 
952	 0.218736481634076 
953	 0.21891572490509 
954	 0.217240990103697 
955	 0.225480568710966 
956	 0.233749994430161 
957	 0.221964967508396 
958	 0.212669805517957 
959	 0.210713835126959 
960	 0.209729688968507 
961	 0.209522663654081 
962	 0.209464027910185 
963	 0.207330361638125 
964	 0.206632216041358 
965	 0.210346089849088 
966	 0.211904761701053 
967	 0.211039947137411 
968	 0.20930306450773 
969	 0.211289288747725 
970	 0.215802171641769 
971	 0.213553693875434 
972	 0.210483853702996 
973	 0.209869776877674 
974	 0.210016435722454 
975	 0.209522134506942 
976	 0.207340976084319 
977	 0.209987691414627 
978	 0.213928855980952 
979	 0.208797918469544 
980	 0.207690106933498 
981	 0.212386077606725 
982	 0.214130268199234 
983	 0.215294754847273 
984	 0.216589292793631 
985	 0.214184017277211 
986	 0.21222868725725 
987	 0.215253736177588 
988	 0.219682175286732 
989	 0.222335957990047 
990	 0.218278061630018 
991	 0.214774108768508 
992	 0.215149231732519 
993	 0.222883807985793 
994	 0.226939511507007 
995	 0.222900467281089 
996	 0.221832788927601 
997	 0.220444784540761 
998	 0.215696582964217 
999	 0.218936008180204 
1000	 0.225825136790361 
1001	 0.225729313346968 
1002	 0.224753343259905 
1003	 0.224652938940832 
1004	 0.225892423207787 
1005	 0.227644474017659 
1006	 0.229544458809912 
1007	 0.2319715761156 
1008	 0.234510749655859 
1009	 0.236444076545834 
1010	 0.234947310806968 
1011	 0.231537186019547 
1012	 0.229146513128758 
1013	 0.235021070823454 
1014	 0.24502515163074 
1015	 0.245757973467362 
1016	 0.242436437517599 
1017	 0.23752545317367 
1018	 0.233668234156583 
1019	 0.23514706796841 
1020	 0.242674407989736 
1021	 0.245968166847155 
1022	 0.245099526112724 
1023	 0.241870457677252 
1024	 0.243320895598981 
1025	 0.247960860945395 
1026	 0.25119129586859 
1027	 0.25284487717753 
1028	 0.25302886784845 
1029	 0.252754380292693 
1030	 0.252698665817367 
1031	 0.253357327621985 
1032	 0.255679287219003 
1033	 0.254912116302283 
1034	 0.249741857504533 
1035	 0.251239434958684 
1036	 0.258713562538127 
1037	 0.269299916153731 
1038	 0.273156936375998 
1039	 0.269933785533339 
1040	 0.262954320880962 
1041	 0.261203955453303 
1042	 0.263882613047856 
1043	 0.259578537921202 
1044	 0.259111548305744 
1045	 0.265793226024293 
1046	 0.277758110222089 
1047	 0.278860688952334 
1048	 0.263880117626616 
1049	 0.261198722346926 
1050	 0.269619694993096 
1051	 0.281959893124874 
1052	 0.268617514559411 
1053	 0.25176487523214 
1054	 0.272003467977185 
1055	 0.274462293469269 
1056	 0.260260446942688 
1057	 0.26157302035446 
1058	 0.269713984065752 
1059	 0.279271301081561 
1060	 0.275727930729476 
1061	 0.272382067762918 
1062	 0.272763484842028 
1063	 0.259920818985981 
1064	 0.254130746293574 
1065	 0.266424625242745 
1066	 0.260451687495736 
1067	 0.254430579409569 
1068	 0.27044837977746 
1069	 0.269569576040403 
1070	 0.260752300808763 
1071	 0.268510084106224 
1072	 0.261129280260994 
1073	 0.243641160773552 
1074	 0.247759312294668 
1075	 0.259523591982903 
