Wavelength	AVEI200127.asd
325	 3.14095513916644E-02 
326	 2.91709232513753E-02 
327	 2.47140506668206E-02 
328	 2.62407959459532E-02 
329	 3.11006310403048E-02 
330	 3.66364540356725E-02 
331	 3.66596017286695E-02 
332	 3.37630537043625E-02 
333	 3.10183447056418E-02 
334	 3.35903533463039E-02 
335	 3.78175103600211E-02 
336	 3.30620069107994E-02 
337	 2.97074641573519E-02 
338	 3.08036520445777E-02 
339	 3.48186253440625E-02 
340	 3.56859662142785E-02 
341	 2.97334187195176E-02 
342	 2.96992168275821E-02 
343	 3.38428319504125E-02 
344	 3.52395240559903E-02 
345	 3.51182315251293E-02 
346	 0.034082788624686 
347	 3.33957275453628E-02 
348	 0.033881541323858 
349	 3.54727831419904E-02 
350	 3.29601522572541E-02 
351	 2.93368849344695E-02 
352	 3.02327468439246E-02 
353	 3.06142990435482E-02 
354	 3.01578785215365E-02 
355	 3.25950971465639E-02 
356	 3.39550381762785E-02 
357	 3.22907417236721E-02 
358	 3.21117894598809E-02 
359	 3.28419062868999E-02 
360	 3.28164533195824E-02 
361	 3.21508111218571E-02 
362	 3.13870834927695E-02 
363	 3.23916386124947E-02 
364	 3.27578789554307E-02 
365	 3.14699002760654E-02 
366	 3.09835641599575E-02 
367	 3.07829031133152E-02 
368	 2.98437823995082E-02 
369	 2.99786628956255E-02 
370	 3.09479634383924E-02 
371	 3.05661883133283E-02 
372	 3.04417963747424E-02 
373	 3.11451645709577E-02 
374	 3.04207623691595E-02 
375	 2.92454527880669E-02 
376	 2.92327806344619E-02 
377	 2.89480332294046E-02 
378	 2.82943112981391E-02 
379	 2.80291424491939E-02 
380	 2.79184680337652E-02 
381	 2.79882055820478E-02 
382	 2.90841325415632E-02 
383	 3.04958874129783E-02 
384	 0.031236088934639 
385	 3.02803941495772E-02 
386	 2.84261042770214E-02 
387	 2.88659089167482E-02 
388	 0.029480427606139 
389	 2.92625777296286E-02 
390	 2.85432773155535E-02 
391	 2.78740527564488E-02 
392	 2.78356149133434E-02 
393	 2.84967542028911E-02 
394	 2.94281156228408E-02 
395	 2.95514927921532E-02 
396	 2.91936089686565E-02 
397	 2.86194574543362E-02 
398	 2.83322490464471E-02 
399	 0.028329926514052 
400	 2.85231098833236E-02 
401	 2.84246762496339E-02 
402	 2.81506114407811E-02 
403	 0.028171045001014 
404	 2.85192531847718E-02 
405	 2.89479848660364E-02 
406	 2.78058550078197E-02 
407	 2.66619315707991E-02 
408	 2.75471401278934E-02 
409	 2.78271778527113E-02 
410	 2.73029954125562E-02 
411	 0.027186188504583 
412	 2.70857462994961E-02 
413	 2.69030255405476E-02 
414	 2.71635833376256E-02 
415	 2.74436306491764E-02 
416	 2.71560320053396E-02 
417	 2.72185943473979E-02 
418	 2.75930685456836E-02 
419	 2.74641913516002E-02 
420	 2.73772067102263E-02 
421	 2.75835179324008E-02 
422	 2.76575730894566E-02 
423	 2.76298856870341E-02 
424	 2.76221272423869E-02 
425	 2.73644865593573E-02 
426	 2.69750428044031E-02 
427	 2.70909175157051E-02 
428	 2.72580623697304E-02 
429	 2.72185498840399E-02 
430	 2.75134869194225E-02 
431	 2.77239195911768E-02 
432	 2.70379918571804E-02 
433	 2.68563566937131E-02 
434	 2.72372612782459E-02 
435	 2.68676726682678E-02 
436	 2.65849369214882E-02 
437	 2.68844009182593E-02 
438	 2.68921066075086E-02 
439	 2.66869819294164E-02 
440	 2.66232566224506E-02 
441	 2.67161950154324E-02 
442	 2.69122894686399E-02 
443	 2.69550902316526E-02 
444	 2.68417126191093E-02 
445	 2.66173320648842E-02 
446	 2.67174421866198E-02 
447	 0.027012930025743 
448	 2.70662105090572E-02 
449	 2.70371817294565E-02 
450	 2.69736924120399E-02 
451	 2.68452079459698E-02 
452	 2.68863092104287E-02 
453	 2.72941065329904E-02 
454	 2.74547266978188E-02 
455	 2.73030974429816E-02 
456	 2.69798832922377E-02 
457	 2.69206014082077E-02 
458	 2.72216173304012E-02 
459	 2.71647035265228E-02 
460	 2.70197763744621E-02 
461	 2.71673352220675E-02 
462	 2.70880709580393E-02 
463	 2.68601054258189E-02 
464	 2.70853915129123E-02 
465	 2.73427813754421E-02 
466	 2.73558908061635E-02 
467	 2.68464385720364E-02 
468	 2.63032069109993E-02 
469	 2.64693730871153E-02 
470	 2.67164907964071E-02 
471	 2.68747940772123E-02 
472	 2.69872920459841E-02 
473	 2.71137543770714E-02 
474	 2.72494591476295E-02 
475	 2.70435674230935E-02 
476	 2.66503803206836E-02 
477	 2.63638719921483E-02 
478	 2.67781273338658E-02 
479	 2.76256639873731E-02 
480	 2.70270074057969E-02 
481	 2.64135063559112E-02 
482	 2.69021462051473E-02 
483	 2.69777101536632E-02 
484	 2.66935690047582E-02 
485	 2.67487768755437E-02 
486	 2.70677004701857E-02 
487	 2.75167626676504E-02 
488	 2.74833152836206E-02 
489	 2.72993312965805E-02 
490	 2.73460366524541E-02 
491	 2.74483042531338E-02 
492	 2.74863574558931E-02 
493	 2.71681380509516E-02 
494	 2.71095028094465E-02 
495	 2.74939146672472E-02 
496	 2.76058374810997E-02 
497	 2.76052904484715E-02 
498	 2.77887113366858E-02 
499	 2.77666623705577E-02 
500	 2.76432035481179E-02 
501	 2.80867291959709E-02 
502	 2.85130345300709E-02 
503	 2.85796021685805E-02 
504	 2.85912851470178E-02 
505	 2.87556484888307E-02 
506	 0.029365586457135 
507	 2.96514546360908E-02 
508	 2.95625289289932E-02 
509	 2.98587503384832E-02 
510	 0.030250930791805 
511	 0.030505853910092 
512	 3.08834655711095E-02 
513	 3.12827292462314E-02 
514	 3.13632180127416E-02 
515	 3.15202198706543E-02 
516	 3.18923711197352E-02 
517	 3.23553099619383E-02 
518	 3.28190997553193E-02 
519	 3.31948891698175E-02 
520	 3.35902196299371E-02 
521	 3.41073829445793E-02 
522	 3.50352560567336E-02 
523	 3.56331102477259E-02 
524	 3.56898482134284E-02 
525	 3.62686269239524E-02 
526	 3.70399051588704E-02 
527	 3.73797949769914E-02 
528	 3.76150783933962E-02 
529	 3.78654854620055E-02 
530	 3.82186949698112E-02 
531	 3.87559760322571E-02 
532	 3.94728382199951E-02 
533	 3.98308317846647E-02 
534	 3.99065452038681E-02 
535	 3.99946167860558E-02 
536	 4.01995404410713E-02 
537	 4.05576728754938E-02 
538	 4.09779447333392E-02 
539	 4.13558717111942E-02 
540	 4.15900716119854E-02 
541	 4.16424550078916E-02 
542	 4.16214365480444E-02 
543	 0.041776740315368 
544	 4.21664637022789E-02 
545	 4.27156430083443E-02 
546	 4.28217491527277E-02 
547	 4.26942197998098E-02 
548	 4.26806004781811E-02 
549	 4.27547639501933E-02 
550	 4.29288291412805E-02 
551	 4.32085872697357E-02 
552	 4.35270518341097E-02 
553	 4.38191901971937E-02 
554	 0.043999584886266 
555	 4.40299580298016E-02 
556	 4.38415802232142E-02 
557	 4.38838426322656E-02 
558	 4.41805203014911E-02 
559	 4.40832533336781E-02 
560	 4.38889156104692E-02 
561	 4.38893282001883E-02 
562	 4.38555638833093E-02 
563	 4.38012023085413E-02 
564	 4.38899983974775E-02 
565	 4.38504988882901E-02 
566	 4.36059752337774E-02 
567	 4.34673721816663E-02 
568	 4.33112212914102E-02 
569	 4.29461334428963E-02 
570	 4.26567637469665E-02 
571	 4.24734560619792E-02 
572	 0.042224003866194 
573	 4.19860046393196E-02 
574	 4.18202637206448E-02 
575	 4.18844588427192E-02 
576	 4.18831283552651E-02 
577	 4.12202973011293E-02 
578	 4.09013422793406E-02 
579	 4.11115220748976E-02 
580	 4.11261483464055E-02 
581	 4.10192662732159E-02 
582	 4.08711966225264E-02 
583	 4.05240482424253E-02 
584	 4.01633758589943E-02 
585	 4.03304091597031E-02 
586	 4.04579268630628E-02 
587	 0.040319301777109 
588	 4.00818672969183E-02 
589	 3.98883460105855E-02 
590	 3.99083410509168E-02 
591	 0.039768421499288 
592	 3.94923246391059E-02 
593	 3.94578090243238E-02 
594	 3.94617662382338E-02 
595	 3.93930832390468E-02 
596	 3.93737257027284E-02 
597	 3.93625883838494E-02 
598	 3.92627331129458E-02 
599	 3.91637008413913E-02 
600	 3.91287594210171E-02 
601	 3.93167655998715E-02 
602	 3.94165583040225E-02 
603	 3.91771911418819E-02 
604	 3.90698077488424E-02 
605	 3.91079842447858E-02 
606	 3.91304709099025E-02 
607	 3.89585013083293E-02 
608	 3.85974992266153E-02 
609	 3.86134405875418E-02 
610	 3.87364214047402E-02 
611	 3.85644412566667E-02 
612	 3.82889286824091E-02 
613	 3.80074325771805E-02 
614	 3.78821725448265E-02 
615	 3.77859492487831E-02 
616	 3.76463629070622E-02 
617	 3.75614495111367E-02 
618	 3.74749834934662E-02 
619	 3.72649391810039E-02 
620	 3.71182127354911E-02 
621	 3.70421330346787E-02 
622	 3.67906868226708E-02 
623	 3.65817132634226E-02 
624	 3.66276394973252E-02 
625	 3.70144503549671E-02 
626	 3.74293810171043E-02 
627	 3.70421031089655E-02 
628	 3.66587891366591E-02 
629	 3.66111156802773E-02 
630	 0.036701765771381 
631	 3.68565598399546E-02 
632	 3.69993822572334E-02 
633	 3.71541162658104E-02 
634	 3.72366170692966E-02 
635	 3.70241335056278E-02 
636	 3.66037121417249E-02 
637	 3.60883368445262E-02 
638	 3.58625214527306E-02 
639	 3.58119960473586E-02 
640	 3.56428588542755E-02 
641	 3.54119194896091E-02 
642	 0.035102303712832 
643	 3.46061897186984E-02 
644	 3.41557757583345E-02 
645	 3.39295327930501E-02 
646	 0.033410640493624 
647	 3.28534435279901E-02 
648	 3.32507688195024E-02 
649	 3.33264169898543E-02 
650	 3.27373900225322E-02 
651	 3.27906742942891E-02 
652	 3.28627250206476E-02 
653	 3.21040966621849E-02 
654	 3.18562764619858E-02 
655	 3.22321590062654E-02 
656	 0.032453729420384 
657	 3.24236536442962E-02 
658	 3.21148611236246E-02 
659	 3.18202484661495E-02 
660	 3.16000550752099E-02 
661	 3.14739659994284E-02 
662	 3.15192614501848E-02 
663	 3.15480509602116E-02 
664	 3.06754388213093E-02 
665	 2.99746157238329E-02 
666	 3.02968968005378E-02 
667	 3.04150733867197E-02 
668	 3.02044968987611E-02 
669	 2.98301594227439E-02 
670	 0.029970048812379 
671	 3.06184592669636E-02 
672	 3.01040008402159E-02 
673	 0.029377638477317 
674	 2.96583091272012E-02 
675	 3.00633748548339E-02 
676	 3.03138164584082E-02 
677	 0.030211184418917 
678	 3.00226761514846E-02 
679	 2.99386816530052E-02 
680	 3.00947784526851E-02 
681	 3.04921530451454E-02 
682	 3.11105238386171E-02 
683	 3.15188979316227E-02 
684	 3.17883269512468E-02 
685	 0.032804821507057 
686	 3.39698628281542E-02 
687	 3.47375121689959E-02 
688	 3.55678155585631E-02 
689	 3.65438063597588E-02 
690	 3.77979442063194E-02 
691	 3.91573159660098E-02 
692	 4.06845860896835E-02 
693	 4.27551945887856E-02 
694	 4.50637829271377E-02 
695	 0.047170031383913 
696	 4.92563811649935E-02 
697	 5.14055988987517E-02 
698	 5.38036654171769E-02 
699	 5.65734993858443E-02 
700	 5.96328470310185E-02 
701	 0.062244967781553 
702	 6.46729137544258E-02 
703	 6.74089792314871E-02 
704	 7.02523782547782E-02 
705	 7.31695210662045E-02 
706	 7.61114072203918E-02 
707	 7.88975981640365E-02 
708	 8.14298882704905E-02 
709	 8.39863171149278E-02 
710	 8.66312101759002E-02 
711	 8.94357288622509E-02 
712	 9.20541017635906E-02 
713	 9.43878431515236E-02 
714	 9.66865686898832E-02 
715	 9.87488374765941E-02 
716	 0.100483563579156 
717	 0.102033520881787 
718	 0.103847118238318 
719	 0.106802402255701 
720	 0.109462438357304 
721	 0.11119673992646 
722	 0.112778251649265 
723	 0.114289244078379 
724	 0.115628142091802 
725	 0.117325630033109 
726	 0.119102334200197 
727	 0.120090936618567 
728	 0.121195860829007 
729	 0.122755416025614 
730	 0.123704986531654 
731	 0.124444579832141 
732	 0.12565441391974 
733	 0.126848581155808 
734	 0.127911913458659 
735	 0.128729376745712 
736	 0.129663790452511 
737	 0.130858954568666 
738	 0.131630521037479 
739	 0.132132621234606 
740	 0.13284787775751 
741	 0.13325443848954 
742	 0.133387373245567 
743	 0.134014348217063 
744	 0.134783434640918 
745	 0.135388620373399 
746	 0.136055224782346 
747	 0.136691518244183 
748	 0.136986982034562 
749	 0.137443797628068 
750	 0.138117531775175 
751	 0.138226582868885 
752	 0.138294858366169 
753	 0.138911835707437 
754	 0.139491217826893 
755	 0.139907628468591 
756	 0.140170263676894 
757	 0.1404265751195 
758	 0.14074476974162 
759	 0.140810680159439 
760	 0.140812930410277 
761	 0.141365405221612 
762	 0.141939963425753 
763	 0.142380618365589 
764	 0.142976336392997 
765	 0.143484372550164 
766	 0.14381446215024 
767	 0.144022355638074 
768	 0.144292185978564 
769	 0.144824224114407 
770	 0.145429505872048 
771	 0.145964670913062 
772	 0.146145111840692 
773	 0.146187571637588 
774	 0.146272421114603 
775	 0.146542545683103 
776	 0.147011843104849 
777	 0.147676069585041 
778	 0.148216318923252 
779	 0.148460445394662 
780	 0.148178234864009 
781	 0.148123804501422 
782	 0.148844575429417 
783	 0.149447530765448 
784	 0.149747689394131 
785	 0.149692419995781 
786	 0.149613249513209 
787	 0.149706585947782 
788	 0.150204692010683 
789	 0.150694732924925 
790	 0.150801809441654 
791	 0.151139572036514 
792	 0.151501616705162 
793	 0.151039976793872 
794	 0.151040322348903 
795	 0.151763212449494 
796	 0.151933783680077 
797	 0.151948332296323 
798	 0.152262345962902 
799	 0.152400261761361 
800	 0.152434136981775 
801	 0.152794907692763 
802	 0.153097994782422 
803	 0.153267623499526 
804	 0.153734750667629 
805	 0.154363910802963 
806	 0.154962520855868 
807	 0.155101453750833 
808	 0.154976206581161 
809	 0.155381814032232 
810	 0.156032683144396 
811	 0.156627091244785 
812	 0.15606732719957 
813	 0.155180658934078 
814	 0.155229143865056 
815	 0.156026088800682 
816	 0.157131972334791 
817	 0.157336605287242 
818	 0.157174433584694 
819	 0.157120638578094 
820	 0.158381401005631 
821	 0.15950226029322 
822	 0.15874824770201 
823	 0.159280491440418 
824	 0.160944171608281 
825	 0.161345367614826 
826	 0.161269179964641 
827	 0.161121245817465 
828	 0.161449190254601 
829	 0.161848451645857 
830	 0.161764566338261 
831	 0.161894209898392 
832	 0.162390064882996 
833	 0.163297053574797 
834	 0.16382811934375 
835	 0.163780408789849 
836	 0.164233242109492 
837	 0.164748514166663 
838	 0.164758147798169 
839	 0.165122272675846 
840	 0.165591453010645 
841	 0.164791381176457 
842	 0.16479664866169 
843	 0.166149868462183 
844	 0.166372586396393 
845	 0.166165439603451 
846	 0.166522351556937 
847	 0.166666812346116 
848	 0.166576323909676 
849	 0.166588693616403 
850	 0.166736776913807 
851	 0.166952768353614 
852	 0.166589604210019 
853	 0.166554508907104 
854	 0.167754375961627 
855	 0.16829249144064 
856	 0.167976866214973 
857	 0.167202542400767 
858	 0.167258795531884 
859	 0.168296155377014 
860	 0.16837342390628 
861	 0.168197594143843 
862	 0.168526480809432 
863	 0.168870120415321 
864	 0.169278243737545 
865	 0.170152939861839 
866	 0.170204342405715 
867	 0.169361968877093 
868	 0.169427761783768 
869	 0.170139001241424 
870	 0.171164134570599 
871	 0.172313941343018 
872	 0.172974358156477 
873	 0.172018185332744 
874	 0.172118156431636 
875	 0.173532774377175 
876	 0.173475568180597 
877	 0.173800140096775 
878	 0.175599228759239 
879	 0.176317442574925 
880	 0.176308859056519 
881	 0.176717611641551 
882	 0.177718795613861 
883	 0.178872671504945 
884	 0.178421486436924 
885	 0.177743737644874 
886	 0.177816625745755 
887	 0.179314445977304 
888	 0.18129487870026 
889	 0.182404341423029 
890	 0.181911513683741 
891	 0.180388308577102 
892	 0.180144515411212 
893	 0.180728177552233 
894	 0.181564303521311 
895	 0.179984474683924 
896	 0.178341274720714 
897	 0.179663223479868 
898	 0.180355269978807 
899	 0.180594745166975 
900	 0.182910262485213 
901	 0.184222850842232 
902	 0.183929458209782 
903	 0.184312518067612 
904	 0.18455896518439 
905	 0.184140502688012 
906	 0.184899299048864 
907	 0.185461551950603 
908	 0.182825952446266 
909	 0.183161509357464 
910	 0.186316162764265 
911	 0.18414891618516 
912	 0.18216309470857 
913	 0.183327338862339 
914	 0.18393872465398 
915	 0.184523404410457 
916	 0.186026716760753 
917	 0.184218214748176 
918	 0.181092632694081 
919	 0.184316181070627 
920	 0.186716509597802 
921	 0.186141216754551 
922	 0.18540296574194 
923	 0.185050975068393 
924	 0.18535834576814 
925	 0.184684614500532 
926	 0.183056437315124 
927	 0.181188839643597 
928	 0.179647283955191 
929	 0.178915097940897 
930	 0.18014249362389 
931	 0.178003838187367 
932	 0.169177816757387 
933	 0.167324780467286 
934	 0.172609049291145 
935	 0.180318110470575 
936	 0.182642580204103 
937	 0.178183112359289 
938	 0.168940042603773 
939	 0.165415716762887 
940	 0.168913071170591 
941	 0.167310810015053 
942	 0.165031357791876 
943	 0.165189161036377 
944	 0.163303813598087 
945	 0.162465927595079 
946	 0.168217379789177 
947	 0.168427769049596 
948	 0.163571184195049 
949	 0.166666012771407 
950	 0.164676302796013 
951	 0.154800227038608 
952	 0.152553855288002 
953	 0.156916746275279 
954	 0.164772026189025 
955	 0.167160408342346 
956	 0.162705805554689 
957	 0.15161251325879 
958	 0.150061498893709 
959	 0.156951499525553 
960	 0.153164194031794 
961	 0.150802029195965 
962	 0.154668589559139 
963	 0.157775406676864 
964	 0.15847275763961 
965	 0.156085977305561 
966	 0.155435360401655 
967	 0.154760044491673 
968	 0.148215272088405 
969	 0.15012952419527 
970	 0.159740552866792 
971	 0.159650443652973 
972	 0.156979738381134 
973	 0.155834671683698 
974	 0.155376287720306 
975	 0.155608444923556 
976	 0.156465063705111 
977	 0.157318852299744 
978	 0.158549799780727 
979	 0.161664251656531 
980	 0.159832757832363 
981	 0.154717073451602 
982	 0.160498371135288 
983	 0.16404530855501 
984	 0.159652181651955 
985	 0.158741215477529 
986	 0.160835893999802 
987	 0.164026367025839 
988	 0.16522510469129 
989	 0.16497076624856 
990	 0.165714025423135 
991	 0.164058241228659 
992	 0.16184779415716 
993	 0.169420800064402 
994	 0.172870051833857 
995	 0.167284621504828 
996	 0.169342990246432 
997	 0.171061403055561 
998	 0.164487009980312 
999	 0.163118357068834 
1000	 0.166479563255789 
1001	 0.169791608210895 
1002	 0.171232337530778 
1003	 0.169839386102388 
1004	 0.164326643358312 
1005	 0.163158685604943 
1006	 0.169295006683632 
1007	 0.177367125046696 
1008	 0.181354845364817 
1009	 0.177666130697321 
1010	 0.17545492965074 
1011	 0.174822222624361 
1012	 0.174216575520716 
1013	 0.181198409753911 
1014	 0.189816836406513 
1015	 0.181925363639899 
1016	 0.177442886896951 
1017	 0.179801737628809 
1018	 0.174657666469332 
1019	 0.172814065574638 
1020	 0.178759640318383 
1021	 0.180540178574765 
1022	 0.179092116616999 
1023	 0.176971980228635 
1024	 0.179666759669403 
1025	 0.184531091778393 
1026	 0.185688557874555 
1027	 0.179003067709286 
1028	 0.170366474780506 
1029	 0.181448378985791 
1030	 0.181710042162737 
1031	 0.16735941046477 
1032	 0.173570230984103 
1033	 0.182038709769563 
1034	 0.181627865503155 
1035	 0.185948850705766 
1036	 0.186518813172591 
1037	 0.175718813846117 
1038	 0.184839894924931 
1039	 0.19918168702165 
1040	 0.185841571889548 
1041	 0.184219063553448 
1042	 0.194092626969112 
1043	 0.182864080594975 
1044	 0.177267019679579 
1045	 0.185505860334339 
1046	 0.200982599593675 
1047	 0.201175164273801 
1048	 0.178937038082444 
1049	 0.178079017910193 
1050	 0.180157920032957 
1051	 0.165443355809057 
1052	 0.157245533917605 
1053	 0.161119288400144 
1054	 0.178340862822652 
1055	 0.175750245936459 
1056	 0.160939647722989 
1057	 0.171777320573847 
1058	 0.179061675061451 
1059	 0.179177536149165 
1060	 0.192360262969012 
1061	 0.192602521694717 
1062	 0.173164949108142 
1063	 0.16141567212912 
1064	 0.165325381772314 
1065	 0.181380914022048 
1066	 0.158596278714159 
1067	 0.134856821390429 
1068	 0.156503640569779 
1069	 0.164551896520941 
1070	 0.16093756375354 
1071	 0.165927869985665 
1072	 0.177860972576914 
1073	 0.19160103086813 
1074	 0.193603777020226 
1075	 0.189596093851908 
