Wavelength	AVEI200304.asd
325	 3.37166794917801E-02 
326	 0.028553067764228 
327	 7.57710963173566E-03 
328	 3.46000382441505E-02 
329	 4.81603363156465E-02 
330	 0.032243445328872 
331	 1.50613417268369E-02 
332	 1.00953271957808E-02 
333	 2.56705575949376E-02 
334	 3.10732187957555E-02 
335	 2.61544082468162E-02 
336	 2.15881253486165E-02 
337	 2.87098174658915E-02 
338	 4.36460283112924E-02 
339	 3.05352338068543E-02 
340	 1.63334192485234E-02 
341	 2.34050229523954E-02 
342	 0.025943241726557 
343	 2.48769154378797E-02 
344	 3.03962083544542E-02 
345	 2.84824372844539E-02 
346	 2.02449506183216E-02 
347	 2.46812548012429E-02 
348	 3.09254796881375E-02 
349	 3.16968629153931E-02 
350	 3.33438801539775E-02 
351	 0.033435579588696 
352	 2.66682205917483E-02 
353	 2.44070120878011E-02 
354	 2.70284215128119E-02 
355	 2.45669682003105E-02 
356	 2.28061371117422E-02 
357	 2.51103902917832E-02 
358	 2.82738005858175E-02 
359	 3.14007237587623E-02 
360	 3.40896676956379E-02 
361	 3.11530282918774E-02 
362	 2.53446861044205E-02 
363	 3.00576291778937E-02 
364	 3.36172851202947E-02 
365	 0.030484529033567 
366	 2.98812796727182E-02 
367	 0.029760319104964 
368	 2.61436213708315E-02 
369	 2.46925590783588E-02 
370	 2.65018418363619E-02 
371	 3.11253927164967E-02 
372	 3.23854554207829E-02 
373	 2.80537698534346E-02 
374	 2.78183768789277E-02 
375	 3.05627423828731E-02 
376	 3.32160814722945E-02 
377	 3.06357879079442E-02 
378	 2.42355213781998E-02 
379	 2.33083107031991E-02 
380	 0.023560449647952 
381	 2.29214460232102E-02 
382	 2.21935950304862E-02 
383	 0.02321891056178 
384	 2.82645758862732E-02 
385	 3.10667305841966E-02 
386	 3.06399086223878E-02 
387	 2.98071630374336E-02 
388	 2.83490887939145E-02 
389	 2.68237700008634E-02 
390	 2.81076573249377E-02 
391	 2.94986404538523E-02 
392	 0.027730862273495 
393	 2.86765108348796E-02 
394	 3.09127794045343E-02 
395	 2.63836928855572E-02 
396	 2.45446430569874E-02 
397	 2.79873252089403E-02 
398	 2.70702230990186E-02 
399	 2.47172410797124E-02 
400	 2.47291786021163E-02 
401	 2.59458419861944E-02 
402	 2.77061363169186E-02 
403	 2.93240681681031E-02 
404	 2.94721105089883E-02 
405	 2.81435972857851E-02 
406	 0.029203568122827 
407	 3.00709884416033E-02 
408	 2.72799105004402E-02 
409	 2.65127503464535E-02 
410	 2.78989512099458E-02 
411	 2.78804477112836E-02 
412	 2.76837677077191E-02 
413	 2.78266013071973E-02 
414	 2.79393262569786E-02 
415	 2.79506408545147E-02 
416	 2.78049048537501E-02 
417	 2.83333085936752E-02 
418	 0.029024391119354 
419	 0.027619085231608 
420	 2.64754910035908E-02 
421	 2.67496353644669E-02 
422	 2.66422269808306E-02 
423	 2.61584564739227E-02 
424	 2.55729621119767E-02 
425	 0.026000632658475 
426	 2.72673973979727E-02 
427	 0.027607785633716 
428	 2.80945544606572E-02 
429	 2.91317875254026E-02 
430	 2.81966381281498E-02 
431	 2.64894398643371E-02 
432	 2.65342284575785E-02 
433	 2.65271358573512E-02 
434	 0.026160516925862 
435	 2.61188466622762E-02 
436	 2.60971959751209E-02 
437	 2.59323062942178E-02 
438	 2.61066926076654E-02 
439	 2.65370085401218E-02 
440	 2.70337364792847E-02 
441	 2.66079223995357E-02 
442	 2.55930810635441E-02 
443	 2.67113679030197E-02 
444	 2.82506024990613E-02 
445	 2.86522365825565E-02 
446	 2.71934327260469E-02 
447	 2.54132286747584E-02 
448	 2.70434293405896E-02 
449	 0.028424129840604 
450	 2.84036562504056E-02 
451	 0.028025905137192 
452	 2.78293695999594E-02 
453	 2.82392772131407E-02 
454	 2.80274444932815E-02 
455	 2.72443881769679E-02 
456	 2.65802383480686E-02 
457	 2.67208888170076E-02 
458	 2.77324579904886E-02 
459	 0.027921429673851 
460	 2.80223135445226E-02 
461	 2.90337878786545E-02 
462	 2.85433825940995E-02 
463	 2.70468447650808E-02 
464	 2.78096095520874E-02 
465	 2.84519829102093E-02 
466	 2.79883246494042E-02 
467	 0.028755952422563 
468	 2.96954499286912E-02 
469	 2.89336036803095E-02 
470	 2.78058759496175E-02 
471	 2.70522065721566E-02 
472	 0.027756182007717 
473	 2.88814313410316E-02 
474	 0.029579044628747 
475	 2.89885440656527E-02 
476	 2.80349992816176E-02 
477	 2.86081050874875E-02 
478	 2.81206745038669E-02 
479	 2.67940738259548E-02 
480	 2.89034846375862E-02 
481	 3.06119613209293E-02 
482	 2.89331660659342E-02 
483	 2.73743699694775E-02 
484	 2.68899757437287E-02 
485	 2.83561516043196E-02 
486	 2.92850588302354E-02 
487	 2.88802489483344E-02 
488	 2.86588783567345E-02 
489	 2.89246644598658E-02 
490	 2.97805078143413E-02 
491	 2.91926241461758E-02 
492	 2.77702360720731E-02 
493	 2.82602821797531E-02 
494	 2.87942505087265E-02 
495	 2.86823612822113E-02 
496	 2.89378331681648E-02 
497	 2.92762888149979E-02 
498	 2.92194781601438E-02 
499	 2.99028791452158E-02 
500	 3.11341765300249E-02 
501	 3.13959851883891E-02 
502	 3.11484127645973E-02 
503	 3.08097896730898E-02 
504	 3.12180819545292E-02 
505	 3.21034126407895E-02 
506	 3.28078848934183E-02 
507	 3.39006128366591E-02 
508	 3.49150180271537E-02 
509	 3.33849992134943E-02 
510	 3.22161348495579E-02 
511	 3.36529867447493E-02 
512	 3.51538291905315E-02 
513	 0.036023875197325 
514	 3.57405190018522E-02 
515	 3.51277070847695E-02 
516	 3.47136104749003E-02 
517	 3.51412212701997E-02 
518	 0.036294458149838 
519	 3.78868260066824E-02 
520	 3.83392510106269E-02 
521	 3.79471549459258E-02 
522	 3.84100563824274E-02 
523	 3.91761697271538E-02 
524	 4.00716894502965E-02 
525	 4.16493578365594E-02 
526	 4.26121155011143E-02 
527	 4.10696002703713E-02 
528	 4.10080468978316E-02 
529	 4.28421677940241E-02 
530	 4.41337933994816E-02 
531	 4.49622937358747E-02 
532	 4.53220275994059E-02 
533	 4.48088957333185E-02 
534	 4.40741123693051E-02 
535	 4.44621015022933E-02 
536	 4.46272247627169E-02 
537	 4.43897592147327E-02 
538	 4.49176957737839E-02 
539	 0.045883032257063 
540	 4.68417979199727E-02 
541	 4.66623943101581E-02 
542	 4.59012305991797E-02 
543	 4.66413658127433E-02 
544	 4.74831453034466E-02 
545	 4.78996497831688E-02 
546	 4.84680188890002E-02 
547	 4.90185699514167E-02 
548	 4.92800091296559E-02 
549	 0.04880110632135 
550	 0.047911610024601 
551	 4.78897990891932E-02 
552	 4.87082301732744E-02 
553	 5.01560665642988E-02 
554	 5.07077123427936E-02 
555	 5.05962887048904E-02 
556	 5.07379022473183E-02 
557	 5.03143213838537E-02 
558	 4.95161029278317E-02 
559	 5.03410793418162E-02 
560	 5.09414773545164E-02 
561	 4.96793504001944E-02 
562	 4.91301513798666E-02 
563	 4.95310681552204E-02 
564	 5.02217955720065E-02 
565	 5.07377221863659E-02 
566	 5.07565694830569E-02 
567	 5.00549281793756E-02 
568	 4.93583689973134E-02 
569	 4.96004214949894E-02 
570	 4.92861754170926E-02 
571	 4.85693522641701E-02 
572	 4.93963054719956E-02 
573	 4.96414830629303E-02 
574	 4.83726867769852E-02 
575	 4.95361464690101E-02 
576	 5.13452932977389E-02 
577	 4.95738924877241E-02 
578	 4.77144393781769E-02 
579	 4.69384475577733E-02 
580	 4.69178518370637E-02 
581	 4.76573631663411E-02 
582	 4.90038102637309E-02 
583	 4.91558069461579E-02 
584	 4.84291425902453E-02 
585	 4.86051035453375E-02 
586	 4.86427403880962E-02 
587	 4.80953331818505E-02 
588	 4.66075301382445E-02 
589	 4.55687338136816E-02 
590	 4.68171809312184E-02 
591	 4.82547303156863E-02 
592	 4.89122124472683E-02 
593	 4.76821518518578E-02 
594	 4.67466581414111E-02 
595	 4.73240593392129E-02 
596	 4.77579388795283E-02 
597	 4.79130165413798E-02 
598	 4.79364806868323E-02 
599	 4.82717594725423E-02 
600	 4.87678360128759E-02 
601	 4.81189676839817E-02 
602	 4.73258082902224E-02 
603	 4.73287060467837E-02 
604	 4.78516199817056E-02 
605	 4.85798614662969E-02 
606	 4.90824008527319E-02 
607	 4.83867828899123E-02 
608	 4.64846938687441E-02 
609	 4.60237745104957E-02 
610	 4.64197042373463E-02 
611	 4.65931931143449E-02 
612	 4.64806718855004E-02 
613	 4.62149102436787E-02 
614	 4.66417183510012E-02 
615	 4.60847990594116E-02 
616	 4.40592306814354E-02 
617	 4.55761826927956E-02 
618	 4.82239690662174E-02 
619	 4.67318426565171E-02 
620	 4.46363771308646E-02 
621	 4.33684622114536E-02 
622	 0.04416528061025 
623	 4.57042672749285E-02 
624	 4.66591571644645E-02 
625	 4.65485079011102E-02 
626	 4.56249984379792E-02 
627	 4.46161736909158E-02 
628	 4.48950056014617E-02 
629	 4.66545878031116E-02 
630	 4.72097180003871E-02 
631	 4.65718637789497E-02 
632	 4.51204415694827E-02 
633	 4.52597069623111E-02 
634	 4.64378488860532E-02 
635	 4.45619844884783E-02 
636	 4.34581398158401E-02 
637	 4.50499687978546E-02 
638	 0.045255127551039 
639	 4.44857098458456E-02 
640	 4.44814742695422E-02 
641	 4.40034746037564E-02 
642	 0.043182083926123 
643	 4.41988683005828E-02 
644	 0.044677738904043 
645	 0.042654543268246 
646	 4.20382110462177E-02 
647	 4.23505313800472E-02 
648	 3.99455255386092E-02 
649	 3.92880307898878E-02 
650	 4.14622688787669E-02 
651	 4.17168430559737E-02 
652	 4.11640495178723E-02 
653	 4.15984375055281E-02 
654	 4.11733288314293E-02 
655	 4.00797853349272E-02 
656	 4.07367074728182E-02 
657	 0.040570544734727 
658	 3.85791052981007E-02 
659	 3.90303099642059E-02 
660	 4.04866774307712E-02 
661	 3.99458276357485E-02 
662	 3.96009195193183E-02 
663	 3.97116359350077E-02 
664	 3.86911799253048E-02 
665	 3.80154787346577E-02 
666	 3.87317096895598E-02 
667	 3.74627858190229E-02 
668	 0.035161654092189 
669	 3.56560699465199E-02 
670	 3.58460482273824E-02 
671	 3.50133529016991E-02 
672	 3.56152143161857E-02 
673	 3.68737078077116E-02 
674	 3.76682237434877E-02 
675	 3.78128357412944E-02 
676	 3.75397647336548E-02 
677	 0.037693699925911 
678	 3.82797430884571E-02 
679	 3.90833946574854E-02 
680	 3.83641885479879E-02 
681	 3.73830435895469E-02 
682	 3.84639291758856E-02 
683	 3.92406170561376E-02 
684	 3.94041423800491E-02 
685	 4.04498068243308E-02 
686	 4.23132390568955E-02 
687	 0.044799275862587 
688	 4.60553709573438E-02 
689	 4.66188580399041E-02 
690	 4.87948423543617E-02 
691	 5.11569900684328E-02 
692	 5.34569809290511E-02 
693	 5.64674571387011E-02 
694	 5.88669667592412E-02 
695	 5.93564265575333E-02 
696	 6.25307916672287E-02 
697	 6.76190700888751E-02 
698	 7.04759415263423E-02 
699	 7.21751418659259E-02 
700	 7.35437586690078E-02 
701	 7.74175989626671E-02 
702	 8.21701700169984E-02 
703	 8.51618118044211E-02 
704	 8.79767573892515E-02 
705	 9.07196768816634E-02 
706	 0.09246978622235 
707	 0.093740073187788 
708	 9.50582422990875E-02 
709	 9.77382760841038E-02 
710	 0.10143408098434 
711	 0.105237994929395 
712	 0.108456209368629 
713	 0.110884787896222 
714	 0.113229781694256 
715	 0.11509337456061 
716	 0.116206092234535 
717	 0.117888961943244 
718	 0.120031492417663 
719	 0.120568410641338 
720	 0.122346546471294 
721	 0.125590747443815 
722	 0.1273840676725 
723	 0.128847561824368 
724	 0.131148285467432 
725	 0.132467296113429 
726	 0.13281533207299 
727	 0.133914184274796 
728	 0.135172404945639 
729	 0.136463149559523 
730	 0.138936699820011 
731	 0.140932247341735 
732	 0.140181537874919 
733	 0.139964202088886 
734	 0.140802928172593 
735	 0.14162490923072 
736	 0.142598089256758 
737	 0.143734984036766 
738	 0.144365785396355 
739	 0.145282110013418 
740	 0.148267085058777 
741	 0.149375301341455 
742	 0.148136362376651 
743	 0.148051622367176 
744	 0.148611672992106 
745	 0.149261572174885 
746	 0.149906207901862 
747	 0.150245591671157 
748	 0.149498962065348 
749	 0.149712643250304 
750	 0.151312790013676 
751	 0.151956426120539 
752	 0.152492285579532 
753	 0.153932516314995 
754	 0.15460346735591 
755	 0.154744341655293 
756	 0.15608794924189 
757	 0.15708012017022 
758	 0.157226251218332 
759	 0.158404764142706 
760	 0.160558433006401 
761	 0.16017800744432 
762	 0.159199209709672 
763	 0.159131940229086 
764	 0.160856393315469 
765	 0.162508119677314 
766	 0.163171769959976 
767	 0.161875894783443 
768	 0.160847962061354 
769	 0.162717785457145 
770	 0.163645921109135 
771	 0.163283661820226 
772	 0.163986415205346 
773	 0.164347902494013 
774	 0.163625785568265 
775	 0.163913031329973 
776	 0.165046356578187 
777	 0.166234199103544 
778	 0.166778868405088 
779	 0.166739647402515 
780	 0.167566518675064 
781	 0.168331197640696 
782	 0.168342366151344 
783	 0.168638643037379 
784	 0.169254062303808 
785	 0.169933131632213 
786	 0.170033282243068 
787	 0.169695470738696 
788	 0.170827951251368 
789	 0.171811202497359 
790	 0.171241150862342 
791	 0.172442242881998 
792	 0.174468601169384 
793	 0.173591185179695 
794	 0.172441720387133 
795	 0.172089306865258 
796	 0.172871949600794 
797	 0.173625919655084 
798	 0.173287821624227 
799	 0.17454839824289 
800	 0.177032992166114 
801	 0.178672844095445 
802	 0.178191349237276 
803	 0.175969925778413 
804	 0.177435272603613 
805	 0.180045675680435 
806	 0.180671846807193 
807	 0.18059326749754 
808	 0.180454731154993 
809	 0.18148395131936 
810	 0.182294655418102 
811	 0.182354972829089 
812	 0.182634342884354 
813	 0.182744991752039 
814	 0.182082015498124 
815	 0.181498510776159 
816	 0.181864865104001 
817	 0.185261884788981 
818	 0.186186636832348 
819	 0.183521822921358 
820	 0.185740800799035 
821	 0.188435622773051 
822	 0.185941129118174 
823	 0.186118961894404 
824	 0.188919851574193 
825	 0.188867317248827 
826	 0.189823038008716 
827	 0.192543824808885 
828	 0.191203775242116 
829	 0.189129877166561 
830	 0.190967472938671 
831	 0.192010534964195 
832	 0.191781648436514 
833	 0.191757390675485 
834	 0.192594918729756 
835	 0.194152557501826 
836	 0.193711508402456 
837	 0.192526142285265 
838	 0.192333865710742 
839	 0.195844793976949 
840	 0.200583334891361 
841	 0.197950588981888 
842	 0.195314469278603 
843	 0.195700484342543 
844	 0.196643161806922 
845	 0.197306325140493 
846	 0.197045178689265 
847	 0.197791208216562 
848	 0.199486706165842 
849	 0.200860171176209 
850	 0.201687146536994 
851	 0.201833260753677 
852	 0.201508175383672 
853	 0.201328798925424 
854	 0.20182423514478 
855	 0.201038113345413 
856	 0.199468724221956 
857	 0.19930487642188 
858	 0.198859046655871 
859	 0.198174910319432 
860	 0.200058041106735 
861	 0.203292717236 
862	 0.206321134429031 
863	 0.206169834629556 
864	 0.20352424411967 
865	 0.200954510946126 
866	 0.202818481189879 
867	 0.208523249498912 
868	 0.207468376686147 
869	 0.205106492993596 
870	 0.205942883110003 
871	 0.205381628030797 
872	 0.20408022775542 
873	 0.204622722073227 
874	 0.204419080639341 
875	 0.203822045528258 
876	 0.207461417071722 
877	 0.21079399945697 
878	 0.210990682892003 
879	 0.213716024513586 
880	 0.216680590156106 
881	 0.215077071531998 
882	 0.21418522792518 
883	 0.215134652486567 
884	 0.21639685241192 
885	 0.217397965993039 
886	 0.217788661512631 
887	 0.217832653159178 
888	 0.218968250411346 
889	 0.222874545215603 
890	 0.223429131773733 
891	 0.220778420444266 
892	 0.220045439424071 
893	 0.220385707708154 
894	 0.221715918669279 
895	 0.225014436732771 
896	 0.226496751649405 
897	 0.222167989573684 
898	 0.2239721844553 
899	 0.229407302076991 
900	 0.226021413437553 
901	 0.221314037567107 
902	 0.219057717473545 
903	 0.223764506298344 
904	 0.226921110552027 
905	 0.223030968319829 
906	 0.227228964637093 
907	 0.235353087616659 
908	 0.235890877077862 
909	 0.2358001756957 
910	 0.236325599183309 
911	 0.235495081807143 
912	 0.23059946701748 
913	 0.222580567058533 
914	 0.227357171323073 
915	 0.23413082464961 
916	 0.228798623180133 
917	 0.224520313310282 
918	 0.225666586342795 
919	 0.237016124894982 
920	 0.240032121414636 
921	 0.231106721433885 
922	 0.230077090724547 
923	 0.23159329653877 
924	 0.230202534446619 
925	 0.230801851549603 
926	 0.231725898502858 
927	 0.227597028423481 
928	 0.225327826399426 
929	 0.227350217960326 
930	 0.231138838370808 
931	 0.230716428160133 
932	 0.222588496879553 
933	 0.223930683248627 
934	 0.232458954306371 
935	 0.238451559636365 
936	 0.218331220956635 
937	 0.187400237955431 
938	 0.199972426541644 
939	 0.213020884425094 
940	 0.216529464490512 
941	 0.232715737001016 
942	 0.232994340390554 
943	 0.202161420361952 
944	 0.216089642387968 
945	 0.245904876990817 
946	 0.239523477621322 
947	 0.225218503423036 
948	 0.216569178365773 
949	 0.230494950828105 
950	 0.229666650241245 
951	 0.206658990751214 
952	 0.211600676125595 
953	 0.224453312446947 
954	 0.226283034102352 
955	 0.229415726381369 
956	 0.232782849458362 
957	 0.232766060473526 
958	 0.226993766109719 
959	 0.215189835546417 
960	 0.194170708258614 
961	 0.189020197365052 
962	 0.208289420825838 
963	 0.222389403092162 
964	 0.226422803345474 
965	 0.220991892664755 
966	 0.227484259931487 
967	 0.23609576956507 
968	 0.217752703123329 
969	 0.219417247919311 
970	 0.240271045999986 
971	 0.229480025599854 
972	 0.219143312269155 
973	 0.225122544548007 
974	 0.223721787566064 
975	 0.221255110818536 
976	 0.226195107948486 
977	 0.222354380336001 
978	 0.215560799301557 
979	 0.22522990223843 
980	 0.233374420880644 
981	 0.233558851264672 
982	 0.217854500940966 
983	 0.216225936467465 
984	 0.237908405606611 
985	 0.239860420114855 
986	 0.225527798134858 
987	 0.204593854578643 
988	 0.21975345936581 
989	 0.246840296674446 
990	 0.224707262450677 
991	 0.219715820914725 
992	 0.237254710450328 
993	 0.222004689911199 
994	 0.216841593837437 
995	 0.237593393429004 
996	 0.246766524562952 
997	 0.237748302388157 
998	 0.21151697233369 
999	 0.213601677980227 
1000	 0.232646493201327 
1001	 0.235478121000514 
1002	 0.238460324836326 
1003	 0.239579581919127 
1004	 0.219468122891138 
1005	 0.211013362246574 
1006	 0.225050409846179 
1007	 0.240497778958223 
1008	 0.245572319798012 
1009	 0.234968138209808 
1010	 0.22179711810774 
1011	 0.219133773092668 
1012	 0.23820245813734 
1013	 0.249854454446566 
1014	 0.247697712963576 
1015	 0.232656856001738 
1016	 0.222101488750239 
1017	 0.225663513580921 
1018	 0.254373545706572 
1019	 0.265927384929138 
1020	 0.242498425537901 
1021	 0.208632000176082 
1022	 0.197622218723538 
1023	 0.231744047550094 
1024	 0.237340738950348 
1025	 0.226978949371391 
1026	 0.243205969715347 
1027	 0.263684690675697 
1028	 0.274804269940837 
1029	 0.256639203779483 
1030	 0.240576230808557 
1031	 0.242948496316716 
1032	 0.252247377321425 
1033	 0.254895805889235 
1034	 0.240535629058718 
1035	 0.211333648409739 
1036	 0.186266834652076 
1037	 0.182594506776403 
1038	 0.230802706617543 
1039	 0.282676152332826 
1040	 0.271991122384274 
1041	 0.247933015498271 
1042	 0.222332582719656 
1043	 0.180099354868513 
1044	 0.178585449781089 
1045	 0.221297987775565 
1046	 0.208015567149905 
1047	 0.219181733720529 
1048	 0.280893174812687 
1049	 0.261314605113963 
1050	 0.225824459664384 
1051	 0.2447045892315 
1052	 0.24933837114466 
1053	 0.229302959501558 
1054	 0.189470789849177 
1055	 0.171038197332527 
1056	 0.172401797506004 
1057	 0.169653433888847 
1058	 0.170010210613155 
1059	 0.190657054134482 
1060	 0.282511491477527 
1061	 0.273752379069135 
1062	 0.14810159161717 
1063	 0.180588080672911 
1064	 0.208008180811887 
1065	 0.106072499746516 
1066	 6.73819705560957E-02 
1067	 9.97268148823559E-02 
1068	 0.17160133255062 
1069	 0.217743444008777 
1070	 0.212551697397898 
1071	 0.141981202618289 
1072	 0.107464137642384 
1073	 0.121983781042329 
1074	 0.13650454188966 
1075	 0.142298382819506 
