Wavelength	AVEI200120.asd
325	 4.71384156545292E-02 
326	 4.47438878893204E-02 
327	 3.60970245289405E-02 
328	 3.67139029668543E-02 
329	 3.86886568639215E-02 
330	 3.86639813913132E-02 
331	 0.035064711803782 
332	 3.28403578627084E-02 
333	 3.62691320067562E-02 
334	 3.36179937294547E-02 
335	 2.84830643621716E-02 
336	 0.034792054961212 
337	 3.42246719447938E-02 
338	 2.53914841289128E-02 
339	 0.029385213354321 
340	 3.51124829968984E-02 
341	 3.34223271078721E-02 
342	 3.21758804622837E-02 
343	 3.26087446321858E-02 
344	 3.49306034344961E-02 
345	 3.55370262135869E-02 
346	 3.39811346996872E-02 
347	 0.032628031447321 
348	 3.20157914401397E-02 
349	 3.23285542156844E-02 
350	 3.21910017462781E-02 
351	 3.21675914485791E-02 
352	 3.35665865556847E-02 
353	 3.31506962665097E-02 
354	 3.13804450020374E-02 
355	 3.30621280102987E-02 
356	 3.38978379808169E-02 
357	 3.19116012172181E-02 
358	 3.33425914993342E-02 
359	 3.53906574876526E-02 
360	 3.29260134700373E-02 
361	 3.06455802385514E-02 
362	 2.99565663505372E-02 
363	 0.031253350610675 
364	 3.27429485568002E-02 
365	 3.32830140202701E-02 
366	 3.28635467299312E-02 
367	 3.16590478152986E-02 
368	 2.98731491822035E-02 
369	 2.99950948826157E-02 
370	 3.14599493588444E-02 
371	 3.03051106933915E-02 
372	 2.95669435966408E-02 
373	 3.05641985803767E-02 
374	 3.05674185762014E-02 
375	 3.00259341849327E-02 
376	 2.99429636721979E-02 
377	 2.91142185293101E-02 
378	 2.78742173610782E-02 
379	 0.028120472292657 
380	 2.85347975397055E-02 
381	 2.85802159931289E-02 
382	 2.94225818315557E-02 
383	 3.06236495703251E-02 
384	 3.14924857772726E-02 
385	 2.99730112993597E-02 
386	 2.72238760232894E-02 
387	 2.82574897923046E-02 
388	 2.96894080898797E-02 
389	 2.97922922819682E-02 
390	 2.84421688786328E-02 
391	 2.74573804909844E-02 
392	 2.88237987865473E-02 
393	 0.028819380850029 
394	 2.75841085374293E-02 
395	 2.78173579697281E-02 
396	 2.82011422546877E-02 
397	 2.81948129486258E-02 
398	 2.80872807571916E-02 
399	 0.027907272887191 
400	 2.76710474484771E-02 
401	 0.02776081053869 
402	 2.79650086970526E-02 
403	 2.75306916041909E-02 
404	 0.027548702846941 
405	 0.028099583624521 
406	 2.66986765836808E-02 
407	 2.53087627765093E-02 
408	 2.65114209815134E-02 
409	 2.75799237167429E-02 
410	 2.78343187854818E-02 
411	 2.72143831194546E-02 
412	 2.67140928983332E-02 
413	 2.67979490329801E-02 
414	 2.70113833325947E-02 
415	 2.70440852822012E-02 
416	 2.65714410795792E-02 
417	 2.65288954841822E-02 
418	 2.69232342295331E-02 
419	 2.71118911821312E-02 
420	 2.69584912704354E-02 
421	 2.65224719733102E-02 
422	 2.68499022665406E-02 
423	 2.73580722574764E-02 
424	 2.70444345535226E-02 
425	 2.67730148907618E-02 
426	 2.67512995017168E-02 
427	 2.69345360881875E-02 
428	 2.69116855466179E-02 
429	 2.65045670639122E-02 
430	 2.66147948486948E-02 
431	 2.68687472938451E-02 
432	 2.64355880108537E-02 
433	 2.63514434361687E-02 
434	 2.66597969998476E-02 
435	 2.64394258948345E-02 
436	 2.62789474961376E-02 
437	 2.65158548123452E-02 
438	 2.64434983642443E-02 
439	 2.61591263193584E-02 
440	 2.59984827361409E-02 
441	 2.60173842391648E-02 
442	 2.62166813064554E-02 
443	 2.65016420290807E-02 
444	 2.66183119786517E-02 
445	 0.026404431322929 
446	 0.02639264189057 
447	 2.64793061081208E-02 
448	 2.61853113482143E-02 
449	 0.026145303577569 
450	 0.026455838822738 
451	 2.64486263247452E-02 
452	 2.64133669643722E-02 
453	 2.66449290200649E-02 
454	 0.026552075955069 
455	 2.62431623541545E-02 
456	 0.026284552076727 
457	 0.026614679462286 
458	 2.70568051880868E-02 
459	 0.02669725455445 
460	 2.62889993085657E-02 
461	 2.67805185182254E-02 
462	 2.68882965696081E-02 
463	 2.65473956297756E-02 
464	 2.64738076263265E-02 
465	 2.65696278074339E-02 
466	 2.67028781347283E-02 
467	 2.61621718452752E-02 
468	 2.56846943092386E-02 
469	 2.64458486694727E-02 
470	 2.68327478390636E-02 
471	 2.66032706303249E-02 
472	 2.65240550746431E-02 
473	 0.026570370245933 
474	 2.67031585839468E-02 
475	 2.66797447767354E-02 
476	 2.65360824617378E-02 
477	 2.63796974977852E-02 
478	 2.64758477641584E-02 
479	 2.67579053871912E-02 
480	 2.65639341316444E-02 
481	 2.64429750502357E-02 
482	 2.68154410546373E-02 
483	 2.70533564179637E-02 
484	 2.70837609170723E-02 
485	 2.69616900316391E-02 
486	 2.70905433289212E-02 
487	 2.74614171021416E-02 
488	 2.71200850625282E-02 
489	 2.67378138014488E-02 
490	 2.70182537401916E-02 
491	 2.69424833056978E-02 
492	 2.65886636425188E-02 
493	 2.67146051487633E-02 
494	 0.026811458615505 
495	 2.67169987875761E-02 
496	 2.68275730791721E-02 
497	 2.70685816670266E-02 
498	 2.73008475789314E-02 
499	 2.71984677080865E-02 
500	 2.69477049588509E-02 
501	 2.74762810098874E-02 
502	 2.79921805143429E-02 
503	 2.80172591701132E-02 
504	 2.78367055749156E-02 
505	 0.027868828500306 
506	 2.87602987210312E-02 
507	 0.029211370234026 
508	 2.90437627989574E-02 
509	 2.91577980041055E-02 
510	 2.95272269275602E-02 
511	 3.00643688954378E-02 
512	 3.02046908923422E-02 
513	 0.030096994934554 
514	 3.02563630773172E-02 
515	 3.08248080635112E-02 
516	 3.16932349434713E-02 
517	 3.18787345664337E-02 
518	 3.19182912941017E-02 
519	 3.24571144177286E-02 
520	 3.30027188202592E-02 
521	 0.033562954684829 
522	 3.45049606777017E-02 
523	 3.52041779110983E-02 
524	 3.54223334806191E-02 
525	 3.56320230591667E-02 
526	 3.59678390280288E-02 
527	 3.65361279706647E-02 
528	 3.69875412262378E-02 
529	 3.72954985821774E-02 
530	 3.77275191409761E-02 
531	 3.82460364787641E-02 
532	 3.87866330626465E-02 
533	 3.89968200726724E-02 
534	 3.90190460459028E-02 
535	 3.92298117782274E-02 
536	 3.94205080755145E-02 
537	 3.95870852266375E-02 
538	 3.99727892431987E-02 
539	 4.03895239784604E-02 
540	 4.06461110021078E-02 
541	 0.040867512770437 
542	 4.10548027702072E-02 
543	 4.11234482353946E-02 
544	 4.13222789975269E-02 
545	 4.16952049552395E-02 
546	 4.17912413137201E-02 
547	 4.17988576428187E-02 
548	 4.20140180486395E-02 
549	 4.22439010518582E-02 
550	 4.24386117481007E-02 
551	 4.25904959579245E-02 
552	 0.042742813961466 
553	 4.29205224416698E-02 
554	 4.31105392718604E-02 
555	 4.32168045179929E-02 
556	 4.30599226727967E-02 
557	 4.29500675013062E-02 
558	 4.29821991066191E-02 
559	 4.30597246359791E-02 
560	 4.31006299939058E-02 
561	 4.30340456432209E-02 
562	 4.28855776874523E-02 
563	 4.27631040461766E-02 
564	 4.29632923057025E-02 
565	 4.29686679640579E-02 
566	 4.26264232749536E-02 
567	 4.24739242078102E-02 
568	 4.23599263627224E-02 
569	 0.042030517673497 
570	 4.16740323515401E-02 
571	 4.13916551436691E-02 
572	 4.13425222840983E-02 
573	 4.13014615737509E-02 
574	 4.11232937924686E-02 
575	 0.040889865796313 
576	 0.040621217515694 
577	 4.03265928170676E-02 
578	 4.01305672051483E-02 
579	 4.00596548081995E-02 
580	 0.040023863267564 
581	 3.99636564111016E-02 
582	 3.98251364153885E-02 
583	 0.039553125359691 
584	 3.92687492120064E-02 
585	 3.93110793247584E-02 
586	 0.039302283595683 
587	 3.91204662393723E-02 
588	 3.90504396235684E-02 
589	 3.90243240547392E-02 
590	 3.89233368066167E-02 
591	 3.88481891712083E-02 
592	 0.038817385836123 
593	 3.88202048656674E-02 
594	 3.87653688493153E-02 
595	 3.86228701921553E-02 
596	 0.038651625736886 
597	 3.86743579645233E-02 
598	 3.82875253110037E-02 
599	 3.83617771979111E-02 
600	 3.88926613677336E-02 
601	 3.86099094686958E-02 
602	 3.82420392233737E-02 
603	 3.84363474485412E-02 
604	 3.84452314883843E-02 
605	 3.83000867666496E-02 
606	 3.84540802872815E-02 
607	 3.84428230649169E-02 
608	 3.81165933351853E-02 
609	 3.77675882782169E-02 
610	 3.75266093476577E-02 
611	 3.75153565413822E-02 
612	 3.73523439426014E-02 
613	 3.70559580452789E-02 
614	 3.70584404026588E-02 
615	 3.69458311903349E-02 
616	 3.65401685299685E-02 
617	 3.65843919184045E-02 
618	 3.68052392643295E-02 
619	 3.65532247952668E-02 
620	 3.63637878278203E-02 
621	 3.63203526533342E-02 
622	 3.60421823884413E-02 
623	 3.58690958066987E-02 
624	 0.036104991002694 
625	 3.64948374219351E-02 
626	 3.67884780026293E-02 
627	 3.65421145591775E-02 
628	 3.60242207212478E-02 
629	 3.54788072593998E-02 
630	 3.55192878579104E-02 
631	 3.58593500585129E-02 
632	 3.60673114945975E-02 
633	 3.62738226196277E-02 
634	 3.64238232005297E-02 
635	 3.63655417919706E-02 
636	 3.60027172093591E-02 
637	 3.53678603741302E-02 
638	 3.51323309243607E-02 
639	 3.51962048537512E-02 
640	 3.52484594856226E-02 
641	 3.48255398691927E-02 
642	 3.40188473066721E-02 
643	 3.39857376235728E-02 
644	 3.39208826056376E-02 
645	 3.31302869213249E-02 
646	 3.26294239460752E-02 
647	 3.25018064053409E-02 
648	 3.24990406622679E-02 
649	 3.22106519551472E-02 
650	 3.16256550780496E-02 
651	 3.18066666167596E-02 
652	 3.22051666246238E-02 
653	 3.20741051041359E-02 
654	 3.16471656515594E-02 
655	 3.12263192608023E-02 
656	 3.17766740979902E-02 
657	 3.21270364038899E-02 
658	 3.16362544294098E-02 
659	 3.12142269735528E-02 
660	 3.08857527081259E-02 
661	 3.04919316212314E-02 
662	 3.03471799225582E-02 
663	 3.03890618967388E-02 
664	 2.99641946885057E-02 
665	 2.95222240196566E-02 
666	 2.94536408240371E-02 
667	 2.95903326761347E-02 
668	 2.97325514346814E-02 
669	 2.94519230198285E-02 
670	 2.93508637593063E-02 
671	 2.94850299041601E-02 
672	 2.87610760861464E-02 
673	 2.81914386966899E-02 
674	 2.89777274598053E-02 
675	 2.93131694718246E-02 
676	 2.91087560673497E-02 
677	 2.94846955257673E-02 
678	 2.96582013293985E-02 
679	 2.93353825160849E-02 
680	 2.95573896741718E-02 
681	 3.00367516761039E-02 
682	 3.01060572562298E-02 
683	 3.05062612329031E-02 
684	 3.13136512651789E-02 
685	 3.20150393419834E-02 
686	 3.27290364041873E-02 
687	 3.35712489162566E-02 
688	 3.47152573937903E-02 
689	 3.59683216970607E-02 
690	 3.70244246037476E-02 
691	 3.83272147488697E-02 
692	 0.040019199480834 
693	 4.17993750379663E-02 
694	 4.38283854886367E-02 
695	 4.61768751214904E-02 
696	 4.85091970286902E-02 
697	 5.07075415683541E-02 
698	 5.27090512498393E-02 
699	 5.50948778474539E-02 
700	 5.80594439478597E-02 
701	 6.09688582111919E-02 
702	 6.37411897362117E-02 
703	 0.066393930342736 
704	 6.89423091313116E-02 
705	 7.15264317431756E-02 
706	 7.44508224862655E-02 
707	 7.73700808715279E-02 
708	 8.00367722210232E-02 
709	 8.24380640453244E-02 
710	 8.48177573038583E-02 
711	 8.76476212687507E-02 
712	 9.04024859615931E-02 
713	 9.28376444732157E-02 
714	 0.094776971165589 
715	 9.65704229499292E-02 
716	 9.86354224365293E-02 
717	 0.100335758556858 
718	 0.102027025395371 
719	 0.104941786478347 
720	 0.107544150726646 
721	 0.109142662642471 
722	 0.110224029021318 
723	 0.111425138589023 
724	 0.113306230713844 
725	 0.115047090592394 
726	 0.116399715018588 
727	 0.117732207508959 
728	 0.119037110572803 
729	 0.120272445300721 
730	 0.121089753810878 
731	 0.121830970438319 
732	 0.122980439135831 
733	 0.124220250416766 
734	 0.125435165436052 
735	 0.126442937795486 
736	 0.127411538673823 
737	 0.128387377263141 
738	 0.129088974518857 
739	 0.129664928440503 
740	 0.130469056323644 
741	 0.130987858866978 
742	 0.131235040401551 
743	 0.1319431345959 
744	 0.132705855936869 
745	 0.133183323437666 
746	 0.133720899931204 
747	 0.134306388643276 
748	 0.134763197402504 
749	 0.135357971595442 
750	 0.136027163401635 
751	 0.13588500232088 
752	 0.135793454043048 
753	 0.136677565471299 
754	 0.13722796798948 
755	 0.137396944893867 
756	 0.13785349658624 
757	 0.138353977542762 
758	 0.138804521610483 
759	 0.139011969104465 
760	 0.138922735679519 
761	 0.138509443291122 
762	 0.138444653064471 
763	 0.138903323708989 
764	 0.13965655521139 
765	 0.140631674642754 
766	 0.141619403046856 
767	 0.142258017613645 
768	 0.142548255002488 
769	 0.142428964226425 
770	 0.142765328835456 
771	 0.143556361190796 
772	 0.143986695432867 
773	 0.144147342384247 
774	 0.144161196619682 
775	 0.14455417871522 
776	 0.145142730445126 
777	 0.145453793855681 
778	 0.145837147949047 
779	 0.146219475322078 
780	 0.145860429542664 
781	 0.145648196997719 
782	 0.146257154696526 
783	 0.146855634072635 
784	 0.147221397124304 
785	 0.147190074689562 
786	 0.147220087044877 
787	 0.147442594884975 
788	 0.147574421355922 
789	 0.147765456398829 
790	 0.148151189393922 
791	 0.148519789306555 
792	 0.148803284335884 
793	 0.148958336267603 
794	 0.149046517222881 
795	 0.149116311671491 
796	 0.149221288111065 
797	 0.149458966269706 
798	 0.149902636773031 
799	 0.150277263894416 
800	 0.15046149434836 
801	 0.150238436785705 
802	 0.150263819322066 
803	 0.150767010741589 
804	 0.151366311014337 
805	 0.15173967127491 
806	 0.151617334393704 
807	 0.151726621813898 
808	 0.152082808460813 
809	 0.152181739445558 
810	 0.15269393634715 
811	 0.153651855290594 
812	 0.153337477418602 
813	 0.152506944746322 
814	 0.15239515104618 
815	 0.152897857879665 
816	 0.153743241057888 
817	 0.154052887123091 
818	 0.154274981181573 
819	 0.15467320025349 
820	 0.155716338953884 
821	 0.156337814770104 
822	 0.155308117535088 
823	 0.155323776729001 
824	 0.156651672346443 
825	 0.158319056480933 
826	 0.159148691976452 
827	 0.158687041500985 
828	 0.157656227770393 
829	 0.157171140978734 
830	 0.15840849432309 
831	 0.159097994273918 
832	 0.159128102293873 
833	 0.159703808228385 
834	 0.160692052213655 
835	 0.161773660566232 
836	 0.161426664079193 
837	 0.160817159387142 
838	 0.161371691449673 
839	 0.162496391394788 
840	 0.163477255574146 
841	 0.16260433483903 
842	 0.162106486562205 
843	 0.16276463731105 
844	 0.162953689934307 
845	 0.16291342991188 
846	 0.163052623769386 
847	 0.163195668372547 
848	 0.163264112269428 
849	 0.16310043951651 
850	 0.163033585814104 
851	 0.163171824814995 
852	 0.163232893533023 
853	 0.163203844997662 
854	 0.163147956708073 
855	 0.164076135871433 
856	 0.165313476311178 
857	 0.164624063375515 
858	 0.164635455849012 
859	 0.16578543865687 
860	 0.165321112302157 
861	 0.164995880236305 
862	 0.166408888339673 
863	 0.166081958269635 
864	 0.164756042846904 
865	 0.165702723131564 
866	 0.166742165448923 
867	 0.167093239590752 
868	 0.166636934704008 
869	 0.166687202517889 
870	 0.168173952309929 
871	 0.169279182505178 
872	 0.169756975144294 
873	 0.169723122942484 
874	 0.169710314072948 
875	 0.170084426384102 
876	 0.171483609226495 
877	 0.172475263133582 
878	 0.172159555623143 
879	 0.172153827565296 
880	 0.172447704948862 
881	 0.172623257752926 
882	 0.173318803148653 
883	 0.174462687856098 
884	 0.175419020257921 
885	 0.175332239013029 
886	 0.174167844481294 
887	 0.175155475282737 
888	 0.177210953903975 
889	 0.178396966026271 
890	 0.178570934320961 
891	 0.177902869202941 
892	 0.177039209681233 
893	 0.177243120567057 
894	 0.178662643876135 
895	 0.177572632938395 
896	 0.175809811994093 
897	 0.175986130216909 
898	 0.176230687349615 
899	 0.176541474346106 
900	 0.177857843279044 
901	 0.178906280441736 
902	 0.179530248225141 
903	 0.181426895923922 
904	 0.182020674741367 
905	 0.179794227378549 
906	 0.180406826566834 
907	 0.182409425956757 
908	 0.181710649381109 
909	 0.181031388851708 
910	 0.18060315526256 
911	 0.178118850449276 
912	 0.176869778824562 
913	 0.178489777793028 
914	 0.179868003178154 
915	 0.180462792244414 
916	 0.180089522170515 
917	 0.179015025820137 
918	 0.178116535911309 
919	 0.179411039298062 
920	 0.180579424641014 
921	 0.1808135061823 
922	 0.180619813400465 
923	 0.18060177275363 
924	 0.181220201956704 
925	 0.181634219188171 
926	 0.180854342724661 
927	 0.176973651560926 
928	 0.174473617531386 
929	 0.174825941317331 
930	 0.175395442325168 
931	 0.174461595876686 
932	 0.171042636680264 
933	 0.171555078971565 
934	 0.173349079551509 
935	 0.170993531257714 
936	 0.173823189874103 
937	 0.179230565209971 
938	 0.175118563985102 
939	 0.171763066933588 
940	 0.171413698727651 
941	 0.168357303348043 
942	 0.164884395712077 
943	 0.162585826143002 
944	 0.159060143605242 
945	 0.158506887527281 
946	 0.167624038754827 
947	 0.169813090978702 
948	 0.16503892664094 
949	 0.169238793394421 
950	 0.166957945208823 
951	 0.155106760025867 
952	 0.15410931272657 
953	 0.156030871064647 
954	 0.153196397448065 
955	 0.158485097021029 
956	 0.163729764774555 
957	 0.151232117836923 
958	 0.146811735018028 
959	 0.151580588039046 
960	 0.144622828921541 
961	 0.142809602058494 
962	 0.151283335189642 
963	 0.151716357544415 
964	 0.149907257339258 
965	 0.152371388053125 
966	 0.154578586346766 
967	 0.154937779682343 
968	 0.151560767784536 
969	 0.152032560492862 
970	 0.156209589720158 
971	 0.155269870293603 
972	 0.153832720471059 
973	 0.15441375982931 
974	 0.155714760375554 
975	 0.156283082735143 
976	 0.154898619584276 
977	 0.155489422222917 
978	 0.157430814082993 
979	 0.157857911014309 
980	 0.156776523921283 
981	 0.155211062184508 
982	 0.157116479193558 
983	 0.158252072669898 
984	 0.156533467099248 
985	 0.153809265254522 
986	 0.153634332073862 
987	 0.159024226749761 
988	 0.162155748287726 
989	 0.162567559170203 
990	 0.162397446395213 
991	 0.160424259584098 
992	 0.15866568668504 
993	 0.165066698636533 
994	 0.169648922109682 
995	 0.16771336745967 
996	 0.164124287325485 
997	 0.162924971060007 
998	 0.167021946919443 
999	 0.168311460918169 
1000	 0.16728481308208 
1001	 0.167252838678845 
1002	 0.169200434293415 
1003	 0.17182974696015 
1004	 0.170348719198681 
1005	 0.166489558421864 
1006	 0.163606303281938 
1007	 0.174109637747171 
1008	 0.18095117206232 
1009	 0.172321079520226 
1010	 0.169274381238424 
1011	 0.169496461698572 
1012	 0.166224878479954 
1013	 0.174495923001254 
1014	 0.187285950367585 
1015	 0.180500678981765 
1016	 0.171915778098806 
1017	 0.168251451278045 
1018	 0.172340983892754 
1019	 0.174628872368119 
1020	 0.171688445092439 
1021	 0.180015829135025 
1022	 0.185282647555435 
1023	 0.174671451642067 
1024	 0.181670818630927 
1025	 0.194073855178773 
1026	 0.183337882527073 
1027	 0.182225746210832 
1028	 0.190294292542544 
1029	 0.181106223286467 
1030	 0.172885651915238 
1031	 0.172736856548673 
1032	 0.180277493356926 
1033	 0.190178822218802 
1034	 0.197289893465741 
1035	 0.196506778904102 
1036	 0.190524027070477 
1037	 0.183500050914401 
1038	 0.18171739775839 
1039	 0.185096247697303 
1040	 0.190930340703795 
1041	 0.187033180829127 
1042	 0.179049621202581 
1043	 0.196786918957588 
1044	 0.200152447816652 
1045	 0.182663829690447 
1046	 0.184411695988348 
1047	 0.184055583662783 
1048	 0.172795204426576 
1049	 0.179510376303345 
1050	 0.189382280914563 
1051	 0.186200953689526 
1052	 0.177679543869553 
1053	 0.176940653155893 
1054	 0.200213073715952 
1055	 0.196944099760771 
1056	 0.173900556687981 
1057	 0.176251259521838 
1058	 0.182083191484769 
1059	 0.184223459337221 
1060	 0.175771829747021 
1061	 0.184335081282565 
1062	 0.210868757887303 
1063	 0.187777056241621 
1064	 0.176277946011621 
1065	 0.212010031559707 
1066	 0.199617907858592 
1067	 0.171364571089245 
1068	 0.172360322077178 
1069	 0.161653194113531 
1070	 0.148030102775225 
1071	 0.154439390737384 
1072	 0.160536428179861 
1073	 0.169739075426224 
1074	 0.203645790988239 
1075	 0.215017431593852 
