Wavelength	AVEI200096.asd
325	 2.59635971977878E-02 
326	 3.15298072010255E-02 
327	 3.83172489036129E-02 
328	 3.27279823437376E-02 
329	 2.60668062565707E-02 
330	 0.023212233205784 
331	 2.39322966419413E-02 
332	 0.024464349959374 
333	 2.16406538257835E-02 
334	 2.14970578891503E-02 
335	 2.41400796484559E-02 
336	 2.77882139173321E-02 
337	 3.03074051928242E-02 
338	 3.05934052602958E-02 
339	 2.76278488297828E-02 
340	 2.52254649147083E-02 
341	 2.62601229536523E-02 
342	 2.68721486398548E-02 
343	 2.66064909991756E-02 
344	 2.57491686976553E-02 
345	 2.55667670836659E-02 
346	 2.59473501878307E-02 
347	 2.49754895426985E-02 
348	 0.023835008472948 
349	 2.35174954774047E-02 
350	 2.53015795083862E-02 
351	 2.68768504549904E-02 
352	 0.024482663134349 
353	 2.30749790246113E-02 
354	 2.33785525494456E-02 
355	 2.31058094291771E-02 
356	 0.022767954843766 
357	 0.022659902167207 
358	 2.25257365699941E-02 
359	 2.24138539667753E-02 
360	 2.24499331133879E-02 
361	 2.20153675487568E-02 
362	 2.15478581476799E-02 
363	 2.31744774807969E-02 
364	 2.38612893763412E-02 
365	 2.23368248768986E-02 
366	 2.18567126876692E-02 
367	 2.18164363661338E-02 
368	 2.09474312954094E-02 
369	 2.12726297353006E-02 
370	 2.26661270826566E-02 
371	 2.31926101490574E-02 
372	 2.38732136423323E-02 
373	 2.47842281713478E-02 
374	 2.26012698592107E-02 
375	 2.01872825251385E-02 
376	 2.17805981603594E-02 
377	 2.33468342970173E-02 
378	 2.37748181309223E-02 
379	 2.29483120805511E-02 
380	 2.19885279268213E-02 
381	 2.16328850699096E-02 
382	 2.21030307089402E-02 
383	 0.022656601321237 
384	 2.23250532870104E-02 
385	 2.18948600071074E-02 
386	 2.17884797973324E-02 
387	 2.28229699436845E-02 
388	 2.29127464977421E-02 
389	 2.14794677468037E-02 
390	 2.12963280302834E-02 
391	 2.16332905230624E-02 
392	 2.13605934693192E-02 
393	 2.08948256621284E-02 
394	 2.05835090538619E-02 
395	 2.12298339002304E-02 
396	 2.15127042569954E-02 
397	 2.10793140126496E-02 
398	 2.14175885190378E-02 
399	 2.18838702669806E-02 
400	 2.17240103319517E-02 
401	 2.11385151410656E-02 
402	 2.05863077790145E-02 
403	 2.10606548309638E-02 
404	 2.15424851554977E-02 
405	 2.16544771029855E-02 
406	 2.18989105192581E-02 
407	 2.20244594527864E-02 
408	 2.16898427432315E-02 
409	 2.13000500308841E-02 
410	 2.10664925021328E-02 
411	 2.12909289003773E-02 
412	 2.13861592584484E-02 
413	 2.11901634701037E-02 
414	 2.17056814037777E-02 
415	 2.21136837585616E-02 
416	 2.12764381586799E-02 
417	 2.07525721621683E-02 
418	 2.08767358527367E-02 
419	 2.15397210299603E-02 
420	 2.17918937902081E-02 
421	 2.12129394137083E-02 
422	 2.08205622445947E-02 
423	 0.020862404237815 
424	 2.15092680689606E-02 
425	 2.17900665801784E-02 
426	 2.15150085301548E-02 
427	 2.09867477947353E-02 
428	 2.07532293053563E-02 
429	 2.11056952028498E-02 
430	 2.12168079144468E-02 
431	 2.11251059953215E-02 
432	 0.021078785512878 
433	 2.13461888200016E-02 
434	 0.02178180175535 
435	 2.16153835176588E-02 
436	 2.12956160966931E-02 
437	 2.11358036234833E-02 
438	 2.09948951518996E-02 
439	 2.09888576372826E-02 
440	 0.021366884077188 
441	 2.16606676810896E-02 
442	 2.17285158522709E-02 
443	 2.16787375279202E-02 
444	 2.16698594554432E-02 
445	 2.18040420809051E-02 
446	 2.17356260898916E-02 
447	 2.15536484137592E-02 
448	 2.15704658409649E-02 
449	 2.16490232091681E-02 
450	 2.17400295787288E-02 
451	 2.18090484867951E-02 
452	 2.19018695642302E-02 
453	 2.20561612749113E-02 
454	 2.20799165835685E-02 
455	 2.19707090650003E-02 
456	 2.18191643910159E-02 
457	 2.16887505485704E-02 
458	 2.16825712391312E-02 
459	 2.21732918668801E-02 
460	 2.25866808616008E-02 
461	 2.22382042409254E-02 
462	 2.20216687963922E-02 
463	 2.20536626207486E-02 
464	 2.19642302488659E-02 
465	 2.20846863525422E-02 
466	 2.24772636861625E-02 
467	 2.23516510297715E-02 
468	 2.20378691790235E-02 
469	 2.21465083576632E-02 
470	 0.022292120178225 
471	 2.23261543894068E-02 
472	 2.20356035648273E-02 
473	 2.20012938366553E-02 
474	 2.25046275582923E-02 
475	 2.25859635886043E-02 
476	 2.24039743903865E-02 
477	 2.24740823297431E-02 
478	 2.24944977651922E-02 
479	 2.24750443982214E-02 
480	 2.28238001342666E-02 
481	 2.30017425423802E-02 
482	 2.26245836908527E-02 
483	 2.25974528436574E-02 
484	 2.28153693489377E-02 
485	 0.022621075879563 
486	 2.25588236474452E-02 
487	 2.28101015917179E-02 
488	 2.32510192115098E-02 
489	 2.35726139472159E-02 
490	 2.34817925110357E-02 
491	 2.30816336972616E-02 
492	 2.26761036661956E-02 
493	 2.29455362918476E-02 
494	 2.34020622797552E-02 
495	 2.37216050038188E-02 
496	 2.33534215258926E-02 
497	 2.29555249279543E-02 
498	 2.34310514529658E-02 
499	 2.36671035660935E-02 
500	 0.02358255531691 
501	 0.023947527924859 
502	 2.40709146205771E-02 
503	 2.36336029653142E-02 
504	 2.36044837920972E-02 
505	 2.38420664378649E-02 
506	 2.38970527263347E-02 
507	 2.38636634582571E-02 
508	 0.023843985243387 
509	 2.41773098474649E-02 
510	 2.45095848619503E-02 
511	 2.45752317947431E-02 
512	 2.48427823741375E-02 
513	 2.51007894113261E-02 
514	 2.46047588962468E-02 
515	 2.45033746773443E-02 
516	 2.51012370178626E-02 
517	 2.55456846705694E-02 
518	 2.57188533638555E-02 
519	 2.55864272463462E-02 
520	 2.55483520195843E-02 
521	 2.56551050636772E-02 
522	 2.57396044375082E-02 
523	 2.59740197017671E-02 
524	 2.63552597005569E-02 
525	 2.63287710106588E-02 
526	 0.026204569921095 
527	 2.64982487230219E-02 
528	 2.67327827769435E-02 
529	 2.68500080824977E-02 
530	 2.71417899951383E-02 
531	 2.72531256655638E-02 
532	 2.70305736151674E-02 
533	 2.73865020534022E-02 
534	 2.79506171454342E-02 
535	 0.027747720029828 
536	 2.74305041044693E-02 
537	 2.72980094295722E-02 
538	 2.77004585218684E-02 
539	 2.81346981249725E-02 
540	 2.81223072191396E-02 
541	 2.83288074123466E-02 
542	 2.86363775017812E-02 
543	 2.83564857566149E-02 
544	 2.82127166528485E-02 
545	 2.84585534013442E-02 
546	 2.86051788516419E-02 
547	 2.86479641876235E-02 
548	 2.86404939566011E-02 
549	 2.87910453451913E-02 
550	 2.90757100820912E-02 
551	 2.92354768608064E-02 
552	 2.92859928875298E-02 
553	 2.92618967394751E-02 
554	 2.93700177935743E-02 
555	 2.95883101338322E-02 
556	 2.98384675437267E-02 
557	 2.98733511449769E-02 
558	 2.96695548254474E-02 
559	 2.95582884294531E-02 
560	 2.94835074637955E-02 
561	 0.029406676738142 
562	 2.97441037708114E-02 
563	 3.02823011749367E-02 
564	 3.03066618613041E-02 
565	 3.02015052187497E-02 
566	 3.01567581189026E-02 
567	 3.03664805030667E-02 
568	 3.05834686262782E-02 
569	 3.04706820679264E-02 
570	 3.01369272954794E-02 
571	 2.97764279913656E-02 
572	 0.029897808941608 
573	 3.01235780706921E-02 
574	 3.02220765818497E-02 
575	 0.030352354172824 
576	 3.04838609992381E-02 
577	 3.05320443387774E-02 
578	 0.030601381571425 
579	 3.06645218631864E-02 
580	 0.030413524244563 
581	 3.03134835852201E-02 
582	 3.07466419284408E-02 
583	 3.11057504669878E-02 
584	 3.12535858704844E-02 
585	 3.11446783995085E-02 
586	 3.10746398281137E-02 
587	 3.11384550252311E-02 
588	 3.10282895338932E-02 
589	 3.08560467494311E-02 
590	 3.08082266575771E-02 
591	 3.09727662236402E-02 
592	 3.13187220047841E-02 
593	 3.17343092181437E-02 
594	 3.19253029079488E-02 
595	 3.17454342748132E-02 
596	 3.15422021968388E-02 
597	 0.031498964497394 
598	 3.18524975133055E-02 
599	 3.19892337707678E-02 
600	 3.18432538530961E-02 
601	 3.20879210223137E-02 
602	 3.22402889736629E-02 
603	 3.19197268091964E-02 
604	 3.21803410616715E-02 
605	 3.27821841168559E-02 
606	 3.26424366694102E-02 
607	 3.24371683216069E-02 
608	 0.032474280825423 
609	 3.29815570106505E-02 
610	 3.33401067121261E-02 
611	 3.27693843003774E-02 
612	 3.25947214523203E-02 
613	 3.29799472488195E-02 
614	 3.33405998402731E-02 
615	 3.33892596928031E-02 
616	 0.033012561731734 
617	 3.29723070903801E-02 
618	 3.31269534195781E-02 
619	 3.29996201755715E-02 
620	 3.33297846631456E-02 
621	 3.40401486877365E-02 
622	 0.033839834451695 
623	 3.35131486892167E-02 
624	 3.37772103558386E-02 
625	 3.39488827960618E-02 
626	 3.39611655905391E-02 
627	 3.39639169420159E-02 
628	 3.39915680771588E-02 
629	 0.034056496507088 
630	 3.40776204781708E-02 
631	 3.40995885017718E-02 
632	 0.034185697495281 
633	 3.45337411559322E-02 
634	 3.49945040708392E-02 
635	 3.49257657883536E-02 
636	 3.49551514010143E-02 
637	 3.53580961963218E-02 
638	 3.51043757423358E-02 
639	 3.46930002543001E-02 
640	 3.52681043887799E-02 
641	 3.54631289218751E-02 
642	 3.50629782312786E-02 
643	 0.035105401694281 
644	 3.52292113018092E-02 
645	 3.51159343749356E-02 
646	 3.53031394187281E-02 
647	 3.56580671981951E-02 
648	 3.55489766320557E-02 
649	 3.55685956521541E-02 
650	 3.58717794112117E-02 
651	 3.59589738299853E-02 
652	 3.58253304522808E-02 
653	 3.55209484187517E-02 
654	 3.54278862866255E-02 
655	 3.56088496172734E-02 
656	 3.59129181930552E-02 
657	 3.60426702181673E-02 
658	 3.58618352281134E-02 
659	 0.03577662898082 
660	 3.59169815980518E-02 
661	 3.64452207232834E-02 
662	 3.65021204464329E-02 
663	 3.60713579455104E-02 
664	 3.63277210769116E-02 
665	 3.63732374822409E-02 
666	 3.55342765276072E-02 
667	 3.53846709279702E-02 
668	 3.58039294884741E-02 
669	 3.58230265442561E-02 
670	 3.57179999862498E-02 
671	 3.56369428712627E-02 
672	 3.60231231793328E-02 
673	 3.63444435298084E-02 
674	 3.59815372491627E-02 
675	 3.60598035504049E-02 
676	 3.65486060362877E-02 
677	 3.64618323698465E-02 
678	 3.67026941956762E-02 
679	 3.76169840039329E-02 
680	 3.80641223858509E-02 
681	 3.80101047515873E-02 
682	 3.76043329660505E-02 
683	 3.77696312159559E-02 
684	 3.85240875746897E-02 
685	 3.86861972743645E-02 
686	 3.88545043906491E-02 
687	 3.95630746882418E-02 
688	 4.03363875619524E-02 
689	 4.10633985549055E-02 
690	 4.19344271999686E-02 
691	 4.23680861811798E-02 
692	 4.24565936823903E-02 
693	 4.35272533130358E-02 
694	 4.46519794196082E-02 
695	 4.47942405613774E-02 
696	 0.045438846463032 
697	 4.66362763484432E-02 
698	 0.047824281761945 
699	 4.87476488141454E-02 
700	 4.93239525494441E-02 
701	 5.02317911148245E-02 
702	 5.13895406963024E-02 
703	 5.25783174990123E-02 
704	 5.33154043199532E-02 
705	 5.37740651950305E-02 
706	 5.49752293926963E-02 
707	 5.60949102795048E-02 
708	 5.66365041928219E-02 
709	 5.72403192921059E-02 
710	 5.79547270229583E-02 
711	 0.058692289907159 
712	 5.94891873921333E-02 
713	 6.03271321113528E-02 
714	 6.11686396884386E-02 
715	 6.17942912654561E-02 
716	 6.20410018440305E-02 
717	 0.062284803410479 
718	 6.28500161233825E-02 
719	 6.43051019530202E-02 
720	 6.54224183489384E-02 
721	 6.58060626104343E-02 
722	 6.63706063829307E-02 
723	 0.067021611246149 
724	 6.75562200216308E-02 
725	 6.79912510350506E-02 
726	 0.068303252433981 
727	 6.84995769769084E-02 
728	 6.89151823669606E-02 
729	 6.96743463331733E-02 
730	 7.02954571461498E-02 
731	 7.08270447523238E-02 
732	 7.14130549273619E-02 
733	 7.20148964258769E-02 
734	 7.25944230107187E-02 
735	 7.30030902175998E-02 
736	 7.33903791468308E-02 
737	 7.38605981094941E-02 
738	 7.45436233979823E-02 
739	 7.52434140946045E-02 
740	 7.55601628936869E-02 
741	 0.075976852048672 
742	 7.65774743786468E-02 
743	 7.70375581272088E-02 
744	 7.75100687657301E-02 
745	 7.81089458391847E-02 
746	 7.84530212479152E-02 
747	 7.86070124566683E-02 
748	 0.078851373594499 
749	 7.92807061878035E-02 
750	 7.98945458520872E-02 
751	 8.04303648355393E-02 
752	 8.08056848804067E-02 
753	 8.09731266826399E-02 
754	 8.12182898925587E-02 
755	 0.08158128470339 
756	 8.20222251311343E-02 
757	 8.22239418924706E-02 
758	 8.21049531667541E-02 
759	 0.082281271459109 
760	 8.30737455892988E-02 
761	 0.084310420195159 
762	 8.45524965958115E-02 
763	 8.41256696531931E-02 
764	 8.46947248309454E-02 
765	 8.52413142849797E-02 
766	 8.54758497930853E-02 
767	 8.59615579114948E-02 
768	 8.65390724264271E-02 
769	 8.69966337693894E-02 
770	 8.74117575274804E-02 
771	 0.087792130019075 
772	 0.088119126656349 
773	 8.84879844818443E-02 
774	 8.89619565527828E-02 
775	 8.95349021967046E-02 
776	 9.00302003445786E-02 
777	 9.01360745467273E-02 
778	 9.03972250768276E-02 
779	 0.090913286764902 
780	 9.12860904650008E-02 
781	 9.17676313712221E-02 
782	 9.25307218912651E-02 
783	 9.31760632832716E-02 
784	 9.35574392232885E-02 
785	 9.35010847900412E-02 
786	 9.35522381287797E-02 
787	 9.39239981403665E-02 
788	 9.45897392358792E-02 
789	 9.50323086913424E-02 
790	 9.48445514552815E-02 
791	 9.53387776648899E-02 
792	 9.62599056720952E-02 
793	 9.63401796886095E-02 
794	 9.67117028260476E-02 
795	 9.75482463104081E-02 
796	 9.76078560798914E-02 
797	 0.097605320632938 
798	 9.82669066181461E-02 
799	 9.82432110316094E-02 
800	 9.78497185941362E-02 
801	 9.86483150315599E-02 
802	 9.93962229170939E-02 
803	 9.96991394348108E-02 
804	 0.100293133894669 
805	 0.10085296362936 
806	 0.101009465032291 
807	 0.10135424814777 
808	 0.101837857112194 
809	 0.101940564003383 
810	 0.102033317842987 
811	 0.10227351634998 
812	 0.102528066777141 
813	 0.102881721304608 
814	 0.103427052969611 
815	 0.103211762174238 
816	 0.102722564702992 
817	 0.104363219533064 
818	 0.105507188169856 
819	 0.105260616749896 
820	 0.105617108958097 
821	 0.106320828029639 
822	 0.106899200741034 
823	 0.107452836892949 
824	 0.10805808748143 
825	 0.109097916769286 
826	 0.109463750476325 
827	 0.108916564492412 
828	 0.108935554859688 
829	 0.109606020045453 
830	 0.110792511665285 
831	 0.111579815540786 
832	 0.111954261472303 
833	 0.112598667743349 
834	 0.113148445261562 
835	 0.113458769299271 
836	 0.113568647797569 
837	 0.113729908693249 
838	 0.114212739340154 
839	 0.114875897731148 
840	 0.115679250288036 
841	 0.116818910410065 
842	 0.116850979869653 
843	 0.115571089806554 
844	 0.115601871642162 
845	 0.116632210643744 
846	 0.117980601123289 
847	 0.118043394671826 
848	 0.11732010512642 
849	 0.118355525690154 
850	 0.119393686434192 
851	 0.119636890198795 
852	 0.118816799310748 
853	 0.118365078656663 
854	 0.119709551848826 
855	 0.120248422916344 
856	 0.120214914412942 
857	 0.12167543217909 
858	 0.122426404476797 
859	 0.122020925205758 
860	 0.122134088161576 
861	 0.122764315695503 
862	 0.123724153469271 
863	 0.123528474664764 
864	 0.122848280081928 
865	 0.123972401323647 
866	 0.124888695026658 
867	 0.125076876224611 
868	 0.125519827430237 
869	 0.126115880372085 
870	 0.126705890121169 
871	 0.126715900693323 
872	 0.126778258581805 
873	 0.128285237269788 
874	 0.129503038952409 
875	 0.129868817281927 
876	 0.12941546199558 
877	 0.129482582651899 
878	 0.130853490037782 
879	 0.131448519831253 
880	 0.131886512741745 
881	 0.13366301993806 
882	 0.134320516553263 
883	 0.133793903565627 
884	 0.13433383087723 
885	 0.134969110151234 
886	 0.135153693337534 
887	 0.135035998962618 
888	 0.13507857678154 
889	 0.135852734214418 
890	 0.136690750102028 
891	 0.137128631416242 
892	 0.136165309736938 
893	 0.135861532397573 
894	 0.136858722329184 
895	 0.136165430010108 
896	 0.13463759162181 
897	 0.133761876348161 
898	 0.134819343563385 
899	 0.137474878258442 
900	 0.140266483043987 
901	 0.141502582653874 
902	 0.140971159332111 
903	 0.141004959409865 
904	 0.140719535565967 
905	 0.13963772518886 
906	 0.140515165399427 
907	 0.141902630232752 
908	 0.140457213467832 
909	 0.140827540658217 
910	 0.142919340447459 
911	 0.140735694107872 
912	 0.139442662210786 
913	 0.141523439151642 
914	 0.14143514054388 
915	 0.141319770386409 
916	 0.144263541451613 
917	 0.146132109446667 
918	 0.145940287465479 
919	 0.143164864219909 
920	 0.142621131881883 
921	 0.145262374349097 
922	 0.146094603872534 
923	 0.145616152449034 
924	 0.144491032873628 
925	 0.142740064743357 
926	 0.141399642871277 
927	 0.142615401052453 
928	 0.144455152347973 
929	 0.145598463060667 
930	 0.144089616042873 
931	 0.140319561945892 
932	 0.135437825260123 
933	 0.134672471059575 
934	 0.136931914077262 
935	 0.138486452671526 
936	 0.138262213381996 
937	 0.136590693402512 
938	 0.13575229265454 
939	 0.133325547610818 
940	 0.129497651922728 
941	 0.126941350466061 
942	 0.130089115275553 
943	 0.139879960722156 
944	 0.137066618714118 
945	 0.128381130864603 
946	 0.128666192400102 
947	 0.128250264626446 
948	 0.126834994074661 
949	 0.131553822485485 
950	 0.131236802041257 
951	 0.124043450426405 
952	 0.126255897788614 
953	 0.135140923874852 
954	 0.145887703833465 
955	 0.144200585626422 
956	 0.135891249444901 
957	 0.135412211943111 
958	 0.135652149236446 
959	 0.134168678478006 
960	 0.128055728021261 
961	 0.125346833722247 
962	 0.128630754404473 
963	 0.130045796762983 
964	 0.129953703844005 
965	 0.129114351044533 
966	 0.123576575709636 
967	 0.119279411492432 
968	 0.128379479368964 
969	 0.132266458424416 
970	 0.129008124288732 
971	 0.132545719416226 
972	 0.132703733938981 
973	 0.126411512032161 
974	 0.131092528272636 
975	 0.138166509159281 
976	 0.136835349277501 
977	 0.132794697853625 
978	 0.129592121904536 
979	 0.132255952137063 
980	 0.133593955422853 
981	 0.132954110753227 
982	 0.136616154498965 
983	 0.139652898124865 
984	 0.139593503183425 
985	 0.13899376598723 
986	 0.13738631598314 
987	 0.134572910019923 
988	 0.137790231543026 
989	 0.143693982579319 
990	 0.143256863249775 
991	 0.142783025796918 
992	 0.143538096159503 
993	 0.143708563290776 
994	 0.143180520712604 
995	 0.141934455417178 
996	 0.139502681184328 
997	 0.140426837520132 
998	 0.147936729075972 
999	 0.147593514879069 
1000	 0.142518124022439 
1001	 0.142608135545504 
1002	 0.144654199386384 
1003	 0.147339022411652 
1004	 0.148518097819918 
1005	 0.150062776760107 
1006	 0.152280748647608 
1007	 0.152718277142115 
1008	 0.152629615642984 
1009	 0.153729084575045 
1010	 0.162627781177239 
1011	 0.165275478667747 
1012	 0.142433618379019 
1013	 0.139339582829936 
1014	 0.153730194704423 
1015	 0.153681678919157 
1016	 0.153257975604515 
1017	 0.154409935963184 
1018	 0.149059266925415 
1019	 0.145862237931198 
1020	 0.150549749115357 
1021	 0.165706781316095 
1022	 0.173572222987571 
1023	 0.159863473405583 
1024	 0.161113783164638 
1025	 0.17197921520892 
1026	 0.173192331554185 
1027	 0.160799927782163 
1028	 0.143802357805491 
1029	 0.155336793754663 
1030	 0.16065572001451 
1031	 0.153082113737175 
1032	 0.161567062428852 
1033	 0.166756731632845 
1034	 0.157673518163682 
1035	 0.145905113335875 
1036	 0.142820022255396 
1037	 0.157412837736017 
1038	 0.165690645236853 
1039	 0.165162399275187 
1040	 0.160693751489903 
1041	 0.155375926303771 
1042	 0.153357867508845 
1043	 0.161378266475575 
1044	 0.170401555232001 
1045	 0.174648422597169 
1046	 0.167438886934264 
1047	 0.162429630953445 
1048	 0.167642234414978 
1049	 0.174714324240445 
1050	 0.178160418259339 
1051	 0.173996083766352 
1052	 0.168943144775761 
1053	 0.169495125444815 
1054	 0.182824266775962 
1055	 0.194976189348964 
1056	 0.196599701651451 
1057	 0.175937410591369 
1058	 0.165351682694506 
1059	 0.170969719882431 
1060	 0.178590734682052 
1061	 0.172847285231338 
1062	 0.153652184947497 
1063	 0.16130434342641 
1064	 0.169429165144794 
1065	 0.161262740788636 
1066	 0.17525817990691 
1067	 0.195232568434954 
1068	 0.196735942213547 
1069	 0.176762366254899 
1070	 0.156309806928149 
1071	 0.175255010981779 
1072	 0.171487540030493 
1073	 0.14054342585144 
1074	 0.112822539920905 
1075	 0.103312657566205 
