Wavelength	AVEI200182.asd
325	 5.79150585392596E-02 
326	 5.34258422863293E-02 
327	 3.43597528690704E-02 
328	 3.28104754485175E-02 
329	 3.85420928164957E-02 
330	 4.53430237890268E-02 
331	 0.042986630179079 
332	 4.04810780313147E-02 
333	 4.63065161654159E-02 
334	 4.46784130296233E-02 
335	 3.85631673910176E-02 
336	 0.041216455521344 
337	 4.07799899546842E-02 
338	 3.62529366630725E-02 
339	 4.04872237893412E-02 
340	 4.46579253777633E-02 
341	 0.041884319703735 
342	 4.05891434191563E-02 
343	 4.11883551905178E-02 
344	 0.04194554219866 
345	 4.22615022422749E-02 
346	 4.20308744343611E-02 
347	 4.17186341450963E-02 
348	 0.041964074664308 
349	 4.28524447728961E-02 
350	 4.14781404490881E-02 
351	 3.91504715615233E-02 
352	 3.83540169239968E-02 
353	 3.85553604586325E-02 
354	 3.95377947244404E-02 
355	 4.11280894762354E-02 
356	 4.17939350431616E-02 
357	 4.08902312791538E-02 
358	 4.08855622020182E-02 
359	 4.13070441020825E-02 
360	 4.09753352469754E-02 
361	 0.041109525095726 
362	 4.16817028984947E-02 
363	 4.16800289070638E-02 
364	 4.14054139086334E-02 
365	 4.10551852239083E-02 
366	 4.07544620626364E-02 
367	 4.03663014216239E-02 
368	 3.96749181361461E-02 
369	 4.00513407147243E-02 
370	 4.10471819384372E-02 
371	 4.01097928561669E-02 
372	 3.94544575617191E-02 
373	 4.00150202617072E-02 
374	 3.95079194351803E-02 
375	 3.86417304573853E-02 
376	 3.86798776722253E-02 
377	 3.77048183317165E-02 
378	 3.60354905059521E-02 
379	 3.59034477622974E-02 
380	 3.72097653716659E-02 
381	 3.94414432322624E-02 
382	 4.01492803499308E-02 
383	 3.96344016137702E-02 
384	 3.86308186567871E-02 
385	 3.76980513965767E-02 
386	 0.037010572166528 
387	 3.61560066188208E-02 
388	 3.65797477477019E-02 
389	 3.82985374680222E-02 
390	 3.75587796076452E-02 
391	 3.60433315787188E-02 
392	 0.036036498567676 
393	 3.74178251906812E-02 
394	 3.90282527260237E-02 
395	 3.77708003450029E-02 
396	 3.64606325913024E-02 
397	 3.62578241102114E-02 
398	 3.61074410581649E-02 
399	 3.62754626027483E-02 
400	 3.70603310873001E-02 
401	 3.70524504996516E-02 
402	 3.64532964548792E-02 
403	 3.63789291454852E-02 
404	 3.63223132951953E-02 
405	 3.61175153950583E-02 
406	 3.60466248768747E-02 
407	 3.58998713984933E-02 
408	 3.54093164389911E-02 
409	 3.59084022338767E-02 
410	 3.68674187124609E-02 
411	 3.58415663111925E-02 
412	 3.51918228147277E-02 
413	 3.58752932815781E-02 
414	 3.63759696480399E-02 
415	 3.63834662048395E-02 
416	 3.57183882047916E-02 
417	 3.54882110289944E-02 
418	 3.57653568425503E-02 
419	 3.58642140624252E-02 
420	 3.59103043237356E-02 
421	 3.59621977486586E-02 
422	 3.60129947700699E-02 
423	 0.036062053092054 
424	 3.61146604981679E-02 
425	 3.59267976784554E-02 
426	 0.035621747403302 
427	 0.03582842670601 
428	 3.61978296912515E-02 
429	 3.64524410588545E-02 
430	 3.64170683693305E-02 
431	 0.036137016664326 
432	 3.57247908611401E-02 
433	 3.55915026558672E-02 
434	 3.57039057101496E-02 
435	 0.035435932980464 
436	 0.035260611722708 
437	 3.54685616303058E-02 
438	 3.57169726832783E-02 
439	 3.58038326481348E-02 
440	 3.54432736569793E-02 
441	 3.51989291872413E-02 
442	 0.035263811380896 
443	 0.03564917573884 
444	 3.58180843185233E-02 
445	 3.54098121939897E-02 
446	 3.54297553582414E-02 
447	 0.035759723847414 
448	 3.57478065358932E-02 
449	 3.57944876667992E-02 
450	 3.59603310772407E-02 
451	 3.59194139972119E-02 
452	 0.03582126705655 
453	 3.58409190571112E-02 
454	 3.61749725231298E-02 
455	 3.65704600995781E-02 
456	 3.62264031996754E-02 
457	 3.59128063636718E-02 
458	 3.59363069194852E-02 
459	 3.60211793769564E-02 
460	 3.61108188381695E-02 
461	 3.61586884103028E-02 
462	 3.59281209883261E-02 
463	 3.55831158338972E-02 
464	 3.57532256929974E-02 
465	 3.61270412893775E-02 
466	 3.64269331659552E-02 
467	 3.59327997521909E-02 
468	 0.035337366344769 
469	 3.57560156045176E-02 
470	 3.61536158936978E-02 
471	 0.036275736185175 
472	 3.62875636905245E-02 
473	 3.62163879879754E-02 
474	 3.60900266812705E-02 
475	 3.59276984785843E-02 
476	 3.57640997687366E-02 
477	 3.56238479685531E-02 
478	 3.57957205466075E-02 
479	 3.61769887842643E-02 
480	 3.59699389874326E-02 
481	 3.58242520309586E-02 
482	 3.62288932828128E-02 
483	 0.036321958289087 
484	 3.61284747597849E-02 
485	 3.60079688709242E-02 
486	 3.62458471578035E-02 
487	 0.036787342977592 
488	 3.67057950352656E-02 
489	 3.63407120266257E-02 
490	 3.61222128161915E-02 
491	 3.61572964483162E-02 
492	 3.63544535726223E-02 
493	 0.036389545315523 
494	 3.64214285792506E-02 
495	 3.65032668472494E-02 
496	 3.65389603787136E-02 
497	 3.66230781269199E-02 
498	 3.68850550948778E-02 
499	 3.70668942332223E-02 
500	 3.71929935832266E-02 
501	 3.75927796389403E-02 
502	 3.79421891899452E-02 
503	 3.80654118910263E-02 
504	 3.82295320704159E-02 
505	 3.85367755718393E-02 
506	 3.91005600831847E-02 
507	 3.95532118001666E-02 
508	 3.98532898574078E-02 
509	 4.03175929571124E-02 
510	 4.07957779923554E-02 
511	 4.11767659467698E-02 
512	 4.16758743862881E-02 
513	 4.22442455265729E-02 
514	 4.26672425207383E-02 
515	 4.32163068414336E-02 
516	 4.39521069592064E-02 
517	 4.46442949297069E-02 
518	 4.52690416859292E-02 
519	 4.58200564189194E-02 
520	 4.64210035514391E-02 
521	 4.71886653160324E-02 
522	 4.84406784707759E-02 
523	 4.93766183374346E-02 
524	 4.96973638185049E-02 
525	 0.050061260954939 
526	 5.06427108828954E-02 
527	 5.15680482739282E-02 
528	 5.24683500463146E-02 
529	 5.31737072456422E-02 
530	 5.34897143659752E-02 
531	 5.40530041679679E-02 
532	 0.055197094059072 
533	 5.58349707214787E-02 
534	 5.60502270357644E-02 
535	 5.63217769355911E-02 
536	 5.66181335744956E-02 
537	 5.69619651482492E-02 
538	 5.73545387326735E-02 
539	 5.78049676613673E-02 
540	 5.83047948441824E-02 
541	 5.85950142234036E-02 
542	 5.87517699936863E-02 
543	 5.91020473328841E-02 
544	 5.95658735512859E-02 
545	 0.060063698712486 
546	 6.03236481845145E-02 
547	 0.060420602069243 
548	 6.04854132643396E-02 
549	 6.08097306432722E-02 
550	 6.13459949029331E-02 
551	 6.16849919704968E-02 
552	 6.18242423006804E-02 
553	 6.18124886740311E-02 
554	 6.21193840419941E-02 
555	 6.25292264449166E-02 
556	 0.062510687339008 
557	 6.25292246121147E-02 
558	 6.26836291179854E-02 
559	 6.27475230634247E-02 
560	 6.26447607558427E-02 
561	 6.23454615734146E-02 
562	 6.22964840949579E-02 
563	 6.24175707207723E-02 
564	 6.22810352702615E-02 
565	 6.20486068044624E-02 
566	 6.17831288106587E-02 
567	 6.15105358844786E-02 
568	 0.061230630964153 
569	 6.09358782736842E-02 
570	 6.05016113558187E-02 
571	 5.99999334323716E-02 
572	 5.97640923990731E-02 
573	 5.95488707167972E-02 
574	 5.92232185142275E-02 
575	 5.90916318354859E-02 
576	 5.89283425257754E-02 
577	 5.82462793600231E-02 
578	 5.76701062965423E-02 
579	 5.74185812851213E-02 
580	 5.74492182220348E-02 
581	 5.74859062545539E-02 
582	 5.72862758194627E-02 
583	 5.69720753913964E-02 
584	 5.66766559077102E-02 
585	 5.66930132044928E-02 
586	 5.66460836160323E-02 
587	 5.64120516735705E-02 
588	 5.63080690872846E-02 
589	 5.61258489785494E-02 
590	 5.55744718921248E-02 
591	 5.52495318860262E-02 
592	 5.52419251742442E-02 
593	 5.53204533348631E-02 
594	 5.53266302098524E-02 
595	 5.51666353497187E-02 
596	 5.50033716066569E-02 
597	 5.48175583571367E-02 
598	 5.45131263249821E-02 
599	 5.44356624158696E-02 
600	 5.45946575239164E-02 
601	 5.45314567213468E-02 
602	 5.43914169626919E-02 
603	 5.43184685368024E-02 
604	 5.42746506522424E-02 
605	 5.42221117739278E-02 
606	 5.41107208371026E-02 
607	 5.38027297207622E-02 
608	 5.33125494318547E-02 
609	 5.30684697375052E-02 
610	 0.053019703473898 
611	 5.30431859508877E-02 
612	 5.28343922026475E-02 
613	 5.24132335921919E-02 
614	 0.05216139213852 
615	 5.18390511038126E-02 
616	 5.13590280211058E-02 
617	 5.12269335817573E-02 
618	 0.051227779242212 
619	 5.08581837348305E-02 
620	 5.06474939438442E-02 
621	 5.06529004445486E-02 
622	 5.04129219642052E-02 
623	 5.01550367743667E-02 
624	 5.01014008021033E-02 
625	 0.050242366523521 
626	 5.03945250071104E-02 
627	 5.00593446053879E-02 
628	 4.98987554589009E-02 
629	 5.01539875734581E-02 
630	 5.05254475026411E-02 
631	 5.07052131160823E-02 
632	 5.03650658730181E-02 
633	 5.03642355133759E-02 
634	 5.06333200876671E-02 
635	 5.02622726663258E-02 
636	 4.96543208409968E-02 
637	 4.90922975211282E-02 
638	 4.87839691588052E-02 
639	 4.85587261928482E-02 
640	 4.80578796561035E-02 
641	 4.75373367432404E-02 
642	 4.70582733755264E-02 
643	 4.65336244568696E-02 
644	 4.59538029867673E-02 
645	 4.53128866238262E-02 
646	 4.46448721393662E-02 
647	 4.40993257204866E-02 
648	 0.044074557633127 
649	 4.38969616747453E-02 
650	 4.33973669443198E-02 
651	 4.33340053210036E-02 
652	 4.34449966279932E-02 
653	 4.33455102927756E-02 
654	 4.28052996267463E-02 
655	 4.20603618561735E-02 
656	 4.22368698119115E-02 
657	 4.24783996102229E-02 
658	 0.042244764691295 
659	 4.17310241683352E-02 
660	 4.11762598036069E-02 
661	 4.09012799410209E-02 
662	 4.08571546085608E-02 
663	 4.08529014019044E-02 
664	 4.01267945885824E-02 
665	 3.95185232815864E-02 
666	 3.96886802282603E-02 
667	 3.95807314448954E-02 
668	 3.91714607162756E-02 
669	 3.88147280583087E-02 
670	 3.88001092860338E-02 
671	 3.90714325089458E-02 
672	 3.85245174354033E-02 
673	 3.79617316080432E-02 
674	 3.83727213046462E-02 
675	 3.86891742567309E-02 
676	 3.87596461827986E-02 
677	 3.89123260938292E-02 
678	 3.90812392263116E-02 
679	 3.92403332490208E-02 
680	 3.94097853530045E-02 
681	 3.96134809288641E-02 
682	 3.98740452555968E-02 
683	 4.03047734126702E-02 
684	 4.10034531875361E-02 
685	 4.22206072359984E-02 
686	 4.36781112879701E-02 
687	 0.045107597596087 
688	 4.66279263458565E-02 
689	 0.048170779525785 
690	 4.97790611089797E-02 
691	 5.19653431656442E-02 
692	 5.47820047451203E-02 
693	 0.057212730519716 
694	 5.99601139147195E-02 
695	 6.36303322772064E-02 
696	 6.69554596486228E-02 
697	 0.069997990734897 
698	 7.38079461747163E-02 
699	 7.77968299591519E-02 
700	 8.16768128131902E-02 
701	 8.58683601788776E-02 
702	 9.00973893032399E-02 
703	 9.39558565894591E-02 
704	 9.80848977747349E-02 
705	 0.102517755564032 
706	 0.106639066239995 
707	 0.110646004946112 
708	 0.114661624542137 
709	 0.118679877844695 
710	 0.122668643188388 
711	 0.126607423474191 
712	 0.130388819041056 
713	 0.133970251062877 
714	 0.137441390662537 
715	 0.140851246307263 
716	 0.144389796614844 
717	 0.147257930932928 
718	 0.149914313059591 
719	 0.153880316785059 
720	 0.157751727665606 
721	 0.160706080607694 
722	 0.162872834323191 
723	 0.165055701526701 
724	 0.167911310811943 
725	 0.170198400699002 
726	 0.171786643157181 
727	 0.173830977154078 
728	 0.176008654237628 
729	 0.178114805728428 
730	 0.179884647540382 
731	 0.18124845184693 
732	 0.182166890516336 
733	 0.183397527137149 
734	 0.18500610481319 
735	 0.186446244560792 
736	 0.18792786423358 
737	 0.189477421355005 
738	 0.190621848294816 
739	 0.191465638746995 
740	 0.192332309962139 
741	 0.192930365195063 
742	 0.193355169384099 
743	 0.194307511600726 
744	 0.195316423396916 
745	 0.195987409581033 
746	 0.196669919384972 
747	 0.197340308471033 
748	 0.19777662032123 
749	 0.198409646471895 
750	 0.199286732962659 
751	 0.199733580587978 
752	 0.200127230909496 
753	 0.200893914462957 
754	 0.201369533434499 
755	 0.201672758353707 
756	 0.202610173010898 
757	 0.203138866889956 
758	 0.202891981985531 
759	 0.202891734041034 
760	 0.203646721622395 
761	 0.205459062954754 
762	 0.205479783074565 
763	 0.204415586616411 
764	 0.205604581439411 
765	 0.20677071345486 
766	 0.207138715303409 
767	 0.207379356691836 
768	 0.207588838149946 
769	 0.207782360605111 
770	 0.208384729264928 
771	 0.209244958631319 
772	 0.209442350789922 
773	 0.209555956329422 
774	 0.209949967058521 
775	 0.210149771554391 
776	 0.210382772517295 
777	 0.211179681978059 
778	 0.211847279789919 
779	 0.212158822360274 
780	 0.21215919699048 
781	 0.21227473846485 
782	 0.212798644080594 
783	 0.21301456927462 
784	 0.213085490694886 
785	 0.213612395912015 
786	 0.214162821881649 
787	 0.214550716045781 
788	 0.214634109581414 
789	 0.214636351832788 
790	 0.21478770869261 
791	 0.215101578749187 
792	 0.215569306333665 
793	 0.216260845382193 
794	 0.216290067622499 
795	 0.215625375687468 
796	 0.215871831810918 
797	 0.216550068797942 
798	 0.217074302565139 
799	 0.217673953912017 
800	 0.218162202886905 
801	 0.217926282424286 
802	 0.217836695380092 
803	 0.218225585973054 
804	 0.218754127652609 
805	 0.21916129061556 
806	 0.219224249451974 
807	 0.219428913403634 
808	 0.219895098887788 
809	 0.220705416844263 
810	 0.22123783514275 
811	 0.221216573565354 
812	 0.221001303079392 
813	 0.220775733597989 
814	 0.220758274643464 
815	 0.221227269288598 
816	 0.222038846358392 
817	 0.222497886803837 
818	 0.222838058939842 
819	 0.223203082350375 
820	 0.223871388649058 
821	 0.224462318125354 
822	 0.224517912934359 
823	 0.224852569511567 
824	 0.225556479408404 
825	 0.226454566456939 
826	 0.22692774345525 
827	 0.226701740766427 
828	 0.225799634902714 
829	 0.225276736752703 
830	 0.226331638311327 
831	 0.226828992786697 
832	 0.226732783027795 
833	 0.227421383718921 
834	 0.228079906145128 
835	 0.228322814517118 
836	 0.227960381546709 
837	 0.227858146370467 
838	 0.228942762682652 
839	 0.229713347680212 
840	 0.229818739685512 
841	 0.229170996853263 
842	 0.228990223954982 
843	 0.229632290736566 
844	 0.229599818842755 
845	 0.229377824290587 
846	 0.229629155535864 
847	 0.229769494850417 
848	 0.229857587207918 
849	 0.230435389604626 
850	 0.230795146665325 
851	 0.230739231509483 
852	 0.2310694528753 
853	 0.231171594765363 
854	 0.230441702628197 
855	 0.230945290461965 
856	 0.232105253914233 
857	 0.231399807034203 
858	 0.231085445854222 
859	 0.231704875104995 
860	 0.231836680676389 
861	 0.232061621316281 
862	 0.232869023410549 
863	 0.232131435254281 
864	 0.23092308486131 
865	 0.232801784906756 
866	 0.233583566816908 
867	 0.232591620739629 
868	 0.233877485774513 
869	 0.235187830859035 
870	 0.234698314217379 
871	 0.234502199521364 
872	 0.234616588435005 
873	 0.234396255630612 
874	 0.234630768535073 
875	 0.235449856831782 
876	 0.236419148651337 
877	 0.237048268336986 
878	 0.237088311021282 
879	 0.237482098058831 
880	 0.238318529662795 
881	 0.239521662329365 
882	 0.240114107608405 
883	 0.240089531034057 
884	 0.240528621819945 
885	 0.240888788167866 
886	 0.241116713360266 
887	 0.243133591170353 
888	 0.244812426654309 
889	 0.243197169721195 
890	 0.242395962509613 
891	 0.242907299856634 
892	 0.242913620279483 
893	 0.243215981305556 
894	 0.243925528441205 
895	 0.243572431289181 
896	 0.242909454437662 
897	 0.243035021905099 
898	 0.243872163839913 
899	 0.244938688609375 
900	 0.245100988175683 
901	 0.245189015286521 
902	 0.245522826331966 
903	 0.246384224122141 
904	 0.246335004947307 
905	 0.244601127548067 
906	 0.244915201308801 
907	 0.24613929974211 
908	 0.245214516106767 
909	 0.245196669024677 
910	 0.24630601500341 
911	 0.245992038193367 
912	 0.244997052023328 
913	 0.244081864049687 
914	 0.244840192788335 
915	 0.246366028625341 
916	 0.247260895982647 
917	 0.245555788899389 
918	 0.242601491314639 
919	 0.242855389804149 
920	 0.244195676324273 
921	 0.24544116171292 
922	 0.244530277596976 
923	 0.24355087789603 
924	 0.244249494611951 
925	 0.242965516269461 
926	 0.240541564970396 
927	 0.240207753446169 
928	 0.240991320109054 
929	 0.242099094835134 
930	 0.241416858500839 
931	 0.23737820802208 
932	 0.229714204825404 
933	 0.228342038262103 
934	 0.230497323056673 
935	 0.228976115140542 
936	 0.229344398243954 
937	 0.229326837291213 
938	 0.219372749581534 
939	 0.216055349976435 
940	 0.221374382746115 
941	 0.218865126917939 
942	 0.214069450567864 
943	 0.211547110038769 
944	 0.211761198806354 
945	 0.213632146925299 
946	 0.215290425313767 
947	 0.214756843406328 
948	 0.211981607542794 
949	 0.209498648992948 
950	 0.204088849198534 
951	 0.195852378367129 
952	 0.192934118467873 
953	 0.191319025650857 
954	 0.187621839770674 
955	 0.193284180345184 
956	 0.201249983290483 
957	 0.196406468858111 
958	 0.192367204694972 
959	 0.191903331106759 
960	 0.191535146687462 
961	 0.189932300424182 
962	 0.187195518328855 
963	 0.187200034191013 
964	 0.188903806783109 
965	 0.190894399147579 
966	 0.19141687619016 
967	 0.189942385783332 
968	 0.185728696532584 
969	 0.187069560534115 
970	 0.193402972806135 
971	 0.193976830046438 
972	 0.192699181441791 
973	 0.191490920291052 
974	 0.187722644360967 
975	 0.184853340868375 
976	 0.18668150035647 
977	 0.19174526684645 
978	 0.196701196726274 
979	 0.19570600261774 
980	 0.190485039617725 
981	 0.185313814641622 
982	 0.193257688446329 
983	 0.199230270951723 
984	 0.195665094377786 
985	 0.190278393961768 
986	 0.188023360032684 
987	 0.192867036124138 
988	 0.195257563984559 
989	 0.195108326768313 
990	 0.195931083675588 
991	 0.195358751836296 
992	 0.194836245379296 
993	 0.201836439782982 
994	 0.206400927496736 
995	 0.20418806436533 
996	 0.202240951446204 
997	 0.201533598552605 
998	 0.202278652419754 
999	 0.20189902529067 
1000	 0.200817932926334 
1001	 0.200554305503493 
1002	 0.201110781895746 
1003	 0.202247312590326 
1004	 0.203326351247028 
1005	 0.202999404769487 
1006	 0.202235701750675 
1007	 0.208788476079823 
1008	 0.215066831427274 
1009	 0.215093658643894 
1010	 0.21286260567474 
1011	 0.211630225001892 
1012	 0.214869072946105 
1013	 0.216810204392951 
1014	 0.217233085413281 
1015	 0.219158484007544 
1016	 0.218227932313824 
1017	 0.214432253256791 
1018	 0.212972667034478 
1019	 0.214525316161644 
1020	 0.218705841486815 
1021	 0.221575006408632 
1022	 0.221123239434466 
1023	 0.216939613101801 
1024	 0.221861895831567 
1025	 0.228615713300993 
1026	 0.222007913269871 
1027	 0.221476042610744 
1028	 0.227368828821523 
1029	 0.225376541719132 
1030	 0.226000084045323 
1031	 0.230667215516256 
1032	 0.229269779966529 
1033	 0.227551809010856 
1034	 0.229245110575674 
1035	 0.232291326903625 
1036	 0.233745327882389 
1037	 0.231409635604549 
1038	 0.234247195223828 
1039	 0.238380157649218 
1040	 0.234952374812126 
1041	 0.232554304075414 
1042	 0.23046690775773 
1043	 0.218440792872811 
1044	 0.217191309045749 
1045	 0.231626851340894 
1046	 0.249732572919363 
1047	 0.248350285572844 
1048	 0.221530706702495 
1049	 0.220395155236998 
1050	 0.232236437568184 
1051	 0.238771497636991 
1052	 0.235908741428308 
1053	 0.231406128776759 
1054	 0.238420709322468 
1055	 0.237208858743041 
1056	 0.227284145716796 
1057	 0.219034469907745 
1058	 0.20734820373329 
1059	 0.198948679220193 
1060	 0.227939313082561 
1061	 0.243111232600967 
1062	 0.225544033654812 
1063	 0.205480461225314 
1064	 0.204285866656774 
1065	 0.22763927460596 
1066	 0.21213637922832 
1067	 0.201316367127545 
1068	 0.245387115096888 
1069	 0.252272274860606 
1070	 0.227646168951335 
1071	 0.208584789671976 
1072	 0.208482304020537 
1073	 0.220851468563868 
1074	 0.215901296375393 
1075	 0.228839734495018 
