Wavelength	AVEI200152.asd
325	 3.86522883249506E-02 
326	 3.32986400119455E-02 
327	 0.027488787360302 
328	 3.30348264531086E-02 
329	 3.95505621162289E-02 
330	 4.22509515457516E-02 
331	 3.93364293809542E-02 
332	 0.035944327030496 
333	 3.68273911704619E-02 
334	 3.78953208030856E-02 
335	 3.81822855083133E-02 
336	 3.72071262497828E-02 
337	 3.57627686921976E-02 
338	 3.52439896706531E-02 
339	 0.041127955663973 
340	 4.38148513881717E-02 
341	 3.66577659797426E-02 
342	 3.37827506922512E-02 
343	 3.50261498536489E-02 
344	 3.56725400161633E-02 
345	 3.55900651652619E-02 
346	 0.035177627462032 
347	 0.036833558221059 
348	 3.81594222513668E-02 
349	 3.75774066855518E-02 
350	 3.62664751935289E-02 
351	 3.51271759953097E-02 
352	 3.52081941391059E-02 
353	 3.55919978906067E-02 
354	 3.60871251374172E-02 
355	 3.72025145724027E-02 
356	 3.70632212835258E-02 
357	 3.50515846047596E-02 
358	 3.55136269388128E-02 
359	 3.67922403194014E-02 
360	 3.56322973275697E-02 
361	 3.62705997322715E-02 
362	 3.82112797568136E-02 
363	 3.61865651381631E-02 
364	 3.52123079310862E-02 
365	 3.72993670357126E-02 
366	 3.68875035956549E-02 
367	 3.49767878685581E-02 
368	 3.36014148684337E-02 
369	 3.39356468182152E-02 
370	 3.53795830997718E-02 
371	 3.48746289173288E-02 
372	 3.45368624135389E-02 
373	 3.52608727397896E-02 
374	 3.50309754256803E-02 
375	 3.44602401746587E-02 
376	 3.46464549964055E-02 
377	 0.034302591640082 
378	 3.33750118317426E-02 
379	 3.25646607197493E-02 
380	 3.24470035859171E-02 
381	 0.033163843361331 
382	 0.033372214646609 
383	 3.38918499896141E-02 
384	 3.59016774835862E-02 
385	 3.53544928448027E-02 
386	 3.28322680908812E-02 
387	 3.33485656840466E-02 
388	 3.36151932760708E-02 
389	 0.032499911301691 
390	 0.032855284230389 
391	 3.30716844747383E-02 
392	 3.11365190280904E-02 
393	 3.18041122522694E-02 
394	 3.40998984467724E-02 
395	 0.032253161960317 
396	 3.14966735641627E-02 
397	 3.33315501846253E-02 
398	 3.29320542465631E-02 
399	 3.21154794370933E-02 
400	 3.30632843372008E-02 
401	 3.33030437672597E-02 
402	 3.27695894450625E-02 
403	 3.23151736584254E-02 
404	 3.22016705586779E-02 
405	 3.23985043274742E-02 
406	 3.18794996736032E-02 
407	 3.13157272401457E-02 
408	 0.031616784384991 
409	 0.032232455907959 
410	 3.26253948109331E-02 
411	 3.15719935706029E-02 
412	 3.10181114191074E-02 
413	 3.17060701964254E-02 
414	 3.20166710287852E-02 
415	 0.031797652308694 
416	 3.10752326343279E-02 
417	 3.12498022976232E-02 
418	 3.20572752702169E-02 
419	 3.15373022961861E-02 
420	 3.11517336547834E-02 
421	 3.16219188484742E-02 
422	 3.21111655418219E-02 
423	 0.032342481502699 
424	 0.032073351869725 
425	 3.17739949712792E-02 
426	 3.16139411712268E-02 
427	 3.16572752116079E-02 
428	 3.17878844615621E-02 
429	 3.18957726811985E-02 
430	 3.17859812387716E-02 
431	 3.16284137036042E-02 
432	 3.17463344910989E-02 
433	 3.18876692324392E-02 
434	 3.18883376480947E-02 
435	 3.13905265898266E-02 
436	 3.11410416110567E-02 
437	 0.031537440519274 
438	 0.031434214100441 
439	 3.10556326337239E-02 
440	 3.11035369857664E-02 
441	 3.12434046186373E-02 
442	 3.13475340930873E-02 
443	 3.12914236495476E-02 
444	 0.031209557713632 
445	 3.12239218444308E-02 
446	 3.14009918609886E-02 
447	 3.16119705125205E-02 
448	 0.031531363671447 
449	 0.031606109413421 
450	 3.18665364784732E-02 
451	 3.16706221936253E-02 
452	 3.14243687888447E-02 
453	 3.15483099202132E-02 
454	 3.16880182659985E-02 
455	 0.031755401187372 
456	 0.031695403974188 
457	 3.17012420140489E-02 
458	 0.031811600894524 
459	 3.17098709815717E-02 
460	 3.16238915945546E-02 
461	 3.18398303323936E-02 
462	 3.18443491140187E-02 
463	 3.16572384127722E-02 
464	 3.17331748485936E-02 
465	 3.17400319237602E-02 
466	 3.15413481044936E-02 
467	 3.14310937928787E-02 
468	 3.14120210926193E-02 
469	 3.14337729295649E-02 
470	 3.15792508815199E-02 
471	 0.031779842855613 
472	 3.17546048423227E-02 
473	 3.16898676510671E-02 
474	 3.16989228521608E-02 
475	 3.16760841319573E-02 
476	 3.15704504366626E-02 
477	 3.12909590231276E-02 
478	 3.13614944088321E-02 
479	 3.17219961252087E-02 
480	 3.14326908423566E-02 
481	 3.11075927827298E-02 
482	 3.12472865743883E-02 
483	 3.14164764246445E-02 
484	 3.15732055615509E-02 
485	 3.18129404974977E-02 
486	 3.19460260970231E-02 
487	 3.19063157385409E-02 
488	 3.17620254714334E-02 
489	 3.17199051738575E-02 
490	 3.19589698584177E-02 
491	 3.20566182068243E-02 
492	 3.19188506283003E-02 
493	 3.14680424943151E-02 
494	 0.031344721942892 
495	 3.17479245365398E-02 
496	 3.19095397613391E-02 
497	 3.19597374756099E-02 
498	 3.21645422640933E-02 
499	 3.24233472384386E-02 
500	 3.26718421002824E-02 
501	 3.27562988477491E-02 
502	 3.29129806767831E-02 
503	 3.32485859300599E-02 
504	 3.33527739984941E-02 
505	 0.033479943299748 
506	 3.41564170050202E-02 
507	 3.45388220310793E-02 
508	 3.45297643780537E-02 
509	 3.47493162842916E-02 
510	 3.51626345497121E-02 
511	 3.57027991782987E-02 
512	 3.60914304842967E-02 
513	 3.63175597501203E-02 
514	 3.64398917064418E-02 
515	 3.67867545292789E-02 
516	 3.74249547031819E-02 
517	 3.79166751575339E-02 
518	 3.83703868661698E-02 
519	 3.89302938648427E-02 
520	 3.94872544499205E-02 
521	 4.01174903601868E-02 
522	 4.11782854351682E-02 
523	 4.18715262191673E-02 
524	 4.19429836791727E-02 
525	 4.23494120363401E-02 
526	 4.29343888265666E-02 
527	 4.33245065655578E-02 
528	 4.36703342609196E-02 
529	 4.40628932646197E-02 
530	 4.46962727908777E-02 
531	 4.53912420701401E-02 
532	 4.59940237720593E-02 
533	 0.046273005829435 
534	 4.63741151021764E-02 
535	 4.66372185192635E-02 
536	 4.69501770031612E-02 
537	 4.72774695558114E-02 
538	 4.75715797370758E-02 
539	 0.047863669813263 
540	 4.81863130864561E-02 
541	 4.85841454633254E-02 
542	 4.89474569923535E-02 
543	 4.89505202703517E-02 
544	 4.90574731203069E-02 
545	 0.049422520599055 
546	 0.049658497691231 
547	 4.97935348467209E-02 
548	 4.99119572236734E-02 
549	 4.99384065580514E-02 
550	 4.99841600969029E-02 
551	 5.04693209084068E-02 
552	 5.09243673316587E-02 
553	 5.10544399385165E-02 
554	 5.11190515224846E-02 
555	 5.11626157486917E-02 
556	 5.12020664321846E-02 
557	 5.11776631482841E-02 
558	 5.10915155849513E-02 
559	 5.10183884280454E-02 
560	 5.10281867161087E-02 
561	 5.11615894030174E-02 
562	 5.11331069351746E-02 
563	 5.09617479613964E-02 
564	 0.050855115418354 
565	 5.06910090345411E-02 
566	 5.04575683758743E-02 
567	 5.03697271266913E-02 
568	 5.02743130978204E-02 
569	 4.99546224247265E-02 
570	 4.95942262354728E-02 
571	 4.93297678736776E-02 
572	 4.94548366244397E-02 
573	 4.94890618238212E-02 
574	 4.91521456245077E-02 
575	 4.88044505132195E-02 
576	 4.84842195487583E-02 
577	 4.81633286380421E-02 
578	 0.047859875908231 
579	 4.76306927475519E-02 
580	 0.047666462174475 
581	 4.77599009810864E-02 
582	 4.77061473447921E-02 
583	 4.73535028622298E-02 
584	 4.69235083199131E-02 
585	 0.047074522760406 
586	 4.71224882805036E-02 
587	 4.68375893185444E-02 
588	 4.66816907600878E-02 
589	 4.65189667532574E-02 
590	 4.61315827812955E-02 
591	 4.59267795121071E-02 
592	 4.59976456322683E-02 
593	 4.63388506135271E-02 
594	 4.64235594337859E-02 
595	 4.60030898707681E-02 
596	 4.58715762761638E-02 
597	 4.58461118965513E-02 
598	 4.53808882169587E-02 
599	 4.52669440031144E-02 
600	 4.56329304278942E-02 
601	 4.59768651892539E-02 
602	 4.59528518870832E-02 
603	 4.53478548555017E-02 
604	 4.52497566574581E-02 
605	 4.55157325057193E-02 
606	 4.52431898527543E-02 
607	 4.49589765882255E-02 
608	 4.48505083900699E-02 
609	 4.47937366360762E-02 
610	 4.47285552563335E-02 
611	 4.45910239846341E-02 
612	 4.41632245225516E-02 
613	 4.36319168000053E-02 
614	 4.37957660777865E-02 
615	 4.39155907012518E-02 
616	 4.35730361487374E-02 
617	 0.043367219771948 
618	 4.31981159623738E-02 
619	 4.27264454824845E-02 
620	 4.25345931080547E-02 
621	 4.26704339349717E-02 
622	 0.042538358483755 
623	 4.23034985356278E-02 
624	 4.21583399565224E-02 
625	 4.24314928245858E-02 
626	 4.28607002768243E-02 
627	 4.26077673580848E-02 
628	 4.23721370807321E-02 
629	 4.23800713129761E-02 
630	 4.21385695773263E-02 
631	 4.20452823932611E-02 
632	 4.26186587877284E-02 
633	 4.28294996318572E-02 
634	 4.25707538245264E-02 
635	 4.24068993427958E-02 
636	 4.21429702553099E-02 
637	 4.17201906493848E-02 
638	 4.15734475420633E-02 
639	 4.14424503531663E-02 
640	 4.07325015253282E-02 
641	 4.04483841545242E-02 
642	 4.06685259976416E-02 
643	 4.03215026203832E-02 
644	 3.96630618603795E-02 
645	 3.89726131503753E-02 
646	 3.84739130093021E-02 
647	 3.82456997437226E-02 
648	 3.84070966863215E-02 
649	 0.0382079238773 
650	 3.75171035125892E-02 
651	 0.037587093925003 
652	 3.78004442811994E-02 
653	 3.73126767378512E-02 
654	 3.69495297749534E-02 
655	 3.68936589189488E-02 
656	 3.70799590888311E-02 
657	 3.73083796889846E-02 
658	 3.73613636284116E-02 
659	 3.67905126246402E-02 
660	 3.60349071551981E-02 
661	 0.035841825419262 
662	 3.57443729520706E-02 
663	 3.55822589746728E-02 
664	 3.52685959323791E-02 
665	 3.48698021007563E-02 
666	 3.44661075590303E-02 
667	 3.42694099894254E-02 
668	 3.42160397446087E-02 
669	 3.39990139606747E-02 
670	 3.41374306458943E-02 
671	 3.45819653821699E-02 
672	 3.39334946142615E-02 
673	 3.32607832172593E-02 
674	 3.38692195700197E-02 
675	 3.40806968746783E-02 
676	 3.38265626001895E-02 
677	 0.034127269109101 
678	 0.034381497363809 
679	 3.43447815030168E-02 
680	 3.46714326372088E-02 
681	 0.035156641307632 
682	 0.035353616181067 
683	 3.56432138033975E-02 
684	 3.62109490800119E-02 
685	 3.74095844822769E-02 
686	 3.85718146461843E-02 
687	 3.91332124077893E-02 
688	 4.02287922077125E-02 
689	 4.17718876545055E-02 
690	 4.32722415999619E-02 
691	 4.48082603579254E-02 
692	 4.65187912066095E-02 
693	 4.87588463455835E-02 
694	 5.12998543449626E-02 
695	 5.37631130228025E-02 
696	 5.62177459612567E-02 
697	 5.86855168139125E-02 
698	 6.12589165680144E-02 
699	 6.43041893380519E-02 
700	 6.78112623253331E-02 
701	 7.06645403593702E-02 
702	 7.32774507244267E-02 
703	 7.64066818305599E-02 
704	 7.95708963717323E-02 
705	 8.27149376845003E-02 
706	 8.59546980587558E-02 
707	 8.89968024071995E-02 
708	 9.16874695955234E-02 
709	 9.44981239058865E-02 
710	 9.74257216086982E-02 
711	 0.100375281747291 
712	 0.103032266928193 
713	 0.105417609775892 
714	 0.108219372362982 
715	 0.110977318204411 
716	 0.113357655024853 
717	 0.115277543880918 
718	 0.117109174579997 
719	 0.119772879669353 
720	 0.122257593852939 
721	 0.124069976903382 
722	 0.125571110217762 
723	 0.127196021132778 
724	 0.129265145718727 
725	 0.130876949353704 
726	 0.131994011611948 
727	 0.133678677029024 
728	 0.135250247423055 
729	 0.136418023079423 
730	 0.137648332174342 
731	 0.138869050466903 
732	 0.139908723063417 
733	 0.140819351784753 
734	 0.141672076786322 
735	 0.142540839077239 
736	 0.143484047655969 
737	 0.144513792906517 
738	 0.145678962062558 
739	 0.146820319195744 
740	 0.147684293344368 
741	 0.147999142428005 
742	 0.147964776275069 
743	 0.148750939933845 
744	 0.149664520614841 
745	 0.150111736281911 
746	 0.150537881205489 
747	 0.151034177082372 
748	 0.151655836388006 
749	 0.152234513048317 
750	 0.152719253055257 
751	 0.153245895325445 
752	 0.153726277653431 
753	 0.154056493912282 
754	 0.154114662283958 
755	 0.154148768560465 
756	 0.154920923988824 
757	 0.155676598627875 
758	 0.156087821417084 
759	 0.156159487838814 
760	 0.156090906018793 
761	 0.156523833216615 
762	 0.156583765758092 
763	 0.156470523161738 
764	 0.15714516293964 
765	 0.158030532768805 
766	 0.158798501408078 
767	 0.159289284053569 
768	 0.1596465902258 
769	 0.16000775058277 
770	 0.160506382927862 
771	 0.161030103483278 
772	 0.161011946569932 
773	 0.161129953577319 
774	 0.161783181633657 
775	 0.162205136431609 
776	 0.162459093457059 
777	 0.162871349946896 
778	 0.163260041757788 
779	 0.163526353971641 
780	 0.163459183453321 
781	 0.163521006060151 
782	 0.164054868516803 
783	 0.164573014943876 
784	 0.164944079411174 
785	 0.165062588024998 
786	 0.165321460965538 
787	 0.165775423457105 
788	 0.165970941067114 
789	 0.1660076981286 
790	 0.166015909466211 
791	 0.166150558486832 
792	 0.166397963588543 
793	 0.16664401410191 
794	 0.166836709776327 
795	 0.166974822350947 
796	 0.167184360295841 
797	 0.16742147881395 
798	 0.167655826626118 
799	 0.168357880399036 
800	 0.169114520815508 
801	 0.168481839006098 
802	 0.168246848338149 
803	 0.16898539537314 
804	 0.169543751739589 
805	 0.169934128527793 
806	 0.170268674819729 
807	 0.170531200622383 
808	 0.170794625112885 
809	 0.171264728435362 
810	 0.171686911976183 
811	 0.171876648321329 
812	 0.171484864085616 
813	 0.171033133556481 
814	 0.171267061333603 
815	 0.171878041301415 
816	 0.172646090108087 
817	 0.173184059925627 
818	 0.173453110566857 
819	 0.173602293442542 
820	 0.17463343521669 
821	 0.175420552996766 
822	 0.174619373969184 
823	 0.175002846612546 
824	 0.176498593048632 
825	 0.177171241156503 
826	 0.177314856198372 
827	 0.177079346276694 
828	 0.176777099029535 
829	 0.176738272483123 
830	 0.177279130343162 
831	 0.177530493326382 
832	 0.177647501732674 
833	 0.178747520246926 
834	 0.17947164316386 
835	 0.179305354946134 
836	 0.17889993961446 
837	 0.178841954043656 
838	 0.179689204583756 
839	 0.180783968795688 
840	 0.181599302321362 
841	 0.181034213207109 
842	 0.181061874133433 
843	 0.182215100408815 
844	 0.182139697713352 
845	 0.181673938343913 
846	 0.181956945281123 
847	 0.18252386149921 
848	 0.182959138535712 
849	 0.182227538775486 
850	 0.182164777953927 
851	 0.183179721919806 
852	 0.182716434553829 
853	 0.182011486102899 
854	 0.182571045537857 
855	 0.183665344825373 
856	 0.184569632452844 
857	 0.183818460551304 
858	 0.183595916976302 
859	 0.1843637997291 
860	 0.184192342121935 
861	 0.184086761472299 
862	 0.184960114172387 
863	 0.18451913068674 
864	 0.183431716600816 
865	 0.184255622310529 
866	 0.185186892694318 
867	 0.18564320290762 
868	 0.185975267214576 
869	 0.186155386779029 
870	 0.186245529902612 
871	 0.187119257144403 
872	 0.188194096259001 
873	 0.188108137297664 
874	 0.187917099065475 
875	 0.188002880510262 
876	 0.188369798678516 
877	 0.189353433685318 
878	 0.190945102986818 
879	 0.191153971582512 
880	 0.19074232933586 
881	 0.191387361308927 
882	 0.192385053997615 
883	 0.193319738357562 
884	 0.19341398008219 
885	 0.193377231196091 
886	 0.193663314627961 
887	 0.194270138726467 
888	 0.195065384953796 
889	 0.195851648543905 
890	 0.195528477312564 
891	 0.194556856387149 
892	 0.195171698191221 
893	 0.196449737029708 
894	 0.197626882644371 
895	 0.19694711665679 
896	 0.195167567301512 
897	 0.193658696325422 
898	 0.194949289777718 
899	 0.197687310000046 
900	 0.197089660547296 
901	 0.19637100584195 
902	 0.196668536963455 
903	 0.198218053051077 
904	 0.198968052101638 
905	 0.197645162362059 
906	 0.198164942822725 
907	 0.199386227722163 
908	 0.198239413470866 
909	 0.197141568570251 
910	 0.196810365992271 
911	 0.196985844805648 
912	 0.197555806799198 
913	 0.198217727356141 
914	 0.197866464577167 
915	 0.197130860428938 
916	 0.196920451169603 
917	 0.196762585273751 
918	 0.196844027099872 
919	 0.197732551942495 
920	 0.199605966829026 
921	 0.20179603730667 
922	 0.201076723326732 
923	 0.199097097542348 
924	 0.197485756493947 
925	 0.195595039572377 
926	 0.194381992353381 
927	 0.1961738927377 
928	 0.195731643732051 
929	 0.191765925818051 
930	 0.189616910366891 
931	 0.186803034090257 
932	 0.182216948288686 
933	 0.184648327428533 
934	 0.188008742683076 
935	 0.181483121862034 
936	 0.179705684304118 
937	 0.182724701122584 
938	 0.181774937526212 
939	 0.176614478213831 
940	 0.17028280812115 
941	 0.176706362642661 
942	 0.182690599060012 
943	 0.179029487543249 
944	 0.17415013822059 
945	 0.172347372185424 
946	 0.178182846663674 
947	 0.178833714871666 
948	 0.173434470751133 
949	 0.170873174874301 
950	 0.168891072490436 
951	 0.166684375614743 
952	 0.164946234687418 
953	 0.162172073754704 
954	 0.157753392130141 
955	 0.16156716451596 
956	 0.166714864340999 
957	 0.158365275171772 
958	 0.155450106667694 
959	 0.158534659900189 
960	 0.151551908166224 
961	 0.149367289405635 
962	 0.156791778005221 
963	 0.159198220740939 
964	 0.157892809777903 
965	 0.155681953863997 
966	 0.15947282471664 
967	 0.164116850277436 
968	 0.157019182068929 
969	 0.155378975875905 
970	 0.160981297002845 
971	 0.162485593441046 
972	 0.16056558604539 
973	 0.156282010709543 
974	 0.153526502804073 
975	 0.154404886551822 
976	 0.160031788791577 
977	 0.160929419538711 
978	 0.159240253457554 
979	 0.163982677873369 
980	 0.165141853390632 
981	 0.16182426735919 
982	 0.16170401786629 
983	 0.164123287535198 
984	 0.167526759925242 
985	 0.164844733845148 
986	 0.162640669979535 
987	 0.16789094485271 
988	 0.169239785211359 
989	 0.167245720642319 
990	 0.167017722172249 
991	 0.166945599265898 
992	 0.16769763892759 
993	 0.173439616944561 
994	 0.174629519054619 
995	 0.168466497116858 
996	 0.169776654918723 
997	 0.170999031377143 
998	 0.164817006234384 
999	 0.166413278710497 
1000	 0.17219409129741 
1001	 0.171619422420695 
1002	 0.173891973321976 
1003	 0.177742913886647 
1004	 0.171602601078847 
1005	 0.16743788995209 
1006	 0.170823727233296 
1007	 0.182086978358562 
1008	 0.18785472154525 
1009	 0.179691865339064 
1010	 0.178113917173477 
1011	 0.180461449353654 
1012	 0.179164298658115 
1013	 0.178684726116961 
1014	 0.180159228894668 
1015	 0.184682910118057 
1016	 0.184750322203069 
1017	 0.179330562076526 
1018	 0.17425492936783 
1019	 0.175978219459389 
1020	 0.185505639311004 
1021	 0.186583649654457 
1022	 0.180616701698081 
1023	 0.172314786126053 
1024	 0.177583119419145 
1025	 0.189583028879667 
1026	 0.192659296861987 
1027	 0.184978408190276 
1028	 0.17320239201335 
1029	 0.178535480308015 
1030	 0.184041194003882 
1031	 0.184051515067672 
1032	 0.182616102997813 
1033	 0.180775917200798 
1034	 0.180270605803404 
1035	 0.186739746904969 
1036	 0.19330517985757 
1037	 0.192837752053367 
1038	 0.194715607379306 
1039	 0.195741272188353 
1040	 0.188275072440309 
1041	 0.1828250004194 
1042	 0.179911860030885 
1043	 0.170073807786933 
1044	 0.180353016440129 
1045	 0.208879233734817 
1046	 0.206248519233684 
1047	 0.191682765922357 
1048	 0.179802963524668 
1049	 0.184587906723443 
1050	 0.197097628147911 
1051	 0.204333159867167 
1052	 0.1827834988256 
1053	 0.161290943888929 
1054	 0.1885995013762 
1055	 0.188805140071992 
1056	 0.166801358038021 
1057	 0.176794866763039 
1058	 0.182384244944669 
1059	 0.174879409324985 
1060	 0.161377529915913 
1061	 0.157277813583848 
1062	 0.16560009601745 
1063	 0.161639863720616 
1064	 0.161375725170308 
1065	 0.173381224370574 
1066	 0.168157461592169 
1067	 0.16230490238832 
1068	 0.176944201470756 
1069	 0.19764943452216 
1070	 0.207953136273885 
1071	 0.189202568055875 
1072	 0.1765437017823 
1073	 0.172640897933363 
1074	 0.160974531679952 
1075	 0.169791251851047 
