Wavelength	AVEI200209.asd
325	 4.94523611664079E-02 
326	 5.22281983548806E-02 
327	 4.62370786154972E-02 
328	 3.80006957329036E-02 
329	 3.57242688103232E-02 
330	 4.10542451965502E-02 
331	 4.50055057166344E-02 
332	 4.63702071208212E-02 
333	 4.47973540355627E-02 
334	 4.35336024003428E-02 
335	 4.32427299671925E-02 
336	 4.44729296543537E-02 
337	 4.14349820938455E-02 
338	 3.56418485396385E-02 
339	 4.26564073965977E-02 
340	 4.86847223219339E-02 
341	 4.28295584123372E-02 
342	 4.01354542974432E-02 
343	 4.06943779950847E-02 
344	 3.99150571619767E-02 
345	 4.15799271436989E-02 
346	 0.044585493646959 
347	 0.041461939969813 
348	 3.86200173217341E-02 
349	 4.00102263079507E-02 
350	 3.87349524767971E-02 
351	 0.037199373478339 
352	 4.06952733539004E-02 
353	 4.15953395528642E-02 
354	 3.96285204420606E-02 
355	 4.11517930844571E-02 
356	 4.22671889588924E-02 
357	 4.08000300820204E-02 
358	 3.90144880206632E-02 
359	 3.90806775720709E-02 
360	 0.043697752009156 
361	 4.65426872037151E-02 
362	 4.61629323027756E-02 
363	 4.37220089615263E-02 
364	 4.18779319828608E-02 
365	 4.20236380510321E-02 
366	 4.25162793191207E-02 
367	 4.29740932223115E-02 
368	 4.31645778810719E-02 
369	 0.042591648984277 
370	 4.18540049863716E-02 
371	 4.33069720761048E-02 
372	 4.45385951227624E-02 
373	 4.43256402284848E-02 
374	 4.43066646840452E-02 
375	 4.36166791763856E-02 
376	 4.09074558291767E-02 
377	 3.98476188706015E-02 
378	 4.10300629447122E-02 
379	 4.30386214500573E-02 
380	 4.51268483641997E-02 
381	 4.65058159126649E-02 
382	 4.60046941668939E-02 
383	 4.43153857847207E-02 
384	 4.24854219863355E-02 
385	 4.20141282422634E-02 
386	 4.30103289101551E-02 
387	 4.48162545100673E-02 
388	 4.40054706275091E-02 
389	 4.01086702588101E-02 
390	 4.01289961523869E-02 
391	 4.17127445891354E-02 
392	 4.14638822146107E-02 
393	 4.18949822209904E-02 
394	 4.28903877987603E-02 
395	 4.29672077352463E-02 
396	 4.21045646755266E-02 
397	 4.07355169020364E-02 
398	 4.11499637017319E-02 
399	 0.041816526276389 
400	 4.10784630547761E-02 
401	 4.05475978142987E-02 
402	 4.07639483819307E-02 
403	 4.24982885092724E-02 
404	 4.35619019823604E-02 
405	 4.31815525856688E-02 
406	 4.26658228243645E-02 
407	 4.23953892089333E-02 
408	 4.26548672752231E-02 
409	 4.24582322255202E-02 
410	 4.18776502936805E-02 
411	 4.17169653881516E-02 
412	 4.19469520660398E-02 
413	 4.24598049904253E-02 
414	 4.26426734527271E-02 
415	 4.27491893023728E-02 
416	 4.31874596591455E-02 
417	 4.33891866644469E-02 
418	 4.33384223343544E-02 
419	 4.34474452299868E-02 
420	 4.33390720688499E-02 
421	 4.29172689698311E-02 
422	 4.29449531333723E-02 
423	 4.33008160250902E-02 
424	 4.36759110429065E-02 
425	 4.41492667921982E-02 
426	 4.45816600387234E-02 
427	 4.44830708141526E-02 
428	 4.43747224213966E-02 
429	 4.45533075579283E-02 
430	 4.44272381695992E-02 
431	 4.42338227485778E-02 
432	 4.44856424038848E-02 
433	 4.46951480560155E-02 
434	 4.47419325027795E-02 
435	 4.47132879123729E-02 
436	 0.044719261283292 
437	 4.48154452495138E-02 
438	 4.48029101654931E-02 
439	 4.47165406054508E-02 
440	 4.46430244930516E-02 
441	 4.48410566137949E-02 
442	 4.52928230642148E-02 
443	 4.55557753523694E-02 
444	 4.57913149642339E-02 
445	 4.61176734473559E-02 
446	 4.61683025043805E-02 
447	 4.60709931774593E-02 
448	 4.62484365892635E-02 
449	 4.62987155035217E-02 
450	 0.046196297416479 
451	 4.65023009266297E-02 
452	 4.67882986172218E-02 
453	 4.66374076047905E-02 
454	 4.68224665768961E-02 
455	 4.72736405709004E-02 
456	 4.74209158543324E-02 
457	 4.72705501905323E-02 
458	 4.69528676711069E-02 
459	 4.72396052813583E-02 
460	 4.77566158628576E-02 
461	 4.79833037377758E-02 
462	 4.80059554181829E-02 
463	 4.78725118209085E-02 
464	 4.76722499896733E-02 
465	 4.76088925340598E-02 
466	 0.047762556440435 
467	 4.77778118452344E-02 
468	 4.78337842208121E-02 
469	 4.82537530660979E-02 
470	 4.82370831994979E-02 
471	 4.78607082462426E-02 
472	 4.81779693017219E-02 
473	 4.85236673019624E-02 
474	 4.84768696987404E-02 
475	 4.82877596790718E-02 
476	 0.048173636547766 
477	 4.84335072382731E-02 
478	 4.88917085085845E-02 
479	 4.93557579275537E-02 
480	 0.049352406979477 
481	 4.92128782941289E-02 
482	 4.92332755042364E-02 
483	 0.049478745604527 
484	 4.97906181911315E-02 
485	 4.97580254605869E-02 
486	 4.96986519176989E-02 
487	 4.97027216424373E-02 
488	 4.96455787957691E-02 
489	 4.94166151148449E-02 
490	 4.89561689228145E-02 
491	 4.91202330495779E-02 
492	 0.049661143525056 
493	 4.94003179047055E-02 
494	 4.94277244045043E-02 
495	 5.00649073904795E-02 
496	 5.01874181991919E-02 
497	 0.05021722156164 
498	 5.08301861589448E-02 
499	 5.11608181185743E-02 
500	 5.11117183548469E-02 
501	 5.11831230163594E-02 
502	 5.09619415833865E-02 
503	 0.050354824159641 
504	 5.05717230991573E-02 
505	 5.12331264860148E-02 
506	 5.14635431914539E-02 
507	 5.15336816246136E-02 
508	 5.15226815903298E-02 
509	 5.14657403876711E-02 
510	 0.051621485425229 
511	 5.21360836684935E-02 
512	 5.22608127928793E-02 
513	 5.21240010563333E-02 
514	 5.23088347931625E-02 
515	 5.26204460754529E-02 
516	 5.29535157074824E-02 
517	 5.31165931631333E-02 
518	 5.30628187181282E-02 
519	 5.27883920101366E-02 
520	 5.27786607345931E-02 
521	 0.052958010535262 
522	 5.27876282783068E-02 
523	 5.27440176980274E-02 
524	 5.30426681927708E-02 
525	 5.35950569409631E-02 
526	 5.40553256136955E-02 
527	 5.39673675807537E-02 
528	 5.36053165110838E-02 
529	 0.05328106056312 
530	 0.05374356088195 
531	 5.41738416260406E-02 
532	 5.40717033687999E-02 
533	 5.41940339908954E-02 
534	 5.44603960023161E-02 
535	 5.45005922607726E-02 
536	 0.054512371274452 
537	 5.45638970108889E-02 
538	 5.46871203227091E-02 
539	 5.47782923899916E-02 
540	 5.47537353184389E-02 
541	 5.49926841617003E-02 
542	 5.53687698287217E-02 
543	 0.055350672897131 
544	 5.53236229632228E-02 
545	 5.54421181164802E-02 
546	 5.55803388675145E-02 
547	 5.57623649858408E-02 
548	 5.60324150448571E-02 
549	 5.59607810824506E-02 
550	 0.055702658454952 
551	 5.61956565986697E-02 
552	 0.056536786440514 
553	 0.056218957079794 
554	 5.60857859895542E-02 
555	 5.62585704231545E-02 
556	 5.67544109095148E-02 
557	 5.70463557382832E-02 
558	 5.70330512929374E-02 
559	 5.72263616319286E-02 
560	 5.73527387890833E-02 
561	 5.71804764382112E-02 
562	 5.73299731210444E-02 
563	 5.76979079553339E-02 
564	 5.77097580148462E-02 
565	 5.77173899444509E-02 
566	 5.78001927894632E-02 
567	 5.75614544869044E-02 
568	 5.73214533224753E-02 
569	 5.75235324444671E-02 
570	 5.78646849896776E-02 
571	 5.81512792215796E-02 
572	 5.80657834391994E-02 
573	 5.77877924754467E-02 
574	 5.75206251546113E-02 
575	 5.79153443857484E-02 
576	 5.85460225876031E-02 
577	 5.84888052007408E-02 
578	 5.82141396606446E-02 
579	 5.80116409406962E-02 
580	 5.84971354059675E-02 
581	 5.89104141440319E-02 
582	 5.85963498789317E-02 
583	 5.82770840733635E-02 
584	 5.81635005034734E-02 
585	 5.84088407115543E-02 
586	 5.88330885805613E-02 
587	 0.059242959928211 
588	 5.90319559465429E-02 
589	 5.86728748665168E-02 
590	 5.88647390873724E-02 
591	 5.89090558581163E-02 
592	 5.87889045002473E-02 
593	 5.90075741946198E-02 
594	 5.92564797648961E-02 
595	 5.93294086605361E-02 
596	 5.91160017424649E-02 
597	 5.88544767267384E-02 
598	 0.058964286860879 
599	 5.92821242592705E-02 
600	 0.05963465311747 
601	 5.95640594557393E-02 
602	 0.059228542305632 
603	 5.88474829742481E-02 
604	 5.91692364903684E-02 
605	 0.059850635679361 
606	 5.96928417011163E-02 
607	 5.94110622446675E-02 
608	 5.92998870640545E-02 
609	 5.93829559348216E-02 
610	 0.059518527181791 
611	 0.059519974487205 
612	 5.94579678582687E-02 
613	 5.93740866975774E-02 
614	 5.93385954613521E-02 
615	 5.93665086171763E-02 
616	 5.94573691562916E-02 
617	 5.95501112692716E-02 
618	 5.95385953950644E-02 
619	 5.92404356670618E-02 
620	 5.91576696128281E-02 
621	 0.05944549335587 
622	 6.00611633879008E-02 
623	 6.04911495909616E-02 
624	 6.02975187699443E-02 
625	 6.00364682155924E-02 
626	 5.99242565121185E-02 
627	 6.02710498367745E-02 
628	 6.02753818454064E-02 
629	 5.97276420032407E-02 
630	 5.95514856273485E-02 
631	 5.95871840261085E-02 
632	 5.95321614334363E-02 
633	 5.96531255543414E-02 
634	 5.99165640348777E-02 
635	 6.00583100266735E-02 
636	 6.01201533376415E-02 
637	 6.01292127658661E-02 
638	 6.01392816118072E-02 
639	 6.01144279518863E-02 
640	 5.99471017825422E-02 
641	 6.00832510026581E-02 
642	 6.05448592677325E-02 
643	 6.08681310116542E-02 
644	 6.07226348881775E-02 
645	 5.99426140180062E-02 
646	 6.02598132240838E-02 
647	 6.12519533837339E-02 
648	 6.08522786068176E-02 
649	 6.05958052810978E-02 
650	 6.09307083875161E-02 
651	 6.07908230692989E-02 
652	 6.05752176032551E-02 
653	 6.08474017409654E-02 
654	 6.11077258874746E-02 
655	 6.11323018452666E-02 
656	 6.05686429870778E-02 
657	 6.00654264819546E-02 
658	 6.00318494771919E-02 
659	 6.01609558693691E-02 
660	 6.03723292990019E-02 
661	 6.06533624169045E-02 
662	 6.03595722827197E-02 
663	 5.96432946934465E-02 
664	 5.99975330549329E-02 
665	 6.04121764711333E-02 
666	 6.00402823071812E-02 
667	 5.96769719544369E-02 
668	 5.94907263535776E-02 
669	 5.95753918663414E-02 
670	 5.94976426503974E-02 
671	 5.91832640658117E-02 
672	 5.92243971785465E-02 
673	 5.94413365858968E-02 
674	 5.95729834681473E-02 
675	 0.059643924083044 
676	 5.97273309718639E-02 
677	 6.00810156843248E-02 
678	 6.03082304837483E-02 
679	 0.060239338692171 
680	 6.03439917088278E-02 
681	 0.060532795703467 
682	 6.05658121815818E-02 
683	 6.07410382760037E-02 
684	 6.10622172852085E-02 
685	 6.11674003709909E-02 
686	 6.14674867439692E-02 
687	 6.22671898801959E-02 
688	 6.24990176258849E-02 
689	 0.062282126031733 
690	 0.062396315001736 
691	 6.25856276842069E-02 
692	 6.28654785813087E-02 
693	 6.36272112055089E-02 
694	 0.064250855195254 
695	 6.40662794400333E-02 
696	 6.34832752545531E-02 
697	 6.30335549142186E-02 
698	 6.39142294177926E-02 
699	 6.44533849834885E-02 
700	 6.39774795989635E-02 
701	 6.39672321480095E-02 
702	 6.44413385751465E-02 
703	 6.51919568108821E-02 
704	 6.49684442453951E-02 
705	 6.40728020835422E-02 
706	 6.46596956643929E-02 
707	 6.53993389323837E-02 
708	 6.54288250373291E-02 
709	 0.065213945659768 
710	 0.065019512831286 
711	 6.51864742650495E-02 
712	 6.56754381366667E-02 
713	 6.62806974215517E-02 
714	 6.61719329837099E-02 
715	 6.60492356380197E-02 
716	 6.65693373190484E-02 
717	 6.66053416054667E-02 
718	 6.62190797448832E-02 
719	 6.65628673535722E-02 
720	 6.68643250411928E-02 
721	 6.68947586297429E-02 
722	 6.71548620439161E-02 
723	 6.72260779090067E-02 
724	 6.65884815895568E-02 
725	 0.066294869811879 
726	 6.65274642796636E-02 
727	 0.066885414264974 
728	 6.72002142610675E-02 
729	 6.73580627928288E-02 
730	 0.067436897240911 
731	 6.73681742925889E-02 
732	 6.70527081924564E-02 
733	 0.067098906431132 
734	 6.74616143305726E-02 
735	 0.06747454852325 
736	 6.76287574141958E-02 
737	 6.81934858769545E-02 
738	 6.86591881878151E-02 
739	 6.87051010743497E-02 
740	 6.78386582247335E-02 
741	 6.75034675774483E-02 
742	 6.79635298578492E-02 
743	 6.81364786004038E-02 
744	 0.06833825932289 
745	 6.88156857777467E-02 
746	 6.89157433479763E-02 
747	 6.86260650390221E-02 
748	 6.80570508288891E-02 
749	 6.82697772821719E-02 
750	 6.93365904053698E-02 
751	 6.92218819904229E-02 
752	 6.88347526656956E-02 
753	 6.92541854218162E-02 
754	 6.92981159559036E-02 
755	 6.90149574561588E-02 
756	 6.92376903438776E-02 
757	 6.93453901196998E-02 
758	 6.91002517817297E-02 
759	 6.88973692429914E-02 
760	 6.91998020104141E-02 
761	 7.09119972847432E-02 
762	 7.12188405539288E-02 
763	 7.02946889001266E-02 
764	 7.05288057959869E-02 
765	 7.08154534242589E-02 
766	 7.07688170816193E-02 
767	 0.070505337160482 
768	 7.02308272227303E-02 
769	 7.01554557661811E-02 
770	 7.02280647925601E-02 
771	 7.03671924147026E-02 
772	 7.03387859196483E-02 
773	 7.01806386440148E-02 
774	 6.99847703384273E-02 
775	 7.02705535199182E-02 
776	 7.08338068378398E-02 
777	 7.12065800171325E-02 
778	 0.071262395365739 
779	 7.10273515699662E-02 
780	 7.08276283392881E-02 
781	 7.08349903348398E-02 
782	 7.11548701289348E-02 
783	 7.15343082361937E-02 
784	 7.16728127730434E-02 
785	 7.09704714266981E-02 
786	 7.09355794632053E-02 
787	 7.17982798744822E-02 
788	 7.19611293028714E-02 
789	 7.16669787645172E-02 
790	 7.12911862291614E-02 
791	 7.17578499892433E-02 
792	 7.25929519396887E-02 
793	 7.21698883405275E-02 
794	 7.19887434651488E-02 
795	 7.23949549165695E-02 
796	 7.22420028065784E-02 
797	 7.21031848922282E-02 
798	 7.25597820545179E-02 
799	 0.072522898862214 
800	 7.20440305364525E-02 
801	 7.18110790453943E-02 
802	 7.17647639154547E-02 
803	 7.19893000834874E-02 
804	 7.29524429578853E-02 
805	 7.35907623161344E-02 
806	 7.28320091076873E-02 
807	 7.26116197758232E-02 
808	 7.29144173592672E-02 
809	 0.072408438748773 
810	 7.22051062720625E-02 
811	 7.26618307257932E-02 
812	 0.072748463773922 
813	 0.072582686450596 
814	 7.24567826158807E-02 
815	 7.27849835547818E-02 
816	 7.35186184595957E-02 
817	 7.41346820819458E-02 
818	 7.43925957496657E-02 
819	 7.41191103437227E-02 
820	 7.29030823529883E-02 
821	 7.20781255407901E-02 
822	 7.31902660417066E-02 
823	 7.39989289454069E-02 
824	 7.41204679156345E-02 
825	 7.42496998363448E-02 
826	 7.39483753021015E-02 
827	 7.32604253565768E-02 
828	 7.34668473288954E-02 
829	 7.42423552132457E-02 
830	 7.49853890037342E-02 
831	 7.49335805159985E-02 
832	 7.45024114214557E-02 
833	 7.55607691120496E-02 
834	 7.57734912383986E-02 
835	 7.44792157607836E-02 
836	 7.39389846116549E-02 
837	 7.40981585716028E-02 
838	 7.46337151004312E-02 
839	 7.45136285268892E-02 
840	 7.38701859747124E-02 
841	 0.073720852655579 
842	 7.40092185338781E-02 
843	 7.45730669676058E-02 
844	 7.45567515344425E-02 
845	 7.41236199461923E-02 
846	 7.35727120719926E-02 
847	 7.34148544349147E-02 
848	 7.38078695097822E-02 
849	 7.49442748936133E-02 
850	 7.53920495290474E-02 
851	 0.074657683070928 
852	 7.39042937128337E-02 
853	 0.07366871126999 
854	 7.43603510574452E-02 
855	 7.50640384079133E-02 
856	 7.56027621051061E-02 
857	 0.076327567940428 
858	 7.56209177556312E-02 
859	 7.36818231069207E-02 
860	 7.43361327196506E-02 
861	 7.58694495405558E-02 
862	 7.63755296766903E-02 
863	 7.55018584723641E-02 
864	 7.39658878222452E-02 
865	 7.36063984375836E-02 
866	 7.40223548169467E-02 
867	 7.48540021632244E-02 
868	 7.49831800004536E-02 
869	 7.49486653795114E-02 
870	 7.51644265728973E-02 
871	 7.46530053631458E-02 
872	 7.40437281180206E-02 
873	 7.47886747682745E-02 
874	 0.07585441695962 
875	 7.64779544803675E-02 
876	 7.48252420917697E-02 
877	 0.074383357192094 
878	 7.70487784756662E-02 
879	 7.65582786560506E-02 
880	 7.45322781936829E-02 
881	 7.49864594206762E-02 
882	 0.076038872560066 
883	 0.076931864747624 
884	 7.67822593453393E-02 
885	 7.61982180166776E-02 
886	 7.55815440838848E-02 
887	 0.074860041667072 
888	 7.49153097027252E-02 
889	 7.67990116500061E-02 
890	 0.076485786491344 
891	 7.45936859990626E-02 
892	 7.65327632794835E-02 
893	 7.76391165524117E-02 
894	 7.60665423016511E-02 
895	 7.51332189536813E-02 
896	 7.58613023360947E-02 
897	 7.88635014994482E-02 
898	 0.080189670804192 
899	 7.92391015078678E-02 
900	 7.69832203959865E-02 
901	 7.61805630093886E-02 
902	 7.71435373164037E-02 
903	 7.60345710645056E-02 
904	 7.55431179168147E-02 
905	 7.74924771971467E-02 
906	 0.077980914652867 
907	 7.73288173968794E-02 
908	 0.077183111294505 
909	 7.63408674160333E-02 
910	 7.52344340259524E-02 
911	 0.07672812936815 
912	 7.74157380751818E-02 
913	 0.076034938981349 
914	 0.078632492849057 
915	 8.12790010490568E-02 
916	 7.87838311050301E-02 
917	 0.076031869523608 
918	 7.45747173356454E-02 
919	 7.51976640362138E-02 
920	 7.71608922537003E-02 
921	 7.94434080729159E-02 
922	 7.88562487333808E-02 
923	 7.81511099144986E-02 
924	 7.95745326689605E-02 
925	 7.73137334400669E-02 
926	 7.39133983617471E-02 
927	 7.75665478307857E-02 
928	 7.88918748319709E-02 
929	 7.54364140875672E-02 
930	 7.36168311856691E-02 
931	 7.40938313229618E-02 
932	 7.70317215365911E-02 
933	 7.65911130356752E-02 
934	 7.64012455991124E-02 
935	 8.30167867174581E-02 
936	 8.34478181170136E-02 
937	 7.80004860915444E-02 
938	 7.49377835095781E-02 
939	 7.84390330719295E-02 
940	 8.67243409847362E-02 
941	 8.66473136609907E-02 
942	 8.17836153786664E-02 
943	 7.57188732447645E-02 
944	 7.17138457907617E-02 
945	 7.09469142364642E-02 
946	 7.43692248632659E-02 
947	 7.32817266743047E-02 
948	 0.071022849258117 
949	 8.82575176216999E-02 
950	 9.11713673943297E-02 
951	 7.28981535587834E-02 
952	 7.77581868331868E-02 
953	 8.24844750916394E-02 
954	 6.61959318951532E-02 
955	 6.75294230217204E-02 
956	 8.03886176611393E-02 
957	 8.43999794712991E-02 
958	 0.08188538671865 
959	 7.59535036685086E-02 
960	 7.49447961527501E-02 
961	 8.01175309449059E-02 
962	 8.76051877115695E-02 
963	 7.37791880149578E-02 
964	 5.97145589658197E-02 
965	 0.066405196050206 
966	 7.40203093065815E-02 
967	 7.72901885831749E-02 
968	 7.20148817273988E-02 
969	 0.074403149003021 
970	 0.084725086352674 
971	 8.76154887609315E-02 
972	 8.42682114732831E-02 
973	 7.72230798911761E-02 
974	 7.77765452082158E-02 
975	 8.09346942885825E-02 
976	 0.079968753230483 
977	 7.65204505665193E-02 
978	 7.37626324918616E-02 
979	 7.77271955308606E-02 
980	 8.03621431400927E-02 
981	 0.080431947072584 
982	 8.38966909516701E-02 
983	 8.33190153211756E-02 
984	 7.66475274602262E-02 
985	 0.076432809360619 
986	 8.03999925054937E-02 
987	 8.44029791024176E-02 
988	 8.29569493796487E-02 
989	 7.90474383779642E-02 
990	 8.07575046786522E-02 
991	 7.92829097605705E-02 
992	 7.56520161137931E-02 
993	 8.39050506756368E-02 
994	 8.49881473136201E-02 
995	 7.32302780589069E-02 
996	 7.53424679988919E-02 
997	 8.00511929235118E-02 
998	 7.52546707106026E-02 
999	 7.43165533027818E-02 
1000	 7.71388499298738E-02 
1001	 7.96214366110849E-02 
1002	 8.15980510832633E-02 
1003	 8.22434622911701E-02 
1004	 0.079736150227914 
1005	 7.77315180298151E-02 
1006	 7.85544013704326E-02 
1007	 8.45962679307584E-02 
1008	 0.087885829452357 
1009	 8.33903164114922E-02 
1010	 8.52043692002453E-02 
1011	 8.89213956257732E-02 
1012	 8.62061416976247E-02 
1013	 7.61724908645615E-02 
1014	 6.86257472380676E-02 
1015	 8.91318776324437E-02 
1016	 9.67367104537193E-02 
1017	 8.46008054536422E-02 
1018	 8.08180166346426E-02 
1019	 7.56963772649921E-02 
1020	 6.63358856943649E-02 
1021	 6.99544975356586E-02 
1022	 7.71755743723711E-02 
1023	 7.77864735822711E-02 
1024	 7.75950655222453E-02 
1025	 7.74908463634552E-02 
1026	 7.76177029919969E-02 
1027	 7.74306219759635E-02 
1028	 0.076990825037019 
1029	 0.077283172430475 
1030	 7.36817484153458E-02 
1031	 6.90887781878445E-02 
1032	 8.33937642677725E-02 
1033	 9.56228719873436E-02 
1034	 9.22916048881744E-02 
1035	 8.41488643870194E-02 
1036	 8.05515362924449E-02 
1037	 8.93276156891719E-02 
1038	 9.70448462760973E-02 
1039	 0.101831555431473 
1040	 0.105673336534029 
1041	 9.20586559371112E-02 
1042	 6.80120935543736E-02 
1043	 5.96536823437455E-02 
1044	 6.52599935732851E-02 
1045	 8.19864773727875E-02 
1046	 9.60888028355413E-02 
1047	 0.107124755966247 
1048	 0.112526729003499 
1049	 0.100910897964498 
1050	 8.58141806964839E-02 
1051	 0.082242745965554 
1052	 0.076201842663213 
1053	 7.44391240323039E-02 
1054	 8.82501969941213E-02 
1055	 8.54584714275446E-02 
1056	 7.21872935103055E-02 
1057	 8.12855194710338E-02 
1058	 0.095460368255503 
1059	 0.102864858042094 
1060	 8.09871188719289E-02 
1061	 5.38904830603865E-02 
1062	 3.92634079113275E-02 
1063	 5.97837073790814E-02 
1064	 8.29043841117644E-02 
1065	 0.085150099702259 
1066	 8.80253908857182E-02 
1067	 9.31073893406397E-02 
1068	 9.96556808545274E-02 
1069	 9.75207726275217E-02 
1070	 8.48976393450238E-02 
1071	 6.34065573567551E-02 
1072	 5.43976809429621E-02 
1073	 6.09421539426242E-02 
1074	 7.51190322789513E-02 
1075	 9.81670900875157E-02 
