Wavelength	AVEI200258.asd
325	 5.08106228798196E-02 
326	 4.62619927799992E-02 
327	 0.035191701599276 
328	 3.78147283272838E-02 
329	 4.24188164770681E-02 
330	 4.44586601092293E-02 
331	 4.48476393346241E-02 
332	 4.48112034740026E-02 
333	 4.52881661358645E-02 
334	 4.13756209705366E-02 
335	 3.57167110702919E-02 
336	 3.60259154402933E-02 
337	 0.036103103095163 
338	 3.50558388917557E-02 
339	 3.81064622606645E-02 
340	 4.15338141948976E-02 
341	 4.21308398652787E-02 
342	 4.09830589098805E-02 
343	 3.92966606230407E-02 
344	 3.87407123406295E-02 
345	 3.95455294200349E-02 
346	 0.041447293678271 
347	 4.38839335343919E-02 
348	 4.34856214386812E-02 
349	 3.89393627022673E-02 
350	 3.85000447797954E-02 
351	 4.06743209262068E-02 
352	 4.14954605579295E-02 
353	 3.98464774997593E-02 
354	 3.66511699759879E-02 
355	 3.61076269242857E-02 
356	 3.77111761368041E-02 
357	 4.04829443569373E-02 
358	 0.039963496343664 
359	 3.81590456572502E-02 
360	 0.03890636896324 
361	 3.85790996513535E-02 
362	 3.71115104830814E-02 
363	 3.70511756815761E-02 
364	 0.037806153920631 
365	 3.88492833873361E-02 
366	 3.92945556615423E-02 
367	 3.92020616654687E-02 
368	 3.88024729479626E-02 
369	 3.80309117638992E-02 
370	 3.73045962558674E-02 
371	 3.80253253750656E-02 
372	 3.80663620614415E-02 
373	 3.65316034423469E-02 
374	 3.59475138206547E-02 
375	 3.55430012806455E-02 
376	 0.033907460437672 
377	 3.47536128849849E-02 
378	 3.72759575410329E-02 
379	 3.58213536344845E-02 
380	 3.46564622203521E-02 
381	 3.56938677636612E-02 
382	 3.64720954698301E-02 
383	 3.66054437645317E-02 
384	 3.59291215840731E-02 
385	 3.66279098565751E-02 
386	 3.78102240372699E-02 
387	 3.49583244867765E-02 
388	 3.26419849434733E-02 
389	 3.29623799553327E-02 
390	 3.44653432046047E-02 
391	 3.55744323800846E-02 
392	 3.47567505799878E-02 
393	 3.42151490696505E-02 
394	 3.43871841540825E-02 
395	 3.51868244225343E-02 
396	 3.50966164461878E-02 
397	 3.37711451299375E-02 
398	 0.033229274329641 
399	 3.31232077610913E-02 
400	 0.032877746551293 
401	 3.25592015653242E-02 
402	 3.23572622627373E-02 
403	 0.032830634245789 
404	 3.29514124594464E-02 
405	 3.24249120132652E-02 
406	 3.21906130536296E-02 
407	 3.22949033216976E-02 
408	 0.032675674986821 
409	 3.26972496375713E-02 
410	 0.032329257663204 
411	 3.18834773140642E-02 
412	 3.17655149789398E-02 
413	 3.21205058541358E-02 
414	 3.24747081206874E-02 
415	 3.27587129475517E-02 
416	 3.29622869258387E-02 
417	 3.28648521800166E-02 
418	 3.25923810117054E-02 
419	 3.27012528913419E-02 
420	 3.26745924207064E-02 
421	 3.23257500412499E-02 
422	 3.24293915323721E-02 
423	 3.27451946885247E-02 
424	 3.28181210056534E-02 
425	 3.24350398395749E-02 
426	 3.18317553748847E-02 
427	 3.21141809146357E-02 
428	 3.22465486129494E-02 
429	 3.16500758189757E-02 
430	 0.031389169156334 
431	 3.15534332832703E-02 
432	 3.20602344780122E-02 
433	 3.20824876726283E-02 
434	 3.17454584974333E-02 
435	 3.25369964783911E-02 
436	 3.28653267230651E-02 
437	 3.18766233951837E-02 
438	 3.19713329091745E-02 
439	 3.26906668778216E-02 
440	 3.25995935496343E-02 
441	 3.21338894280509E-02 
442	 3.16137493532814E-02 
443	 3.18287547560745E-02 
444	 3.23375132289623E-02 
445	 0.032719292294607 
446	 3.27572420162817E-02 
447	 3.24922075462298E-02 
448	 3.20453379667755E-02 
449	 3.20453983705197E-02 
450	 3.25071680011916E-02 
451	 3.22658608125681E-02 
452	 3.18300330308293E-02 
453	 3.17613902177081E-02 
454	 3.17465988998181E-02 
455	 3.18448886022556E-02 
456	 0.032442458029231 
457	 3.26514683110447E-02 
458	 3.22153492020297E-02 
459	 3.20092502045277E-02 
460	 3.22136564642043E-02 
461	 3.29128943828978E-02 
462	 3.28363532525774E-02 
463	 3.20428039923842E-02 
464	 3.16743454146157E-02 
465	 3.14717174693405E-02 
466	 3.13693866063708E-02 
467	 3.16552244806482E-02 
468	 3.20307789987075E-02 
469	 3.20299963729662E-02 
470	 3.20112954058614E-02 
471	 0.032147308223039 
472	 3.27685925349239E-02 
473	 3.30182355067174E-02 
474	 3.24619906766234E-02 
475	 3.24101735054209E-02 
476	 3.26116164886342E-02 
477	 3.22841510275362E-02 
478	 3.21765943358788E-02 
479	 3.24315096836013E-02 
480	 3.27432281351331E-02 
481	 3.27892403350533E-02 
482	 3.23846399718507E-02 
483	 3.24919107710428E-02 
484	 3.28982606526183E-02 
485	 3.27063223964689E-02 
486	 3.23204107303468E-02 
487	 3.20463582965249E-02 
488	 3.27031451862668E-02 
489	 3.32924722554171E-02 
490	 3.28075830480904E-02 
491	 3.26049908562282E-02 
492	 3.27952624953986E-02 
493	 3.29647030355653E-02 
494	 3.28877964596831E-02 
495	 3.25317855048416E-02 
496	 3.23608829132889E-02 
497	 3.26697797232199E-02 
498	 3.37640020572123E-02 
499	 3.41386301968752E-02 
500	 3.36925852702815E-02 
501	 3.34598337241588E-02 
502	 3.36512236524507E-02 
503	 3.42654900353385E-02 
504	 3.39873353022679E-02 
505	 3.36657358355334E-02 
506	 3.50267433321264E-02 
507	 3.58234220410681E-02 
508	 3.57005483640726E-02 
509	 3.60264413941863E-02 
510	 3.64034815797179E-02 
511	 3.65110998535209E-02 
512	 3.66790996210089E-02 
513	 3.69969443682258E-02 
514	 3.75480206428291E-02 
515	 3.81281910994536E-02 
516	 3.86292752326063E-02 
517	 3.89791374304537E-02 
518	 3.93267473142605E-02 
519	 3.98257640340761E-02 
520	 4.02030036715721E-02 
521	 4.05274597554176E-02 
522	 4.11834435236855E-02 
523	 4.16036098472293E-02 
524	 4.16909084780855E-02 
525	 4.26752475563337E-02 
526	 4.37465694818998E-02 
527	 4.35886379320826E-02 
528	 4.35825650011229E-02 
529	 4.40776778931232E-02 
530	 0.045018102820823 
531	 4.55725884239697E-02 
532	 4.53209914103732E-02 
533	 4.58667853909817E-02 
534	 4.68009582398498E-02 
535	 4.68605245369557E-02 
536	 4.68400180031715E-02 
537	 4.69947098081358E-02 
538	 0.047239155787794 
539	 4.77574937919889E-02 
540	 4.86643700776984E-02 
541	 4.88989474077971E-02 
542	 4.85944365330075E-02 
543	 4.86474831691907E-02 
544	 4.90073994646873E-02 
545	 4.95631533549483E-02 
546	 0.049566711032428 
547	 4.95250669018048E-02 
548	 5.01813140369958E-02 
549	 5.05082279553432E-02 
550	 5.04480638677734E-02 
551	 0.050720785568644 
552	 5.10154089613053E-02 
553	 5.11521462702743E-02 
554	 5.13700455331036E-02 
555	 5.15472283119905E-02 
556	 5.13728253025807E-02 
557	 0.05150650111002 
558	 5.19890705950293E-02 
559	 5.19992464711668E-02 
560	 5.16760270869983E-02 
561	 5.12361647156648E-02 
562	 5.13647486311244E-02 
563	 5.18545646383947E-02 
564	 5.18415434950705E-02 
565	 5.16155675171418E-02 
566	 5.13241721843373E-02 
567	 5.12512686565177E-02 
568	 5.11846540122977E-02 
569	 5.08186487332907E-02 
570	 5.04298138777557E-02 
571	 5.01278230672752E-02 
572	 5.00273853853808E-02 
573	 4.98719812248785E-02 
574	 4.95333680957142E-02 
575	 4.94234142045676E-02 
576	 4.93213336435695E-02 
577	 4.86965133622948E-02 
578	 0.04842811583898 
579	 4.86724677840408E-02 
580	 4.88048851600576E-02 
581	 4.87489646344827E-02 
582	 4.84872009707948E-02 
583	 4.84715346245855E-02 
584	 4.85811840812989E-02 
585	 4.82390191663978E-02 
586	 4.80715995499379E-02 
587	 4.82469984259617E-02 
588	 0.048167015052221 
589	 4.77861648539489E-02 
590	 0.047144326993436 
591	 4.73980375445151E-02 
592	 4.83168609307197E-02 
593	 4.82170748699786E-02 
594	 4.80061728841485E-02 
595	 4.81416755538185E-02 
596	 4.78243630085747E-02 
597	 4.73874745171899E-02 
598	 4.75919698734432E-02 
599	 4.75507602523769E-02 
600	 4.71961074191083E-02 
601	 4.75096097190041E-02 
602	 4.77585087620412E-02 
603	 4.73250392424122E-02 
604	 4.71909050823045E-02 
605	 4.73861624744724E-02 
606	 4.75884614604794E-02 
607	 4.74913463982605E-02 
608	 4.69833525701776E-02 
609	 4.63140680660766E-02 
610	 4.59921955286502E-02 
611	 4.65911740009111E-02 
612	 4.66115728671869E-02 
613	 4.59829823422497E-02 
614	 4.58368919496467E-02 
615	 4.57426997963142E-02 
616	 4.54881824350656E-02 
617	 4.55177664683053E-02 
618	 4.55911326729387E-02 
619	 4.51709621637257E-02 
620	 4.51064680692139E-02 
621	 0.045476592027073 
622	 0.045479176899594 
623	 4.52533982383309E-02 
624	 4.49685235603299E-02 
625	 4.48636551697382E-02 
626	 4.48774495506505E-02 
627	 4.46363212195186E-02 
628	 4.47528954806059E-02 
629	 0.045320866555773 
630	 4.53670534863929E-02 
631	 4.51171851312499E-02 
632	 4.49650730721306E-02 
633	 4.48560240471142E-02 
634	 4.47976392263496E-02 
635	 4.47726453260409E-02 
636	 4.49189069817145E-02 
637	 4.52020434370461E-02 
638	 4.47333166530948E-02 
639	 4.38577045198647E-02 
640	 4.33694934728631E-02 
641	 4.31589023766085E-02 
642	 4.30627007991709E-02 
643	 4.24490981911786E-02 
644	 4.16202599558889E-02 
645	 4.09390666032381E-02 
646	 4.15361090646305E-02 
647	 4.26382318439341E-02 
648	 4.15945767381821E-02 
649	 4.07918946748725E-02 
650	 4.10447477329438E-02 
651	 4.11468623147769E-02 
652	 0.041020796414259 
653	 4.06928887262462E-02 
654	 4.01570860537238E-02 
655	 3.96060700206739E-02 
656	 3.97037680811527E-02 
657	 3.99797590662082E-02 
658	 4.00652847896705E-02 
659	 3.96836696935224E-02 
660	 3.91863442756055E-02 
661	 3.92143506099066E-02 
662	 3.87090707057543E-02 
663	 3.75993543406139E-02 
664	 3.68218620043581E-02 
665	 3.66391204927978E-02 
666	 3.71592520109418E-02 
667	 3.73430645438228E-02 
668	 3.70752426055395E-02 
669	 3.65096353889807E-02 
670	 3.63675614955807E-02 
671	 3.68403962016701E-02 
672	 3.71770304317465E-02 
673	 3.72401554353487E-02 
674	 3.69703180269469E-02 
675	 3.72004947450909E-02 
676	 3.77428742546545E-02 
677	 3.73013019267044E-02 
678	 3.73047821549203E-02 
679	 3.83321502073139E-02 
680	 3.85938773802597E-02 
681	 3.84124726925618E-02 
682	 3.86236512119242E-02 
683	 3.91918234230307E-02 
684	 4.01103851353852E-02 
685	 4.13537620639624E-02 
686	 4.26336851857563E-02 
687	 4.36459987524985E-02 
688	 4.44031311835264E-02 
689	 4.52934960162474E-02 
690	 4.72912398960133E-02 
691	 4.91880492940489E-02 
692	 5.08050245632348E-02 
693	 5.29733315470887E-02 
694	 5.55612202207383E-02 
695	 5.82512629610968E-02 
696	 6.07746950343225E-02 
697	 6.32338307006487E-02 
698	 6.62383171010689E-02 
699	 6.92420230817049E-02 
700	 7.19482485094891E-02 
701	 0.074531416556455 
702	 7.74496950707343E-02 
703	 8.12992258346049E-02 
704	 8.44917943308735E-02 
705	 8.69599568027408E-02 
706	 8.97621982613671E-02 
707	 9.28508931914029E-02 
708	 9.61546118833505E-02 
709	 9.94982491877525E-02 
710	 0.102552715107183 
711	 0.104735455991851 
712	 0.107450680262252 
713	 0.110820150086993 
714	 0.113445565089026 
715	 0.115415429830456 
716	 0.116985323174988 
717	 0.118871992630945 
718	 0.121451284162588 
719	 0.124731126174181 
720	 0.127356304315888 
721	 0.12898976442024 
722	 0.131490167828539 
723	 0.134003473234888 
724	 0.135262834950416 
725	 0.136068545421426 
726	 0.136937884324414 
727	 0.139084742145158 
728	 0.140873430891305 
729	 0.141661626915435 
730	 0.143222386428499 
731	 0.144945000925265 
732	 0.14576274275677 
733	 0.146355373829261 
734	 0.146973075878048 
735	 0.147773410995902 
736	 0.148648569068933 
737	 0.149492698495232 
738	 0.150249880205183 
739	 0.151165547006793 
740	 0.152754552991073 
741	 0.153843743212946 
742	 0.154100415481926 
743	 0.153767247377211 
744	 0.153859797768319 
745	 0.155142546932389 
746	 0.156247784143703 
747	 0.156921610591205 
748	 0.157135834827573 
749	 0.157678412448452 
750	 0.158710364232165 
751	 0.159335701721105 
752	 0.159577676230402 
753	 0.15955961389687 
754	 0.159715607973564 
755	 0.160123587647203 
756	 0.160667455074095 
757	 0.161338562480731 
758	 0.16211480774839 
759	 0.162547781167862 
760	 0.162502463137911 
761	 0.161729716874539 
762	 0.162498966869499 
763	 0.164005062536821 
764	 0.163138895968487 
765	 0.162754298676368 
766	 0.163610392082006 
767	 0.164344145456628 
768	 0.165060657381295 
769	 0.166017239218609 
770	 0.166488901791679 
771	 0.166600487079576 
772	 0.167533816876054 
773	 0.168323007688812 
774	 0.168360830906117 
775	 0.168391867562417 
776	 0.168500744908678 
777	 0.168625625936587 
778	 0.168842870656861 
779	 0.169217279752749 
780	 0.169884415631354 
781	 0.170640408393107 
782	 0.171285609444094 
783	 0.171582269935144 
784	 0.171652641545891 
785	 0.171783456830278 
786	 0.172401284550176 
787	 0.173444084608951 
788	 0.173843479402629 
789	 0.173815438937263 
790	 0.173679541289329 
791	 0.174206540543456 
792	 0.175086049398506 
793	 0.175225842328508 
794	 0.175041441977652 
795	 0.174887295030992 
796	 0.175896926189212 
797	 0.176690459898008 
798	 0.175926135429124 
799	 0.175522867770033 
800	 0.175771129405048 
801	 0.176388579848811 
802	 0.176888030493271 
803	 0.177049734083636 
804	 0.177062840376467 
805	 0.177219218452052 
806	 0.177814999520324 
807	 0.178987750574 
808	 0.180149171289892 
809	 0.179517884982546 
810	 0.179038615569575 
811	 0.179607532148448 
812	 0.180813093111785 
813	 0.181903713559203 
814	 0.181914044995621 
815	 0.182254124452433 
816	 0.18274673033387 
817	 0.181559020343728 
818	 0.180916912956613 
819	 0.181827019413506 
820	 0.183977532396955 
821	 0.185770708058209 
822	 0.185398317169299 
823	 0.184076362382763 
824	 0.183108332021087 
825	 0.185048466783364 
826	 0.186830863522818 
827	 0.18716183992098 
828	 0.186594914296869 
829	 0.186225428779396 
830	 0.187276295191984 
831	 0.187796346424902 
832	 0.187741913900934 
833	 0.188331853797761 
834	 0.188743126614468 
835	 0.188695174633281 
836	 0.188702736097594 
837	 0.188613582082678 
838	 0.188243847696446 
839	 0.188679459868461 
840	 0.189652561781165 
841	 0.189787085239328 
842	 0.189670427589516 
843	 0.189626126240459 
844	 0.190158702051753 
845	 0.190463085856523 
846	 0.189675223815359 
847	 0.189652890370312 
848	 0.190517860558091 
849	 0.191577206380664 
850	 0.191776723601755 
851	 0.190810634809718 
852	 0.189939631710783 
853	 0.190021640664941 
854	 0.19164891804869 
855	 0.191601598921727 
856	 0.19040366799536 
857	 0.191135514508434 
858	 0.191371105348135 
859	 0.190734889635069 
860	 0.191413742236893 
861	 0.192767646554713 
862	 0.193993586991851 
863	 0.194199926357171 
864	 0.193764711945641 
865	 0.194014319674907 
866	 0.194539168264718 
867	 0.194938591455235 
868	 0.193827155054244 
869	 0.19329089454413 
870	 0.19483250711695 
871	 0.195193204222934 
872	 0.195480177993969 
873	 0.199017440787549 
874	 0.199879393603551 
875	 0.197493656376944 
876	 0.197492550748318 
877	 0.197792496702602 
878	 0.197233779344261 
879	 0.199676340212398 
880	 0.202328999656885 
881	 0.199938131060177 
882	 0.199486886333329 
883	 0.201744549892386 
884	 0.202385224409242 
885	 0.202453115188657 
886	 0.202615874191319 
887	 0.203470104578237 
888	 0.204422242948516 
889	 0.204618485432327 
890	 0.205407575279414 
891	 0.206331345337474 
892	 0.204635035113111 
893	 0.204472744675444 
894	 0.207383784406262 
895	 0.208995941237586 
896	 0.209131844722585 
897	 0.208119341648637 
898	 0.206973981533659 
899	 0.206866823957903 
900	 0.209938241860896 
901	 0.211177787130769 
902	 0.209736606806769 
903	 0.210307906894319 
904	 0.210461682871127 
905	 0.20830008981546 
906	 0.205012078722295 
907	 0.203043120880463 
908	 0.206396367581862 
909	 0.209032260376189 
910	 0.209244789285145 
911	 0.208101266810197 
912	 0.208558878529637 
913	 0.211689651471347 
914	 0.212238740984615 
915	 0.211089957190466 
916	 0.210054103099056 
917	 0.208495351111168 
918	 0.207758083232735 
919	 0.211687531523784 
920	 0.214455633039071 
921	 0.214087702040236 
922	 0.212278755039611 
923	 0.211133616006876 
924	 0.212218195008834 
925	 0.211199088890143 
926	 0.208987292889416 
927	 0.209251994892353 
928	 0.212832675641308 
929	 0.216977358165967 
930	 0.205645626025334 
931	 0.197482106330161 
932	 0.206967767182243 
933	 0.208647891392083 
934	 0.201626529940549 
935	 0.19185152858632 
936	 0.195050876256735 
937	 0.204581772262052 
938	 0.192319520453668 
939	 0.185093619367045 
940	 0.189301859855604 
941	 0.193385824146052 
942	 0.193568667694298 
943	 0.188238254914727 
944	 0.186038140095676 
945	 0.18500397010429 
946	 0.179993058840999 
947	 0.180692705214425 
948	 0.186462745051468 
949	 0.188072421059077 
950	 0.186296537995214 
951	 0.181835250103921 
952	 0.177096761433681 
953	 0.174314859812381 
954	 0.17491794727654 
955	 0.17344643332052 
956	 0.17391593932142 
957	 0.185724926001638 
958	 0.181860930504491 
959	 0.164667408997186 
960	 0.163301309554456 
961	 0.167379025849479 
962	 0.170531583266565 
963	 0.1678828206517 
964	 0.162917914902566 
965	 0.159901970740651 
966	 0.165111902567304 
967	 0.172946162821973 
968	 0.171372039804487 
969	 0.16630572242113 
970	 0.161911225984117 
971	 0.167488157414992 
972	 0.170868698203515 
973	 0.166994711023496 
974	 0.169071790955793 
975	 0.172511971425115 
976	 0.171311860347522 
977	 0.173112037402537 
978	 0.175429386710157 
979	 0.169924733939833 
980	 0.168173209163993 
981	 0.172396006998544 
982	 0.177257686032229 
983	 0.180136149436136 
984	 0.179828652619372 
985	 0.178222670086593 
986	 0.178177153400501 
987	 0.18194682547641 
988	 0.181355966269019 
989	 0.177506610263932 
990	 0.175535933382155 
991	 0.174460928629095 
992	 0.174233024030365 
993	 0.174627188682618 
994	 0.176456712927924 
995	 0.17981302121846 
996	 0.183536044168644 
997	 0.184905409198596 
998	 0.181891678455016 
999	 0.178721282496586 
1000	 0.18033496101141 
1001	 0.193419531717404 
1002	 0.193204760489905 
1003	 0.181387925241602 
1004	 0.187473722425808 
1005	 0.192810595907712 
1006	 0.191314980661651 
1007	 0.190620335519127 
1008	 0.191217470576284 
1009	 0.192412687532776 
1010	 0.18625493107401 
1011	 0.181419721590972 
1012	 0.190505993249047 
1013	 0.185463499417396 
1014	 0.173565043383005 
1015	 0.188125040108241 
1016	 0.197599701805851 
1017	 0.194478858017306 
1018	 0.190499542641693 
1019	 0.189240113832843 
1020	 0.192136656728677 
1021	 0.19373020661746 
1022	 0.195380079846488 
1023	 0.19870212356912 
1024	 0.204608540089537 
1025	 0.206750829013486 
1026	 0.194452011169965 
1027	 0.183361223407575 
1028	 0.180910524592344 
1029	 0.196214128539025 
1030	 0.206542212187016 
1031	 0.205241216912898 
1032	 0.202948743375465 
1033	 0.208679622721054 
1034	 0.224173377137154 
1035	 0.220853645289875 
1036	 0.209117010880903 
1037	 0.202346126638815 
1038	 0.189698749695034 
1039	 0.181612876429575 
1040	 0.19544566673208 
1041	 0.204751979933316 
1042	 0.204398183305991 
1043	 0.202401408861297 
1044	 0.207669911612322 
1045	 0.218296284206024 
1046	 0.20952172836039 
1047	 0.203793845174721 
1048	 0.21435308046276 
1049	 0.228484807217349 
1050	 0.239992312267388 
1051	 0.242684622398822 
1052	 0.235258117416461 
1053	 0.217335294846443 
1054	 0.192247106766388 
1055	 0.185937213670798 
1056	 0.199591140512243 
1057	 0.224903103314139 
1058	 0.218417840472716 
1059	 0.184153362827666 
1060	 0.210856690543851 
1061	 0.220982649547966 
1062	 0.195906925282414 
1063	 0.224036116300003 
1064	 0.242955680440197 
1065	 0.211537073407412 
1066	 0.198959017668136 
1067	 0.191332798969817 
1068	 0.167926161886111 
1069	 0.180231886769562 
1070	 0.205192831553776 
1071	 0.192854776096501 
1072	 0.211751049482411 
1073	 0.23893904717511 
1074	 0.177150679482717 
1075	 0.165897899499246 
