Wavelength	AVEI200098.asd
325	 2.31459446400001E-02 
326	 0.024060927091757 
327	 0.032647970113301 
328	 2.98269488260819E-02 
329	 2.77939361894426E-02 
330	 2.99484472483283E-02 
331	 2.87336207508525E-02 
332	 2.65147387696859E-02 
333	 2.59890711349709E-02 
334	 2.81812618058424E-02 
335	 3.08318607490782E-02 
336	 2.84214854654193E-02 
337	 2.62273696290373E-02 
338	 2.57395219054097E-02 
339	 2.50262040631366E-02 
340	 2.59811324526768E-02 
341	 2.95837700310514E-02 
342	 2.86479873711961E-02 
343	 2.52514619597474E-02 
344	 2.54340774378119E-02 
345	 2.48288443200541E-02 
346	 2.31666210429126E-02 
347	 0.024027421722041 
348	 2.39140804466368E-02 
349	 2.11178065897709E-02 
350	 2.26631743036974E-02 
351	 2.56856734877555E-02 
352	 2.43987125897709E-02 
353	 2.41765108470256E-02 
354	 2.51228452494776E-02 
355	 2.24228772585594E-02 
356	 2.10954146413323E-02 
357	 2.36224698147895E-02 
358	 2.40513122864257E-02 
359	 2.33858958509359E-02 
360	 2.42878043866128E-02 
361	 2.29180436938409E-02 
362	 2.01563945353173E-02 
363	 2.19882453645893E-02 
364	 2.36333660026282E-02 
365	 2.27489538265125E-02 
366	 2.25067222745077E-02 
367	 2.24412582124443E-02 
368	 2.15035337185954E-02 
369	 2.17948659099872E-02 
370	 2.30909179533161E-02 
371	 2.30634268436803E-02 
372	 2.29571174410592E-02 
373	 2.31867527517804E-02 
374	 2.18102031327083E-02 
375	 0.020331386771006 
376	 2.09915487070327E-02 
377	 2.21116503949648E-02 
378	 2.27977117557618E-02 
379	 2.15706952043093E-02 
380	 2.07751986012668E-02 
381	 2.15023522730644E-02 
382	 2.21650300935272E-02 
383	 2.24245685208321E-02 
384	 2.20650210522484E-02 
385	 2.17738204086748E-02 
386	 2.19877688963436E-02 
387	 2.36860824968946E-02 
388	 2.37014675128515E-02 
389	 0.021317761380224 
390	 2.16406083866314E-02 
391	 2.28335372397657E-02 
392	 2.22885808475081E-02 
393	 2.17999370308594E-02 
394	 0.021697860647161 
395	 2.18945221548688E-02 
396	 2.18817547923041E-02 
397	 2.15092695693766E-02 
398	 2.12352109743889E-02 
399	 2.12799625099887E-02 
400	 2.17774735190811E-02 
401	 2.21156029121104E-02 
402	 0.022190058653435 
403	 2.21128849947067E-02 
404	 2.17365182375604E-02 
405	 2.11690846648608E-02 
406	 2.14145644875078E-02 
407	 2.17718039386676E-02 
408	 2.13027392934888E-02 
409	 2.10890239827647E-02 
410	 2.11878546259276E-02 
411	 2.10630990318122E-02 
412	 2.07681331784678E-02 
413	 2.04453538666557E-02 
414	 0.020816193949365 
415	 2.14136427307079E-02 
416	 2.15695490919123E-02 
417	 2.12831663576394E-02 
418	 2.08850262052177E-02 
419	 2.14021613809465E-02 
420	 2.19559277722107E-02 
421	 2.20127791758493E-02 
422	 2.14352335136496E-02 
423	 2.08998841485828E-02 
424	 2.13866560190561E-02 
425	 2.16938369690309E-02 
426	 2.15613994853637E-02 
427	 2.12163656070677E-02 
428	 2.10766833689098E-02 
429	 2.13613308181205E-02 
430	 2.13998989527297E-02 
431	 2.13479677508958E-02 
432	 2.16404753419894E-02 
433	 2.15206150176951E-02 
434	 2.10682216162435E-02 
435	 2.13305814503292E-02 
436	 2.15886781281986E-02 
437	 0.021393182043187 
438	 2.12794339378703E-02 
439	 2.13398518182717E-02 
440	 2.16067851906371E-02 
441	 2.18691678946615E-02 
442	 2.20483257890658E-02 
443	 2.22097914119629E-02 
444	 2.21682657754254E-02 
445	 2.18278721052693E-02 
446	 2.18686716072942E-02 
447	 2.20774778326304E-02 
448	 2.16832299129193E-02 
449	 2.15170306968319E-02 
450	 2.17433296928545E-02 
451	 0.021680431012041 
452	 2.15874119132881E-02 
453	 2.17512114387114E-02 
454	 0.022041658022884 
455	 2.22705261146167E-02 
456	 2.19465301109785E-02 
457	 0.021947504859197 
458	 2.24901928558754E-02 
459	 2.25193533903426E-02 
460	 2.22673062461934E-02 
461	 2.21203156929077E-02 
462	 2.22427631508846E-02 
463	 2.24720768707263E-02 
464	 0.022108857303831 
465	 2.19807628044699E-02 
466	 2.24155916859536E-02 
467	 2.24836891007264E-02 
468	 2.22528446763936E-02 
469	 2.19798056969158E-02 
470	 2.19876227906795E-02 
471	 2.22633793942089E-02 
472	 2.24029698791906E-02 
473	 2.24288684914689E-02 
474	 2.24002465441793E-02 
475	 2.27430829848359E-02 
476	 0.023104422988041 
477	 2.27681720102608E-02 
478	 2.25013150931228E-02 
479	 2.25237455834729E-02 
480	 2.26837368576288E-02 
481	 2.28919608442027E-02 
482	 2.30692844684711E-02 
483	 2.31841086609172E-02 
484	 2.32036701668197E-02 
485	 2.30539394849916E-02 
486	 0.0229713126587 
487	 0.023054163224889 
488	 2.32838205643233E-02 
489	 2.33674640355925E-02 
490	 2.30490185228261E-02 
491	 2.30736697214878E-02 
492	 2.33757840250189E-02 
493	 2.33638207556049E-02 
494	 2.33486249610533E-02 
495	 2.34322284070015E-02 
496	 2.34321876596814E-02 
497	 2.33546941702293E-02 
498	 2.32269369473718E-02 
499	 0.023391941952548 
500	 2.38106473618315E-02 
501	 2.40858695906487E-02 
502	 2.41053555602311E-02 
503	 0.023875390253623 
504	 2.40797729515943E-02 
505	 2.43637695945128E-02 
506	 2.39692889637453E-02 
507	 2.38236018035444E-02 
508	 2.41055723493179E-02 
509	 2.44021171572247E-02 
510	 2.45935684120687E-02 
511	 0.024613852650466 
512	 2.48123031001871E-02 
513	 2.50288378581647E-02 
514	 2.46989896177773E-02 
515	 0.0246231113028 
516	 2.50363778836053E-02 
517	 2.54910253681423E-02 
518	 2.57008330899154E-02 
519	 2.54273018582874E-02 
520	 2.53071101177136E-02 
521	 2.54410315367756E-02 
522	 2.56783135352829E-02 
523	 2.59581038449724E-02 
524	 2.62404279583191E-02 
525	 2.65650178851196E-02 
526	 2.67608270638399E-02 
527	 2.65778969982721E-02 
528	 2.67839557514242E-02 
529	 2.73052755276605E-02 
530	 2.71401300325612E-02 
531	 2.69778176857242E-02 
532	 2.72558089468453E-02 
533	 2.74928617953052E-02 
534	 2.76585887923349E-02 
535	 2.78471838013289E-02 
536	 2.79070434761882E-02 
537	 0.027858849828063 
538	 2.80268774762155E-02 
539	 2.81967618955785E-02 
540	 2.81621872482998E-02 
541	 0.028302345852852 
542	 2.85015049621751E-02 
543	 2.82270724427438E-02 
544	 2.80592338471215E-02 
545	 2.82514373898218E-02 
546	 2.87347669529136E-02 
547	 2.90585065703633E-02 
548	 2.86603370065408E-02 
549	 2.86540421843203E-02 
550	 2.90996084312218E-02 
551	 2.91686580985311E-02 
552	 2.92089346551417E-02 
553	 2.94069046902169E-02 
554	 2.94112824849081E-02 
555	 2.93486385171955E-02 
556	 2.95325457638116E-02 
557	 2.97955144412374E-02 
558	 2.99965391535295E-02 
559	 0.029755657982322 
560	 2.95285358103421E-02 
561	 2.97376413951734E-02 
562	 3.00382537565824E-02 
563	 3.02865483860755E-02 
564	 3.02965854752945E-02 
565	 3.03043673783145E-02 
566	 3.03813404239149E-02 
567	 3.03125359647058E-02 
568	 3.02061945858408E-02 
569	 3.02212528438066E-02 
570	 3.01615723117777E-02 
571	 3.00592788807736E-02 
572	 3.01612997153769E-02 
573	 3.03742068447254E-02 
574	 3.06185220420076E-02 
575	 3.07645504048021E-02 
576	 3.08143493771505E-02 
577	 3.08312536439652E-02 
578	 3.05852942891417E-02 
579	 3.01852229329055E-02 
580	 3.03628577823245E-02 
581	 3.06873577555646E-02 
582	 3.07601047163926E-02 
583	 3.08482654083092E-02 
584	 3.09811701330854E-02 
585	 3.11394340089043E-02 
586	 3.12458765604896E-02 
587	 3.12398272632644E-02 
588	 3.09870420300976E-02 
589	 3.07533232998243E-02 
590	 3.09005057994321E-02 
591	 3.11324230396072E-02 
592	 3.13370470679368E-02 
593	 3.14484726231261E-02 
594	 3.15166250779818E-02 
595	 3.15764241894248E-02 
596	 3.16396843927774E-02 
597	 3.17395728819861E-02 
598	 3.19489565041683E-02 
599	 3.18603359943345E-02 
600	 3.15557406500584E-02 
601	 3.19751862497998E-02 
602	 3.24225260297292E-02 
603	 3.22932268526598E-02 
604	 3.24246969305793E-02 
605	 3.27119148985123E-02 
606	 3.24953130790965E-02 
607	 3.23040677249593E-02 
608	 3.23594584905965E-02 
609	 3.26310521453441E-02 
610	 3.28372470898728E-02 
611	 3.26382569995419E-02 
612	 3.28471796054536E-02 
613	 3.33743893576699E-02 
614	 3.32397808872344E-02 
615	 3.29946656346122E-02 
616	 3.29879719093088E-02 
617	 3.31412402397899E-02 
618	 3.32846662734237E-02 
619	 3.31180952379008E-02 
620	 3.32456464270853E-02 
621	 3.36585682062966E-02 
622	 0.033488531662973 
623	 3.32121010286186E-02 
624	 3.32862207717448E-02 
625	 3.35460997188424E-02 
626	 3.38762268951974E-02 
627	 3.41129080493204E-02 
628	 3.40611130422476E-02 
629	 3.37424238616488E-02 
630	 3.38351435688612E-02 
631	 0.034063305728719 
632	 3.40113508017694E-02 
633	 3.42729498753389E-02 
634	 3.47912651222221E-02 
635	 3.49191422532857E-02 
636	 0.035123367276934 
637	 3.55762745344168E-02 
638	 3.53168543168185E-02 
639	 3.48508421662041E-02 
640	 3.53029163811311E-02 
641	 3.55371803242328E-02 
642	 3.53227185944682E-02 
643	 3.52860143252736E-02 
644	 0.035289339596186 
645	 3.52067031245383E-02 
646	 3.51965215139306E-02 
647	 3.53634285688654E-02 
648	 3.59437517437269E-02 
649	 3.63504175181541E-02 
650	 0.036330702508928 
651	 3.61077157994393E-02 
652	 3.57855850101815E-02 
653	 3.54614274714916E-02 
654	 3.52997339188751E-02 
655	 3.53903610104528E-02 
656	 3.58771090178674E-02 
657	 3.62986091802438E-02 
658	 3.63361868308074E-02 
659	 3.60516276785834E-02 
660	 3.57317416375666E-02 
661	 3.57962629519952E-02 
662	 3.58888022890602E-02 
663	 3.58844084719148E-02 
664	 3.56907483741338E-02 
665	 3.56206433034386E-02 
666	 3.58974321687806E-02 
667	 3.59086676967355E-02 
668	 3.56885189653898E-02 
669	 3.55641932474814E-02 
670	 3.55722427366229E-02 
671	 3.57574830675979E-02 
672	 3.61978191191574E-02 
673	 3.65074711354028E-02 
674	 3.62676535982663E-02 
675	 0.036272056626284 
676	 0.036583421504499 
677	 3.67864105496888E-02 
678	 3.70016826499695E-02 
679	 3.72730578991684E-02 
680	 3.75003821447683E-02 
681	 3.76868770995782E-02 
682	 0.037856448975607 
683	 3.80172167516845E-02 
684	 0.038252613673976 
685	 3.88910358757615E-02 
686	 3.95384777133343E-02 
687	 3.98529457560507E-02 
688	 4.03502849446109E-02 
689	 4.10265201069864E-02 
690	 0.041764660073203 
691	 4.24124520061431E-02 
692	 4.29693026863291E-02 
693	 4.36538467798916E-02 
694	 4.42791900939521E-02 
695	 0.044638266062693 
696	 4.54481278611338E-02 
697	 4.66112045401005E-02 
698	 0.047565461719155 
699	 4.83506309912926E-02 
700	 4.90633203660519E-02 
701	 5.04724563473849E-02 
702	 5.19568344207619E-02 
703	 5.25735126002372E-02 
704	 0.053127990052166 
705	 5.39143412937271E-02 
706	 5.52148664188363E-02 
707	 5.62249875840448E-02 
708	 5.65253302443978E-02 
709	 5.73858884677229E-02 
710	 5.84868711324022E-02 
711	 5.88694332495431E-02 
712	 5.96367144487545E-02 
713	 6.09006876733024E-02 
714	 6.16429400657207E-02 
715	 6.20633833150274E-02 
716	 6.24121692880091E-02 
717	 6.28089273456047E-02 
718	 6.33490856636208E-02 
719	 6.39942083590582E-02 
720	 6.48880963238016E-02 
721	 6.58845146659691E-02 
722	 6.65797861097199E-02 
723	 6.72353380587795E-02 
724	 6.80910610868892E-02 
725	 6.85193033025322E-02 
726	 6.85645839585395E-02 
727	 0.068969598777506 
728	 6.94219454531351E-02 
729	 6.98221238405401E-02 
730	 7.04972154546763E-02 
731	 7.12800819982146E-02 
732	 7.19044149041889E-02 
733	 0.072268035921806 
734	 0.072500267505583 
735	 7.30213602331832E-02 
736	 7.37231498817737E-02 
737	 7.44863436055692E-02 
738	 7.51440126098242E-02 
739	 7.56191172043767E-02 
740	 7.58114322629411E-02 
741	 7.61336263928896E-02 
742	 7.67306619523852E-02 
743	 7.75903940843874E-02 
744	 0.078349481111842 
745	 7.87108811642688E-02 
746	 7.88389151003485E-02 
747	 7.89210658619067E-02 
748	 7.93110288449652E-02 
749	 7.96958921461976E-02 
750	 8.00241704225134E-02 
751	 8.06333190261461E-02 
752	 8.13087841806583E-02 
753	 8.17904533974859E-02 
754	 8.18338532002607E-02 
755	 8.17110483572615E-02 
756	 8.24133638188835E-02 
757	 8.26305643475693E-02 
758	 8.19289627653172E-02 
759	 8.21140091967397E-02 
760	 0.083578464110626 
761	 8.52630081728557E-02 
762	 8.53309962734158E-02 
763	 8.44486246417255E-02 
764	 8.50940439360133E-02 
765	 8.58257916345328E-02 
766	 8.61567567379889E-02 
767	 0.086563960895843 
768	 8.69325646562215E-02 
769	 8.70659211620654E-02 
770	 8.76249943274278E-02 
771	 8.85196163434782E-02 
772	 8.88506186531155E-02 
773	 8.90367486089795E-02 
774	 8.93731776928642E-02 
775	 8.98477543951351E-02 
776	 9.03520685453302E-02 
777	 9.06761684775461E-02 
778	 9.12518180762949E-02 
779	 9.20134256390599E-02 
780	 9.21303048564946E-02 
781	 9.22058566265115E-02 
782	 9.27090754897304E-02 
783	 0.093106536036836 
784	 9.33291532893423E-02 
785	 9.33879338078539E-02 
786	 9.36375063105319E-02 
787	 9.41773263802329E-02 
788	 9.47997247619071E-02 
789	 0.09527953802372 
790	 9.54415533696209E-02 
791	 9.57933526132714E-02 
792	 9.62975587597548E-02 
793	 9.66130407252464E-02 
794	 9.69631684146568E-02 
795	 9.74065880395118E-02 
796	 9.78435189684786E-02 
797	 9.82341221085215E-02 
798	 9.85477890474449E-02 
799	 9.88137491614768E-02 
800	 9.91198074950786E-02 
801	 0.099709468244589 
802	 0.1000277550752 
803	 0.100040411844132 
804	 0.100908889044222 
805	 0.101799540743121 
806	 0.101790983438468 
807	 0.102329405275247 
808	 0.103078891886667 
809	 0.102039921368688 
810	 0.101819622313189 
811	 0.10319927177159 
812	 0.10301736227113 
813	 0.102423560757569 
814	 0.103286733588781 
815	 0.103534933425949 
816	 0.103249852286207 
817	 0.10437479845174 
818	 0.105675723387432 
819	 0.106536324508024 
820	 0.106999777735166 
821	 0.107128984113505 
822	 0.106996470623467 
823	 0.107074176171119 
824	 0.107697806602518 
825	 0.109517941834831 
826	 0.110797183742886 
827	 0.110872727869886 
828	 0.110463397795883 
829	 0.110516180416711 
830	 0.112008562195421 
831	 0.112530694662904 
832	 0.112156033753318 
833	 0.112705601994292 
834	 0.113367823988328 
835	 0.11375353394844 
836	 0.113553052309571 
837	 0.113580207608631 
838	 0.114729579840555 
839	 0.115811193486182 
840	 0.116495571845113 
841	 0.116654869562569 
842	 0.116800009071555 
843	 0.117169749100034 
844	 0.117562853346324 
845	 0.118167907785397 
846	 0.11914916799045 
847	 0.119006922121625 
848	 0.118067623895766 
849	 0.118162232672659 
850	 0.118406065319733 
851	 0.118554566812111 
852	 0.119157400454317 
853	 0.119834074691184 
854	 0.120133210761163 
855	 0.12004058567171 
856	 0.120078951400187 
857	 0.121572128467824 
858	 0.122850160982942 
859	 0.123407157833207 
860	 0.124047926661772 
861	 0.12417852235861 
862	 0.12332036154751 
863	 0.123305735093101 
864	 0.123988793054999 
865	 0.124135076186598 
866	 0.124338054083356 
867	 0.124735183780023 
868	 0.125026697418955 
869	 0.125770744885689 
870	 0.127258596088522 
871	 0.127670857962555 
872	 0.127504706596091 
873	 0.128282155521838 
874	 0.128976704300758 
875	 0.129238631816705 
876	 0.128768000906383 
877	 0.129022667301481 
878	 0.130814096086102 
879	 0.131774257231949 
880	 0.131996822968043 
881	 0.132205752036143 
882	 0.132739150506928 
883	 0.13360055588614 
884	 0.134412977206623 
885	 0.134675185585357 
886	 0.134310763532379 
887	 0.134893301603024 
888	 0.135910159614331 
889	 0.13645706560831 
890	 0.137359456819956 
891	 0.138302787923017 
892	 0.137686618126615 
893	 0.137291700181688 
894	 0.137755675088652 
895	 0.137129003032538 
896	 0.136200086560606 
897	 0.136156549158229 
898	 0.136991420379685 
899	 0.138752684471203 
900	 0.141752476609257 
901	 0.142696601608662 
902	 0.141327658815959 
903	 0.142162108020757 
904	 0.142505552180538 
905	 0.140488424281131 
906	 0.140176846645568 
907	 0.140626437764465 
908	 0.138968481264865 
909	 0.140265985758263 
910	 0.143986451123951 
911	 0.141832572566831 
912	 0.141590331790697 
913	 0.146525196282231 
914	 0.146057258701313 
915	 0.143725835087724 
916	 0.144945160254833 
917	 0.143846539526403 
918	 0.14118234096069 
919	 0.141611859006856 
920	 0.144484264339832 
921	 0.148407644902372 
922	 0.147820143748002 
923	 0.145730760090959 
924	 0.145087366219441 
925	 0.144761429003367 
926	 0.144602875158574 
927	 0.144505004495251 
928	 0.145134123435794 
929	 0.146418784237141 
930	 0.147589225056418 
931	 0.143398659341443 
932	 0.131270469874139 
933	 0.130210180933625 
934	 0.137847815324987 
935	 0.14388493354386 
936	 0.140545571793352 
937	 0.132647568443329 
938	 0.139518472418017 
939	 0.139255837941761 
940	 0.129188881120987 
941	 0.129023299489838 
942	 0.130907109317131 
943	 0.129283687965347 
944	 0.132772321621681 
945	 0.135350691285257 
946	 0.125984483429753 
947	 0.126512807266755 
948	 0.137620582671374 
949	 0.144616960828442 
950	 0.137099941428235 
951	 0.117034781989101 
952	 0.120856828588786 
953	 0.132918083250218 
954	 0.136811800735407 
955	 0.13416449410034 
956	 0.130631706696257 
957	 0.136095385543119 
958	 0.138928228148078 
959	 0.136668421353084 
960	 0.131623273005797 
961	 0.12924262522275 
962	 0.131431792740773 
963	 0.133583629853423 
964	 0.132697733478394 
965	 0.12685200091813 
966	 0.124318688246278 
967	 0.126676563794724 
968	 0.134265786976686 
969	 0.135137396806891 
970	 0.129239277830381 
971	 0.130406875950626 
972	 0.131210172793855 
973	 0.128949923819566 
974	 0.134383677375555 
975	 0.138452291716636 
976	 0.13136991961807 
977	 0.132370278565684 
978	 0.138112944090944 
979	 0.133511734104964 
980	 0.129271523203317 
981	 0.12870872744988 
982	 0.131400254172674 
983	 0.136795669374621 
984	 0.142816727161094 
985	 0.139452053155051 
986	 0.134876303281139 
987	 0.138255882882844 
988	 0.14171075008602 
989	 0.144211127146841 
990	 0.146824060673486 
991	 0.144804413696643 
992	 0.139890386901395 
993	 0.142857059272559 
994	 0.146716234581066 
995	 0.147473615494286 
996	 0.14490291495586 
997	 0.144054512227751 
998	 0.149013506609044 
999	 0.148105129401722 
1000	 0.144533854508907 
1001	 0.147252522813792 
1002	 0.152503413676289 
1003	 0.156861259567138 
1004	 0.152914710972647 
1005	 0.146522512000341 
1006	 0.142120964384289 
1007	 0.146924965449511 
1008	 0.155157417233169 
1009	 0.161138249653309 
1010	 0.166523498312542 
1011	 0.163555176979 
1012	 0.142643536102933 
1013	 0.143411993724412 
1014	 0.160111563620116 
1015	 0.155688831330699 
1016	 0.151921913957451 
1017	 0.153070497572978 
1018	 0.149177941544544 
1019	 0.147669336454197 
1020	 0.15319967422759 
1021	 0.16814059559313 
1022	 0.172433831855463 
1023	 0.150755778439688 
1024	 0.154535899929814 
1025	 0.171658542599024 
1026	 0.167729359354656 
1027	 0.154905915140201 
1028	 0.142987711892215 
1029	 0.154526544796121 
1030	 0.162352420662228 
1031	 0.1584131437287 
1032	 0.153092442139799 
1033	 0.152162031672248 
1034	 0.158165673979672 
1035	 0.163919144297764 
1036	 0.164245293886417 
1037	 0.156491621602259 
1038	 0.16710983652483 
1039	 0.181315932212558 
1040	 0.169126735507638 
1041	 0.155352863673264 
1042	 0.149977536033194 
1043	 0.159426999274456 
1044	 0.166692424518841 
1045	 0.167346820097924 
1046	 0.175086918417658 
1047	 0.175380493127652 
1048	 0.162320397293135 
1049	 0.157334597410442 
1050	 0.160712080710234 
1051	 0.169635044189372 
1052	 0.175966178172648 
1053	 0.178254453132616 
1054	 0.176991516779785 
1055	 0.177161729704604 
1056	 0.17708793341366 
1057	 0.168766353744112 
1058	 0.170905792552895 
1059	 0.18162817314292 
1060	 0.172063691994601 
1061	 0.167068540881774 
1062	 0.172575116026059 
1063	 0.15584090791909 
1064	 0.144043088533595 
1065	 0.157572933520733 
1066	 0.181268548460134 
1067	 0.201748836971143 
1068	 0.205131470443941 
1069	 0.204191121086797 
1070	 0.202776593213462 
1071	 0.203330345173191 
1072	 0.152755100754041 
1073	 8.57847673073316E-02 
1074	 0.133298533160089 
1075	 0.164923362531969 
