Wavelength	AVEI200092.asd
325	 0.027439993256058 
326	 2.74529725855734E-02 
327	 2.56215311723297E-02 
328	 2.29020236314842E-02 
329	 0.023833786569109 
330	 2.81318032829468E-02 
331	 2.48631558786634E-02 
332	 2.08669843384431E-02 
333	 2.29259221187321E-02 
334	 2.62533865994988E-02 
335	 0.027981948172282 
336	 2.30730175682551E-02 
337	 2.08558033311224E-02 
338	 2.30885862272522E-02 
339	 2.26910778580667E-02 
340	 2.30106423387822E-02 
341	 2.65909256214476E-02 
342	 2.78520314960776E-02 
343	 2.70732793311986E-02 
344	 2.64948599412989E-02 
345	 2.54925902617066E-02 
346	 2.40365655056581E-02 
347	 2.21679406920983E-02 
348	 0.020623097802092 
349	 0.020012547926581 
350	 2.12414156976678E-02 
351	 2.26550058297229E-02 
352	 2.15846591050203E-02 
353	 2.15830199261874E-02 
354	 2.27543740073067E-02 
355	 2.21754873496192E-02 
356	 2.12665071481297E-02 
357	 2.10643353353291E-02 
358	 2.24492677996499E-02 
359	 2.37473095601635E-02 
360	 0.022400198549609 
361	 2.10213449171209E-02 
362	 2.03841950820855E-02 
363	 2.05160821026854E-02 
364	 2.13628611274754E-02 
365	 2.24611889517202E-02 
366	 2.11646170882996E-02 
367	 1.99034911633215E-02 
368	 2.21847843727966E-02 
369	 2.29392751140368E-02 
370	 2.17438027588474E-02 
371	 2.12338139895418E-02 
372	 0.021386193001839 
373	 2.20582962360912E-02 
374	 2.20642367551837E-02 
375	 2.12718606090025E-02 
376	 1.97395813444134E-02 
377	 1.99308071297016E-02 
378	 2.16354155312205E-02 
379	 0.022212549616775 
380	 2.17950200845334E-02 
381	 2.06282322845191E-02 
382	 1.99406869921447E-02 
383	 1.99259128736327E-02 
384	 2.06262529789879E-02 
385	 2.05872203866025E-02 
386	 0.020133060372267 
387	 2.15595892799217E-02 
388	 2.25146133414998E-02 
389	 2.21722890039671E-02 
390	 2.27789482608405E-02 
391	 2.32796943334952E-02 
392	 2.22846460703738E-02 
393	 2.07394569639911E-02 
394	 1.96661627254835E-02 
395	 2.12629046074681E-02 
396	 2.24798602766918E-02 
397	 2.20863675258733E-02 
398	 2.13116693976206E-02 
399	 2.09139540974116E-02 
400	 0.021459503121289 
401	 2.15794035836651E-02 
402	 2.12299095700542E-02 
403	 0.020967558471926 
404	 2.06211994711389E-02 
405	 2.02603855808513E-02 
406	 2.07074849349583E-02 
407	 2.12115698279492E-02 
408	 0.020802557135214 
409	 2.04446136383228E-02 
410	 2.04286269479855E-02 
411	 2.09615545228331E-02 
412	 2.12593690329376E-02 
413	 2.10172180463361E-02 
414	 0.020924820736992 
415	 2.09544185860593E-02 
416	 2.09769983307061E-02 
417	 2.08917523172754E-02 
418	 2.08576076371392E-02 
419	 0.021536789473163 
420	 2.18340756483423E-02 
421	 2.12552664267631E-02 
422	 2.08095897850738E-02 
423	 2.07461638399656E-02 
424	 2.12361957813388E-02 
425	 2.14833540653351E-02 
426	 2.13072021441801E-02 
427	 0.020876125273067 
428	 2.06915072790173E-02 
429	 2.10052342488172E-02 
430	 2.08880678004582E-02 
431	 2.07634382109644E-02 
432	 2.15676810004168E-02 
433	 2.17906418762019E-02 
434	 2.12805304453523E-02 
435	 2.10503508331623E-02 
436	 2.10794629975913E-02 
437	 2.12947572794174E-02 
438	 2.12473553398461E-02 
439	 2.10535137586734E-02 
440	 2.10478463072284E-02 
441	 2.10787495443974E-02 
442	 2.11499217473808E-02 
443	 0.021416217490825 
444	 2.18032123591355E-02 
445	 2.21965578720684E-02 
446	 2.20683233265798E-02 
447	 2.15981921493591E-02 
448	 2.13177362662645E-02 
449	 2.13836509671631E-02 
450	 0.021746811798568 
451	 2.17765503587842E-02 
452	 0.02165775902437 
453	 0.021617288961039 
454	 2.17121629219443E-02 
455	 2.18643529311641E-02 
456	 2.17910078928056E-02 
457	 2.18287985346154E-02 
458	 2.20895511039973E-02 
459	 2.23782980367579E-02 
460	 0.022525352573358 
461	 2.23606022217593E-02 
462	 2.20324651320621E-02 
463	 2.17018580289279E-02 
464	 2.16562377964031E-02 
465	 2.18607236800643E-02 
466	 2.22259968663699E-02 
467	 2.22953416573507E-02 
468	 2.21561258943896E-02 
469	 2.20188917503732E-02 
470	 2.22072198841102E-02 
471	 0.022575876713547 
472	 2.22696108746614E-02 
473	 2.19694040684847E-02 
474	 2.21031922033694E-02 
475	 2.23124186525914E-02 
476	 2.25282353302752E-02 
477	 2.27344022549206E-02 
478	 2.27509183326108E-02 
479	 0.022591043090311 
480	 2.25605914103947E-02 
481	 2.25021389843413E-02 
482	 2.23145579367599E-02 
483	 2.24423083375936E-02 
484	 2.27338135165976E-02 
485	 2.26343631397627E-02 
486	 2.26158784497079E-02 
487	 2.28637033546578E-02 
488	 2.34421108225311E-02 
489	 2.37656391100367E-02 
490	 2.32949787282735E-02 
491	 2.30529006545297E-02 
492	 2.31838439543409E-02 
493	 2.35115134815771E-02 
494	 2.36272434517721E-02 
495	 2.34279247967773E-02 
496	 0.023650493231551 
497	 0.023830739968184 
498	 2.32890544962296E-02 
499	 0.023162458566499 
500	 2.35429184893751E-02 
501	 0.023725887487655 
502	 2.38030900513066E-02 
503	 2.38286583113185E-02 
504	 2.38517072596141E-02 
505	 2.38895327422593E-02 
506	 2.39450845787776E-02 
507	 2.40937261412108E-02 
508	 2.43242879107137E-02 
509	 2.45259459649027E-02 
510	 2.46311547797927E-02 
511	 0.024607719879405 
512	 2.46983955490393E-02 
513	 2.48608714050934E-02 
514	 2.48983148580545E-02 
515	 2.48928184583326E-02 
516	 0.024918759294616 
517	 0.025211247563861 
518	 2.55263687514867E-02 
519	 2.55884575924242E-02 
520	 2.56289180534357E-02 
521	 2.57038414253732E-02 
522	 2.58474931792022E-02 
523	 2.58665876684029E-02 
524	 2.57467648178234E-02 
525	 2.60429813007665E-02 
526	 2.63908345904792E-02 
527	 2.61905973958536E-02 
528	 2.63343862734742E-02 
529	 2.68524336540405E-02 
530	 0.027047657970946 
531	 2.70740407663552E-02 
532	 2.70737516484356E-02 
533	 2.73889716459293E-02 
534	 2.77465247062242E-02 
535	 2.75031562251935E-02 
536	 2.72898361382591E-02 
537	 0.027335238303618 
538	 2.76652150110529E-02 
539	 0.02798057677918 
540	 2.80032305857603E-02 
541	 2.80763497011903E-02 
542	 2.82067598906274E-02 
543	 2.82146585129742E-02 
544	 2.82594991198806E-02 
545	 2.84156679270855E-02 
546	 2.87166266811954E-02 
547	 2.89264400248148E-02 
548	 2.87433055544976E-02 
549	 2.86570419465822E-02 
550	 2.87627812983686E-02 
551	 2.89196653274287E-02 
552	 2.90370261866184E-02 
553	 2.90646967570131E-02 
554	 2.91219807096734E-02 
555	 2.92602292011284E-02 
556	 2.95467996746378E-02 
557	 2.98237913177034E-02 
558	 2.99537469070616E-02 
559	 2.96191384059791E-02 
560	 2.92809483364734E-02 
561	 2.93714197216874E-02 
562	 2.96283801793877E-02 
563	 2.99036708945387E-02 
564	 2.99444249087394E-02 
565	 3.00552044292495E-02 
566	 0.030326451082587 
567	 3.05574236032024E-02 
568	 3.05183245647229E-02 
569	 2.99537491871902E-02 
570	 2.97435980237831E-02 
571	 2.99855500998174E-02 
572	 3.01628992991033E-02 
573	 3.02270161769663E-02 
574	 3.01703200420718E-02 
575	 3.03073478272228E-02 
576	 3.04994144702301E-02 
577	 3.04065317934549E-02 
578	 3.03929473004271E-02 
579	 3.05115721317156E-02 
580	 3.04138822141332E-02 
581	 3.04840161110284E-02 
582	 3.10183514690163E-02 
583	 3.12324923589411E-02 
584	 3.11203869308288E-02 
585	 3.10303751544509E-02 
586	 3.10822111948596E-02 
587	 3.12662786699339E-02 
588	 3.10540904899014E-02 
589	 3.07317560561108E-02 
590	 3.07452687821193E-02 
591	 3.10855137506301E-02 
592	 0.031585630533312 
593	 3.17871712194821E-02 
594	 3.18082584958637E-02 
595	 3.17285267013853E-02 
596	 3.15906392962761E-02 
597	 3.15792844665076E-02 
598	 3.20226319255135E-02 
599	 3.20247410539585E-02 
600	 3.15790249374057E-02 
601	 3.19913600860959E-02 
602	 3.24121095540615E-02 
603	 3.21142892925728E-02 
604	 0.032294217039071 
605	 3.27594041400361E-02 
606	 3.24425776981984E-02 
607	 3.22985870408302E-02 
608	 3.26201395326743E-02 
609	 3.27587885405938E-02 
610	 3.26530472616393E-02 
611	 3.23101225592904E-02 
612	 3.26274379423688E-02 
613	 3.34300717227404E-02 
614	 3.33692921570963E-02 
615	 3.31529220889009E-02 
616	 3.31900274147837E-02 
617	 3.30968200582667E-02 
618	 3.29424669968663E-02 
619	 3.28872752233427E-02 
620	 0.033267732793613 
621	 3.39019919962324E-02 
622	 3.35600131843552E-02 
623	 3.30880139783238E-02 
624	 3.32693723550919E-02 
625	 3.35130609440745E-02 
626	 3.37418340658543E-02 
627	 3.40803728906328E-02 
628	 3.42439808932924E-02 
629	 3.41533831188484E-02 
630	 3.41238344695278E-02 
631	 3.41533375074051E-02 
632	 3.42007116762255E-02 
633	 3.43623921448901E-02 
634	 3.46387500579086E-02 
635	 3.49897259816617E-02 
636	 3.52564199141769E-02 
637	 3.53078873705949E-02 
638	 3.49601347286708E-02 
639	 3.45532839882914E-02 
640	 3.46890399367536E-02 
641	 3.51953055739474E-02 
642	 3.58071575475928E-02 
643	 3.57221304387492E-02 
644	 3.53409088013253E-02 
645	 3.50855708499414E-02 
646	 3.54162304015333E-02 
647	 3.60099399635335E-02 
648	 3.57140097391902E-02 
649	 3.56168391540206E-02 
650	 3.60262889776502E-02 
651	 3.60955529126697E-02 
652	 3.59229510896213E-02 
653	 0.035711634154523 
654	 3.57084322660144E-02 
655	 3.58971200296594E-02 
656	 3.59254050557539E-02 
657	 3.60150920586558E-02 
658	 3.62303535105056E-02 
659	 3.60737656992659E-02 
660	 3.58700649581878E-02 
661	 3.62298589456433E-02 
662	 3.63939328143688E-02 
663	 3.62242709416237E-02 
664	 0.036132480537173 
665	 0.036079232529579 
666	 3.60266067256439E-02 
667	 3.60352051140155E-02 
668	 3.60347223599651E-02 
669	 3.57784003564577E-02 
670	 0.035816589705261 
671	 3.62341782341944E-02 
672	 3.62347365564894E-02 
673	 3.61513503974344E-02 
674	 3.64293293180603E-02 
675	 0.036667059389857 
676	 3.67747244464271E-02 
677	 3.67155393251236E-02 
678	 3.69075983047999E-02 
679	 0.037488294342015 
680	 3.76592302410513E-02 
681	 0.037593368819528 
682	 3.77203376075766E-02 
683	 3.78026906444293E-02 
684	 0.037980223179566 
685	 3.90899564797329E-02 
686	 4.01298214708482E-02 
687	 4.01931431385721E-02 
688	 4.01438796858812E-02 
689	 0.040432361001718 
690	 4.16702043062016E-02 
691	 4.25269876369298E-02 
692	 4.27732551709831E-02 
693	 4.34997663763944E-02 
694	 4.44113723065291E-02 
695	 4.50992767083917E-02 
696	 4.57469799769899E-02 
697	 4.64764964412909E-02 
698	 4.76224928399462E-02 
699	 4.85061684748645E-02 
700	 4.89167577727393E-02 
701	 4.99804403219259E-02 
702	 5.13006926744537E-02 
703	 5.21697835520939E-02 
704	 5.29241768548638E-02 
705	 5.36475126933952E-02 
706	 5.42637495818844E-02 
707	 5.51013931919226E-02 
708	 5.63254144040631E-02 
709	 5.74654836785209E-02 
710	 0.058347077431119 
711	 5.87892445034513E-02 
712	 5.92837037755993E-02 
713	 5.99729842231356E-02 
714	 6.06985060357336E-02 
715	 6.13192068244671E-02 
716	 0.061740518067496 
717	 0.062089967600422 
718	 6.25448796145704E-02 
719	 6.34314926717366E-02 
720	 6.43143924346489E-02 
721	 6.49866707312816E-02 
722	 6.57524117201656E-02 
723	 6.64684418184547E-02 
724	 6.68981490100166E-02 
725	 6.74253051524711E-02 
726	 0.068034477702313 
727	 0.068544024426555 
728	 6.88476911541264E-02 
729	 6.89968509631802E-02 
730	 6.96587340973942E-02 
731	 7.06353909353672E-02 
732	 7.15474626025338E-02 
733	 7.20230427864324E-02 
734	 7.21581774900424E-02 
735	 7.24864474747713E-02 
736	 7.29900200623607E-02 
737	 7.36249073292823E-02 
738	 7.41915452711016E-02 
739	 7.46883221208686E-02 
740	 7.51825130631388E-02 
741	 7.56011435579992E-02 
742	 7.59712405985491E-02 
743	 7.64687934499308E-02 
744	 0.077074985216528 
745	 7.77363278270079E-02 
746	 7.80012912452217E-02 
747	 7.80382869525002E-02 
748	 7.84468965160672E-02 
749	 0.07883069682296 
750	 7.90952413919516E-02 
751	 7.94577479762353E-02 
752	 7.99445729317728E-02 
753	 8.05520491317822E-02 
754	 8.09152387652544E-02 
755	 8.11471138277446E-02 
756	 0.081867416585714 
757	 8.22699743454824E-02 
758	 8.20375643854792E-02 
759	 8.16493184094769E-02 
760	 0.081501496892905 
761	 8.28197079891596E-02 
762	 8.36947118348526E-02 
763	 0.083749942118528 
764	 8.40394206157776E-02 
765	 8.43679356269902E-02 
766	 8.47276622979317E-02 
767	 8.55669747229961E-02 
768	 8.63407749776174E-02 
769	 0.086376882731942 
770	 8.67635420866381E-02 
771	 8.75607873364653E-02 
772	 0.088016672389501 
773	 8.83305433342027E-02 
774	 0.088659659110451 
775	 8.92037257111117E-02 
776	 0.08974906510906 
777	 8.98488981654618E-02 
778	 9.01722128864187E-02 
779	 9.07594180434684E-02 
780	 9.08480918633822E-02 
781	 9.09679359765666E-02 
782	 9.15232829425533E-02 
783	 9.19383038840124E-02 
784	 9.23063369795319E-02 
785	 9.30948131938469E-02 
786	 9.32999476067312E-02 
787	 9.28901598643177E-02 
788	 9.34476079941985E-02 
789	 9.42134217186222E-02 
790	 9.44287841329507E-02 
791	 0.094846775006589 
792	 9.53485660951867E-02 
793	 9.52544145661897E-02 
794	 9.56820813586791E-02 
795	 9.67604056050795E-02 
796	 9.69556795083712E-02 
797	 9.68494998318975E-02 
798	 9.71178387869267E-02 
799	 9.74637211722521E-02 
800	 9.79206311367167E-02 
801	 9.88073734181349E-02 
802	 9.90060040031833E-02 
803	 9.84541274864882E-02 
804	 9.95365267271672E-02 
805	 0.100786035511681 
806	 0.100526414784949 
807	 0.100740511368172 
808	 0.101381647726227 
809	 0.101041975826588 
810	 0.101084092392804 
811	 0.101928783480598 
812	 0.102109489411416 
813	 0.102151041422644 
814	 0.102877078443217 
815	 0.1024647013701 
816	 0.101501815096561 
817	 0.103346815699189 
818	 0.10503086194052 
819	 0.105380558196968 
820	 0.105955461512439 
821	 0.106473539610257 
822	 0.106482403295334 
823	 0.106799300575502 
824	 0.107422509675118 
825	 0.107822964059718 
826	 0.108153538400155 
827	 0.108553237774904 
828	 0.109448171366549 
829	 0.110229280466843 
830	 0.110127684288486 
831	 0.110027628539151 
832	 0.110288010153814 
833	 0.111322835483586 
834	 0.112150905345384 
835	 0.112413390943987 
836	 0.112887532421755 
837	 0.113268188136244 
838	 0.11317274348002 
839	 0.1133986643173 
840	 0.114070556349744 
841	 0.115036823884934 
842	 0.115973817225182 
843	 0.11660491419768 
844	 0.116440685339775 
845	 0.116212542705819 
846	 0.116748491495446 
847	 0.117084196216601 
848	 0.11718709971036 
849	 0.117560304170774 
850	 0.117890148045228 
851	 0.118101524275836 
852	 0.118529132731577 
853	 0.118886425960914 
854	 0.118860038900256 
855	 0.118715153148926 
856	 0.118856279136708 
857	 0.120202292954055 
858	 0.121064470318774 
859	 0.121110018207655 
860	 0.121971338046592 
861	 0.122828705430866 
862	 0.122827817442794 
863	 0.122217949237075 
864	 0.121691779925648 
865	 0.122708440903354 
866	 0.123935263714727 
867	 0.124623763126425 
868	 0.123668254783104 
869	 0.123346767504715 
870	 0.125318819225501 
871	 0.126467006585188 
872	 0.126818355948347 
873	 0.127415770942845 
874	 0.128012871053781 
875	 0.128432112693796 
876	 0.128067970514877 
877	 0.127961953129201 
878	 0.128852229590335 
879	 0.130300725364321 
880	 0.131486277846329 
881	 0.131230489618691 
882	 0.131510842513341 
883	 0.132554779950665 
884	 0.133117487960184 
885	 0.133492211321904 
886	 0.133787287947103 
887	 0.13352272376665 
888	 0.133658624430948 
889	 0.135448469628142 
890	 0.136024596415001 
891	 0.13536390019827 
892	 0.135920680648522 
893	 0.135527675279869 
894	 0.133648938851259 
895	 0.133575225555317 
896	 0.134776626792476 
897	 0.136188615118302 
898	 0.137561416268306 
899	 0.138717462378576 
900	 0.139897260561759 
901	 0.138863105832126 
902	 0.136126555913225 
903	 0.136972714428702 
904	 0.138807109921082 
905	 0.139403330936073 
906	 0.139236767801 
907	 0.138749329884868 
908	 0.138637309111337 
909	 0.139176480755732 
910	 0.139952230133272 
911	 0.138689776225959 
912	 0.139118146726663 
913	 0.142561341879388 
914	 0.142423650927861 
915	 0.141300891972508 
916	 0.143047136745428 
917	 0.14445702016382 
918	 0.144699726520828 
919	 0.143273072785293 
920	 0.142379490961404 
921	 0.142882780407805 
922	 0.144750795889393 
923	 0.144859804712878 
924	 0.140973763106613 
925	 0.141681913838218 
926	 0.144722244327624 
927	 0.141509608920146 
928	 0.138560228598345 
929	 0.138141581305187 
930	 0.139398596801692 
931	 0.137961337238481 
932	 0.130826565423507 
933	 0.128139860488202 
934	 0.129585737622166 
935	 0.131371254077707 
936	 0.1330928538707 
937	 0.133745412910962 
938	 0.132117844615968 
939	 0.128292280523633 
940	 0.123981159145219 
941	 0.124746160651111 
942	 0.129549528971438 
943	 0.135789470133165 
944	 0.130287091925794 
945	 0.12078055468633 
946	 0.122261714607858 
947	 0.126430881259821 
948	 0.131637180774357 
949	 0.141295662232725 
950	 0.137737156697225 
951	 0.119314346571053 
952	 0.119693863623591 
953	 0.127802587424238 
954	 0.13093362851248 
955	 0.124768459431788 
956	 0.116385713094076 
957	 0.119383869898618 
958	 0.124025328910592 
959	 0.126982766850084 
960	 0.126542181887813 
961	 0.127491559081052 
962	 0.130512537615531 
963	 0.126034021873217 
964	 0.122209123666195 
965	 0.126564487488882 
966	 0.124194240634587 
967	 0.120073178039862 
968	 0.128861945427297 
969	 0.129612836228286 
970	 0.121781152466303 
971	 0.125990486166687 
972	 0.129795167854295 
973	 0.127887473979988 
974	 0.133232154812357 
975	 0.136976095071114 
976	 0.12918100337586 
977	 0.125048585324303 
978	 0.126276696490866 
979	 0.129712919825962 
980	 0.130765995423231 
981	 0.129580103318426 
982	 0.132886827212871 
983	 0.137317548520829 
984	 0.140287450401157 
985	 0.137884596883592 
986	 0.13546480908415 
987	 0.138430710166101 
988	 0.136606205231658 
989	 0.132706238311577 
990	 0.135709995963415 
991	 0.135188827823268 
992	 0.131876201811969 
993	 0.140147302783985 
994	 0.142901216049533 
995	 0.134685973606117 
996	 0.138880842832938 
997	 0.145066492562523 
998	 0.142354087456387 
999	 0.145373321248007 
1000	 0.150025307701944 
1001	 0.145234628141657 
1002	 0.1436789767811 
1003	 0.146389618019911 
1004	 0.145847814396404 
1005	 0.143328925769959 
1006	 0.140563449705764 
1007	 0.143340206154302 
1008	 0.14946233776748 
1009	 0.15535684309965 
1010	 0.15337025604132 
1011	 0.145604243841986 
1012	 0.13706266793765 
1013	 0.142448874716254 
1014	 0.155413194679552 
1015	 0.152279499616846 
1016	 0.150028613937303 
1017	 0.15126402018394 
1018	 0.144420225563839 
1019	 0.13926771542037 
1020	 0.142598665980945 
1021	 0.159358568659798 
1022	 0.16676976476162 
1023	 0.146736304797921 
1024	 0.152213529141416 
1025	 0.168813702951598 
1026	 0.158492573450582 
1027	 0.145115404487109 
1028	 0.137262650100604 
1029	 0.143963035743601 
1030	 0.14456175899048 
1031	 0.13709777225082 
1032	 0.149419341993066 
1033	 0.158210925191724 
1034	 0.15172663538713 
1035	 0.156062377879776 
1036	 0.159088550109674 
1037	 0.147341467572155 
1038	 0.1487297003134 
1039	 0.159307601270727 
1040	 0.165089688241342 
1041	 0.154469971912429 
1042	 0.138760418490488 
1043	 0.161368319730449 
1044	 0.170422180880547 
1045	 0.155592182841689 
1046	 0.158169208067195 
1047	 0.155549731235236 
1048	 0.139387899812754 
1049	 0.146695948452856 
1050	 0.160144618947203 
1051	 0.159622577142453 
1052	 0.150233576928023 
1053	 0.147721685348726 
1054	 0.172405125510412 
1055	 0.174107486963908 
1056	 0.155788666806577 
1057	 0.158490968019209 
1058	 0.159945560494944 
1059	 0.155714262339271 
1060	 0.151979090851276 
1061	 0.15136124603807 
1062	 0.15207577943199 
1063	 0.13556287889995 
1064	 0.134002445238599 
1065	 0.164398039793051 
1066	 0.167942188222274 
1067	 0.161827691447724 
1068	 0.169882360309391 
1069	 0.155145937639473 
1070	 0.135347424731634 
1071	 0.152371169021732 
1072	 0.123623890810806 
1073	 7.95310770950649E-02 
1074	 0.158284679286773 
1075	 0.165889345481459 
