Wavelength	AVEI200276.asd
325	 9.29127118773595E-02 
326	 9.40920903552319E-02 
327	 9.61053738066529E-02 
328	 8.65755930997358E-02 
329	 8.10579189109343E-02 
330	 8.30054251504283E-02 
331	 7.86297244859217E-02 
332	 7.51497077318647E-02 
333	 7.99144179764457E-02 
334	 8.30422284789919E-02 
335	 8.42050416118196E-02 
336	 8.74131052723497E-02 
337	 8.77270590264333E-02 
338	 8.42169198952103E-02 
339	 7.91667215566142E-02 
340	 7.78537888840838E-02 
341	 8.35711850235036E-02 
342	 8.59050243905026E-02 
343	 8.50812957277414E-02 
344	 8.47023237385149E-02 
345	 8.39419669769015E-02 
346	 0.083333210149737 
347	 8.54143790847909E-02 
348	 8.64601842857674E-02 
349	 8.41961276014326E-02 
350	 8.13271445409432E-02 
351	 8.04382704466349E-02 
352	 8.50364687042432E-02 
353	 8.66370349919759E-02 
354	 8.42042894927255E-02 
355	 8.23050295478133E-02 
356	 8.17622808887768E-02 
357	 8.29624272805637E-02 
358	 8.50213228479831E-02 
359	 0.086376102730011 
360	 8.49635095653521E-02 
361	 0.085278908156641 
362	 8.71319268004477E-02 
363	 8.60136141069223E-02 
364	 8.44883076850378E-02 
365	 8.40020913370774E-02 
366	 8.40416109732131E-02 
367	 8.41757975192863E-02 
368	 8.39022377881918E-02 
369	 8.42336448909297E-02 
370	 8.51489255403361E-02 
371	 8.57989430620815E-02 
372	 0.086489156114395 
373	 8.71874351125264E-02 
374	 8.69889703605337E-02 
375	 8.53525496371925E-02 
376	 8.17653580266011E-02 
377	 8.12030982869281E-02 
378	 8.34436991884911E-02 
379	 8.35687675864971E-02 
380	 8.32199282819624E-02 
381	 8.33783997840128E-02 
382	 0.085212658214887 
383	 8.69010408492503E-02 
384	 8.60093371617882E-02 
385	 8.52443376380129E-02 
386	 8.51259469348804E-02 
387	 8.48184816211944E-02 
388	 8.55091095571096E-02 
389	 8.70158689439404E-02 
390	 8.50524072358779E-02 
391	 8.29687685606947E-02 
392	 8.48988973031141E-02 
393	 8.55193629436799E-02 
394	 8.44166510110452E-02 
395	 8.35520708913165E-02 
396	 8.40229654939809E-02 
397	 8.58047834431044E-02 
398	 8.60836921218249E-02 
399	 0.085419475434844 
400	 8.46812701121786E-02 
401	 8.41243243750579E-02 
402	 8.38960156489685E-02 
403	 0.084038379911417 
404	 8.48104177523404E-02 
405	 0.08605156587065 
406	 8.62523786464647E-02 
407	 8.59519827913431E-02 
408	 8.59781314277447E-02 
409	 8.54569696022123E-02 
410	 8.47631066636199E-02 
411	 8.54539481492137E-02 
412	 8.60590526007629E-02 
413	 8.59966977930149E-02 
414	 0.086405172187378 
415	 8.69133488989681E-02 
416	 0.08692047369878 
417	 8.69395669637827E-02 
418	 8.71742865110303E-02 
419	 8.79498783222457E-02 
420	 8.83166164043691E-02 
421	 8.78614141869496E-02 
422	 8.75897904521472E-02 
423	 8.76856281752862E-02 
424	 0.088223183405975 
425	 8.86230688727803E-02 
426	 8.88491005189686E-02 
427	 8.94224383747429E-02 
428	 8.99557833037351E-02 
429	 9.01744367959247E-02 
430	 9.00988806334729E-02 
431	 8.99521618764131E-02 
432	 9.00873048537481E-02 
433	 9.02017362899189E-02 
434	 0.090207716208847 
435	 9.00286216496509E-02 
436	 9.01395009948726E-02 
437	 9.08102245840031E-02 
438	 9.15259138970951E-02 
439	 9.20006613590403E-02 
440	 9.18381476445539E-02 
441	 9.20065740674443E-02 
442	 9.26093499525632E-02 
443	 9.26908976307748E-02 
444	 9.26774811721066E-02 
445	 9.29664207472037E-02 
446	 9.37686805202783E-02 
447	 9.46597427309693E-02 
448	 0.094659218467186 
449	 9.43922133427296E-02 
450	 9.42574828183292E-02 
451	 9.50803496728572E-02 
452	 9.58809295311776E-02 
453	 9.56832555859239E-02 
454	 9.53933448786736E-02 
455	 9.53133989068105E-02 
456	 9.56692908122256E-02 
457	 9.64157046478324E-02 
458	 9.73381090672811E-02 
459	 9.74734496934978E-02 
460	 9.73183203336245E-02 
461	 9.75517279502691E-02 
462	 9.75387290670204E-02 
463	 9.74460239986904E-02 
464	 9.81845688516984E-02 
465	 9.89683837342681E-02 
466	 0.099338715645604 
467	 9.92769522244769E-02 
468	 9.91123477282925E-02 
469	 9.93350015257253E-02 
470	 0.099083734134178 
471	 9.85333806103171E-02 
472	 9.90737137984664E-02 
473	 9.96501452141917E-02 
474	 9.96677413198794E-02 
475	 0.100247838123349 
476	 0.100870634931935 
477	 0.100370932881594 
478	 0.100155942538626 
479	 0.100500604636205 
480	 0.100613098109591 
481	 0.100821384634609 
482	 0.101370021989126 
483	 0.101735232842445 
484	 0.101944248301767 
485	 0.102329981630966 
486	 0.102375062401519 
487	 0.102057451341597 
488	 0.10228337584537 
489	 0.102646174682888 
490	 0.102686168738514 
491	 0.102754940114856 
492	 0.103028603793544 
493	 0.103906071472368 
494	 0.104263005597147 
495	 0.10376995294386 
496	 0.103732584341344 
497	 0.104209659669458 
498	 0.105100256747209 
499	 0.105290345979727 
500	 0.104911722143103 
501	 0.105458437867245 
502	 0.106136478857642 
503	 0.106460741816444 
504	 0.106673773039763 
505	 0.106886186818885 
506	 0.10724944447891 
507	 0.10738565855357 
508	 0.107348830012112 
509	 0.107790121493535 
510	 0.108295968935159 
511	 0.108530347058999 
512	 0.10867892510993 
513	 0.1089449751156 
514	 0.10981104675604 
515	 0.110234199428148 
516	 0.10999167443701 
517	 0.110173010935062 
518	 0.110597879050074 
519	 0.110970608879009 
520	 0.111212276746611 
521	 0.111383202030338 
522	 0.111727891327823 
523	 0.112034151647121 
524	 0.112228979412932 
525	 0.112473697720831 
526	 0.112829718776011 
527	 0.113355737680807 
528	 0.113767972992949 
529	 0.114038450052924 
530	 0.114398587718637 
531	 0.11471609414522 
532	 0.114889336789364 
533	 0.114804483493975 
534	 0.114672965464492 
535	 0.114916941902518 
536	 0.115223391172624 
537	 0.115538385052552 
538	 0.116078014705795 
539	 0.116706050479583 
540	 0.117253375827661 
541	 0.117307509889944 
542	 0.117158683959563 
543	 0.117808602201401 
544	 0.118365319381172 
545	 0.118512490399997 
546	 0.118805638515585 
547	 0.119064260521309 
548	 0.11899289733603 
549	 0.119148632819328 
550	 0.119565819396902 
551	 0.119843299025143 
552	 0.120135198047913 
553	 0.12050136104311 
554	 0.120627764279188 
555	 0.120642016651701 
556	 0.120840139019054 
557	 0.121257979532953 
558	 0.121739557954546 
559	 0.1215300516582 
560	 0.121155204271812 
561	 0.121165667382204 
562	 0.121894057552471 
563	 0.122852544671689 
564	 0.122593992535116 
565	 0.122501924025094 
566	 0.123035848177989 
567	 0.123272179486426 
568	 0.123373792864904 
569	 0.123649967083046 
570	 0.123757559854821 
571	 0.123721825188324 
572	 0.123862152062736 
573	 0.124225230828674 
574	 0.124769155677368 
575	 0.124859428719032 
576	 0.124760885673482 
577	 0.125122898973949 
578	 0.125523578744623 
579	 0.125723322514631 
580	 0.125292340881713 
581	 0.124891508711473 
582	 0.12507923398115 
583	 0.12502576625226 
584	 0.124838283232262 
585	 0.12513858699059 
586	 0.125769991692486 
587	 0.126516115704976 
588	 0.126453802720706 
589	 0.126100911935123 
590	 0.126259544323501 
591	 0.126382610295593 
592	 0.126426832763885 
593	 0.126670002370309 
594	 0.126927540155497 
595	 0.127037040860625 
596	 0.126616544009385 
597	 0.126125812708832 
598	 0.12642328278995 
599	 0.126961445692748 
600	 0.127400555861979 
601	 0.127114075344431 
602	 0.126622671253901 
603	 0.126424187914166 
604	 0.126413325192242 
605	 0.126547119434268 
606	 0.126785801460154 
607	 0.126865240291911 
608	 0.126714026252684 
609	 0.126699987074233 
610	 0.12675179320964 
611	 0.126736183492721 
612	 0.126567996406135 
613	 0.126378473526841 
614	 0.126652105164238 
615	 0.127045331236443 
616	 0.127299374890447 
617	 0.127184440567876 
618	 0.127018526220921 
619	 0.127413876340871 
620	 0.127744358956617 
621	 0.127764044338698 
622	 0.127304752358114 
623	 0.126817893252981 
624	 0.126742510939544 
625	 0.127214385359496 
626	 0.12784406442702 
627	 0.127534428164964 
628	 0.127489484299831 
629	 0.128017439545663 
630	 0.127845643727723 
631	 0.127527455234135 
632	 0.127868214860472 
633	 0.128006828436641 
634	 0.127832803684279 
635	 0.127652466910801 
636	 0.127604791301922 
637	 0.127747549059004 
638	 0.127702524998728 
639	 0.127712068346619 
640	 0.128336904726997 
641	 0.128474869013039 
642	 0.128011179075982 
643	 0.128009634002194 
644	 0.128414480203312 
645	 0.129086117829139 
646	 0.129228030409587 
647	 0.128906768852496 
648	 0.128699597224422 
649	 0.12879170455534 
650	 0.129147516402738 
651	 0.128922349387539 
652	 0.128603400638426 
653	 0.12884098008048 
654	 0.128279262585401 
655	 0.127196452714266 
656	 0.127895973823915 
657	 0.128320536527694 
658	 0.127380840973902 
659	 0.126726449401409 
660	 0.126400846594764 
661	 0.126163825628243 
662	 0.12597054299211 
663	 0.125775890593216 
664	 0.125589674767587 
665	 0.125155346074176 
666	 0.124313038300227 
667	 0.123756868285494 
668	 0.123565648025124 
669	 0.123624057042716 
670	 0.123554041896392 
671	 0.123280210246309 
672	 0.123460567215924 
673	 0.123432400709346 
674	 0.122438605785542 
675	 0.122732658869768 
676	 0.123999294132313 
677	 0.123631561317484 
678	 0.123243781186773 
679	 0.123664635066191 
680	 0.12426857310176 
681	 0.124854043534529 
682	 0.125227714331481 
683	 0.125562896415601 
684	 0.125931749201529 
685	 0.126334739696392 
686	 0.127177616147429 
687	 0.128763970022722 
688	 0.13010265869461 
689	 0.130788331293601 
690	 0.130670937929176 
691	 0.131035222335818 
692	 0.132177842059796 
693	 0.133124775209881 
694	 0.133785719893233 
695	 0.134121893368129 
696	 0.134665162756241 
697	 0.135326790805812 
698	 0.135580760976556 
699	 0.135729818814385 
700	 0.135945326825858 
701	 0.136476528439978 
702	 0.136795157237899 
703	 0.136162856179697 
704	 0.136156864037159 
705	 0.136820967896185 
706	 0.136806719169728 
707	 0.137012503888607 
708	 0.137860654934654 
709	 0.137721881405709 
710	 0.137176285352043 
711	 0.137710031870702 
712	 0.138158706538623 
713	 0.138242299774914 
714	 0.138307350284884 
715	 0.138627194477562 
716	 0.139502738461325 
717	 0.141052936158396 
718	 0.142602273538273 
719	 0.141833332000943 
720	 0.140754484606889 
721	 0.140351405216945 
722	 0.14039704699712 
723	 0.140928982773058 
724	 0.142036774494216 
725	 0.142074626311386 
726	 0.141269846765948 
727	 0.141751351126962 
728	 0.1422132687341 
729	 0.142072244077607 
730	 0.141999555776685 
731	 0.142041001115462 
732	 0.142158220906841 
733	 0.142123534114037 
734	 0.141887769190074 
735	 0.141407735176694 
736	 0.141168917884063 
737	 0.14143470185765 
738	 0.141321612578902 
739	 0.140958337750535 
740	 0.140832102223075 
741	 0.140588984118084 
742	 0.140304339646769 
743	 0.140683115691221 
744	 0.141197058820598 
745	 0.141361100291238 
746	 0.141052790018114 
747	 0.140659047485281 
748	 0.141133006096835 
749	 0.1417396492842 
750	 0.142166424440096 
751	 0.142358710677604 
752	 0.142304943764076 
753	 0.142039063897129 
754	 0.142277585459196 
755	 0.142808658012496 
756	 0.142625267563164 
757	 0.142146844517901 
758	 0.141623792841399 
759	 0.141716291461705 
760	 0.143303376983414 
761	 0.146841348879121 
762	 0.147776605556924 
763	 0.14634492018863 
764	 0.146345188672493 
765	 0.146065563935682 
766	 0.145146769772424 
767	 0.144399712003187 
768	 0.143992943439885 
769	 0.144116160413876 
770	 0.144034382033971 
771	 0.143719946232289 
772	 0.143763909109301 
773	 0.143943585672587 
774	 0.14413511158789 
775	 0.144692351460514 
776	 0.145191521423941 
777	 0.144808649145053 
778	 0.144474975796607 
779	 0.144516874622489 
780	 0.145002906539778 
781	 0.145229610645845 
782	 0.144719417605053 
783	 0.144583090637156 
784	 0.144990948193532 
785	 0.145975685052205 
786	 0.146235745630833 
787	 0.145548113625829 
788	 0.145289311389318 
789	 0.145427598875796 
790	 0.14585058469157 
791	 0.146381570895448 
792	 0.146786646505876 
793	 0.146659352384911 
794	 0.146384512428766 
795	 0.146214820528229 
796	 0.146617559457984 
797	 0.146940106418254 
798	 0.146571051919185 
799	 0.146956034235707 
800	 0.147768840355549 
801	 0.14719523847751 
802	 0.147542127304354 
803	 0.149058574692952 
804	 0.147797236343925 
805	 0.146245495858251 
806	 0.14725584145533 
807	 0.148099545562232 
808	 0.148443961396321 
809	 0.149069284726562 
810	 0.149179459091474 
811	 0.148603807319524 
812	 0.148594480989469 
813	 0.148922962569925 
814	 0.149137687642836 
815	 0.149667525715469 
816	 0.150559967049224 
817	 0.151782762095348 
818	 0.152262934599258 
819	 0.151629785442432 
820	 0.150581712739305 
821	 0.149788441946137 
822	 0.14996136607927 
823	 0.150510096674518 
824	 0.150887944510942 
825	 0.150019110267072 
826	 0.149560093016974 
827	 0.150123751800616 
828	 0.150860686278387 
829	 0.15106399347439 
830	 0.150042223887525 
831	 0.149395584694975 
832	 0.149669992706682 
833	 0.151525436549261 
834	 0.151868358964111 
835	 0.149897074126564 
836	 0.149432861572621 
837	 0.149929046993517 
838	 0.150370325049469 
839	 0.149926053986579 
840	 0.149066607040743 
841	 0.149848183913125 
842	 0.14995140462052 
843	 0.148808463465963 
844	 0.14928316219708 
845	 0.150126790680057 
846	 0.14973910091983 
847	 0.149444631585419 
848	 0.149572416866064 
849	 0.150387171990575 
850	 0.15052985673616 
851	 0.149672805852937 
852	 0.149533261344605 
853	 0.150193704997592 
854	 0.151447350312668 
855	 0.151212716420057 
856	 0.150046544961375 
857	 0.150569294770945 
858	 0.15033372136671 
859	 0.149038088588938 
860	 0.149391414228965 
861	 0.150225616111769 
862	 0.150341732726903 
863	 0.150816543728421 
864	 0.151639359809055 
865	 0.152577783277818 
866	 0.151710154751019 
867	 0.149197741347401 
868	 0.14897918437179 
869	 0.149734569550844 
870	 0.150182811263567 
871	 0.150289527331304 
872	 0.150047643841179 
873	 0.149449453984538 
874	 0.150070183931292 
875	 0.151544049965051 
876	 0.150069211219025 
877	 0.149544108444227 
878	 0.152222016644932 
879	 0.152281677933765 
880	 0.151041605686624 
881	 0.151992220952126 
882	 0.151538809623488 
883	 0.149681587110879 
884	 0.149444030490055 
885	 0.150923525252928 
886	 0.153618737317509 
887	 0.153952022807317 
888	 0.152704103018164 
889	 0.151507923021826 
890	 0.151040509707802 
891	 0.151286766423972 
892	 0.151373697000581 
893	 0.151316672978211 
894	 0.151130865376234 
895	 0.150886651219052 
896	 0.151912137793063 
897	 0.155502625123627 
898	 0.157565887721983 
899	 0.157549617883389 
900	 0.15674510421141 
901	 0.156309799344774 
902	 0.156456153849929 
903	 0.155563441554719 
904	 0.155030070874281 
905	 0.155785686503306 
906	 0.155601831556317 
907	 0.154992516280108 
908	 0.155537505925771 
909	 0.154453270095238 
910	 0.152373414265598 
911	 0.154927294309583 
912	 0.157257858520625 
913	 0.156840646832635 
914	 0.157550251565616 
915	 0.158085987632238 
916	 0.156546902224119 
917	 0.155343286732125 
918	 0.155262454108353 
919	 0.157171794792273 
920	 0.157489121739677 
921	 0.155510592603319 
922	 0.155084176608461 
923	 0.154578154372304 
924	 0.152627606772077 
925	 0.15322949358469 
926	 0.154919254687448 
927	 0.152767676362224 
928	 0.152855522903696 
929	 0.156538809054858 
930	 0.15825129803247 
931	 0.158996655199926 
932	 0.15992877033043 
933	 0.164261621269375 
934	 0.168170469582701 
935	 0.165267959569861 
936	 0.162935879121225 
937	 0.163226087128106 
938	 0.166597421284869 
939	 0.166920567498628 
940	 0.164418108611199 
941	 0.169707800569364 
942	 0.171603515798472 
943	 0.162981850546649 
944	 0.15776715500414 
945	 0.159772828458731 
946	 0.171831784550927 
947	 0.170934904158007 
948	 0.157991064787664 
949	 0.154173587600386 
950	 0.16179186365686 
951	 0.176779640705868 
952	 0.174022445270685 
953	 0.168422622655667 
954	 0.174069588625107 
955	 0.177888359104223 
956	 0.176764521538628 
957	 0.168925206950288 
958	 0.162119633408996 
959	 0.158907993900814 
960	 0.158365048638682 
961	 0.163753653622808 
962	 0.173368681764317 
963	 0.17196058508393 
964	 0.166140068966819 
965	 0.163500212094861 
966	 0.1627086413487 
967	 0.162131492205885 
968	 0.158731587123566 
969	 0.156894835876249 
970	 0.157980165332234 
971	 0.163145276101021 
972	 0.163136616456286 
973	 0.1551889260641 
974	 0.156029993481311 
975	 0.161695363006642 
976	 0.165507758371164 
977	 0.162521497375218 
978	 0.156500791226061 
979	 0.157856997046822 
980	 0.158174521774622 
981	 0.156306911131836 
982	 0.157560368373242 
983	 0.157750780800476 
984	 0.15577022196036 
985	 0.159702053838968 
986	 0.162884486357808 
987	 0.158358553219533 
988	 0.157540403263044 
989	 0.15982146920799 
990	 0.159845798087977 
991	 0.156432956539239 
992	 0.151111237540511 
993	 0.150136207844699 
994	 0.154934170445884 
995	 0.163481536309503 
996	 0.160945968139268 
997	 0.156741390562546 
998	 0.160097413469612 
999	 0.154317273514059 
1000	 0.146743896073769 
1001	 0.154240765416858 
1002	 0.16191922535844 
1003	 0.165063199742182 
1004	 0.162175537686891 
1005	 0.159824511458285 
1006	 0.160773237070863 
1007	 0.161719758145528 
1008	 0.167271830525576 
1009	 0.178008597719657 
1010	 0.16757580649068 
1011	 0.153259580694805 
1012	 0.16236311273768 
1013	 0.15588893760968 
1014	 0.14075778111521 
1015	 0.155135968699196 
1016	 0.167150010850183 
1017	 0.167447100003168 
1018	 0.161685933143402 
1019	 0.161262837514349 
1020	 0.169992587879935 
1021	 0.166453357175007 
1022	 0.161474848940581 
1023	 0.16628364587106 
1024	 0.161898016659393 
1025	 0.152570426510248 
1026	 0.150784711531953 
1027	 0.156741179749615 
1028	 0.165801387583802 
1029	 0.163399609505219 
1030	 0.170992981066566 
1031	 0.188996589336851 
1032	 0.187068844209087 
1033	 0.177850786856061 
1034	 0.169985940302086 
1035	 0.154459345313595 
1036	 0.150629708554815 
1037	 0.175389263201445 
1038	 0.17487226840614 
1039	 0.15783967603792 
1040	 0.154423246656256 
1041	 0.161304517289732 
1042	 0.172808095803005 
1043	 0.176040984539381 
1044	 0.169878578928255 
1045	 0.158334623473162 
1046	 0.155461101712152 
1047	 0.165333775990753 
1048	 0.184380151051601 
1049	 0.182895951951707 
1050	 0.17207592683504 
1051	 0.166921519699914 
1052	 0.175939215773973 
1053	 0.186628761101047 
1054	 0.180045483695821 
1055	 0.160210412718658 
1056	 0.142970081115337 
1057	 0.153463671800758 
1058	 0.171876518379366 
1059	 0.1762537723671 
1060	 0.103247756331711 
1061	 7.96072974073705E-02 
1062	 0.145721307559777 
1063	 0.199809321211073 
1064	 0.221062050362649 
1065	 0.196762270609185 
1066	 0.173970010288933 
1067	 0.154955804002341 
1068	 0.136227375319164 
1069	 0.140428498450728 
1070	 0.146588954216147 
1071	 0.118024878174851 
1072	 0.119889888403112 
1073	 0.163822993051762 
1074	 0.237703941165378 
1075	 0.253656749346024 
