Wavelength	AVEI200151.asd
325	 4.81097184111181E-02 
326	 4.74285300331311E-02 
327	 4.05411728458064E-02 
328	 3.71267189957219E-02 
329	 4.00235589010318E-02 
330	 4.71359069338021E-02 
331	 4.34550853184738E-02 
332	 3.74221279648381E-02 
333	 3.76517277645645E-02 
334	 3.57399041723025E-02 
335	 3.36687546645951E-02 
336	 3.98715103693571E-02 
337	 4.18613331688886E-02 
338	 3.79040698277949E-02 
339	 3.94946017414472E-02 
340	 4.17445925959737E-02 
341	 0.040536351120805 
342	 3.92681387917422E-02 
343	 3.90073131389624E-02 
344	 4.09851496953018E-02 
345	 4.03223850595118E-02 
346	 3.73912329067622E-02 
347	 3.88839718934882E-02 
348	 4.08367614203909E-02 
349	 4.04154093630312E-02 
350	 0.038198726062458 
351	 3.59785684512225E-02 
352	 3.63202586104412E-02 
353	 3.66267414381542E-02 
354	 3.67102132703058E-02 
355	 3.85981178150881E-02 
356	 0.039520853617466 
357	 3.81910857128999E-02 
358	 3.81317065887491E-02 
359	 3.91953579955668E-02 
360	 4.05813438064507E-02 
361	 3.92410638577021E-02 
362	 3.62264043551815E-02 
363	 3.76293252803297E-02 
364	 3.90481932230833E-02 
365	 3.82142277505231E-02 
366	 3.70592077575447E-02 
367	 3.60920101343825E-02 
368	 3.56947717653647E-02 
369	 3.59113914346171E-02 
370	 3.63957249033042E-02 
371	 3.61264248125437E-02 
372	 3.55565516700636E-02 
373	 3.49427613290845E-02 
374	 0.034179410579325 
375	 3.39004959447467E-02 
376	 3.49046122046974E-02 
377	 0.035196090147923 
378	 3.45699910089488E-02 
379	 3.38314609591225E-02 
380	 0.034628210120255 
381	 0.037138315714065 
382	 3.68762527850334E-02 
383	 3.56555994783514E-02 
384	 3.63058362409152E-02 
385	 3.47587455872294E-02 
386	 3.19255351748895E-02 
387	 3.34365882507272E-02 
388	 3.51244643765268E-02 
389	 3.49870995529193E-02 
390	 3.37007590894932E-02 
391	 3.26547687832849E-02 
392	 3.32976384274319E-02 
393	 3.37843379689139E-02 
394	 0.033813393278474 
395	 3.36465298322473E-02 
396	 3.40802962566802E-02 
397	 3.50801726923346E-02 
398	 3.45413280593619E-02 
399	 3.35317522506892E-02 
400	 3.32941227962842E-02 
401	 3.31376713496445E-02 
402	 3.29694703923723E-02 
403	 3.28617321677888E-02 
404	 3.28033918159225E-02 
405	 0.032738824624742 
406	 3.23603889615257E-02 
407	 3.20088394057749E-02 
408	 0.03212054148493 
409	 3.25741418742601E-02 
410	 3.30393299601979E-02 
411	 3.27443812057874E-02 
412	 3.21960103613234E-02 
413	 3.17587144323826E-02 
414	 3.20319340765106E-02 
415	 3.23626282385153E-02 
416	 0.03185901408054 
417	 0.031843178824798 
418	 3.22843076167587E-02 
419	 3.20847130482579E-02 
420	 3.19591764770063E-02 
421	 3.22219978127403E-02 
422	 3.22177890678017E-02 
423	 3.20607887954062E-02 
424	 3.20242672749584E-02 
425	 0.031842677536893 
426	 3.16147327068675E-02 
427	 3.19194913897465E-02 
428	 0.032177457309328 
429	 0.03205959064381 
430	 3.22112959274404E-02 
431	 0.032424261678319 
432	 3.22124046382992E-02 
433	 3.21627692562833E-02 
434	 3.22536349272558E-02 
435	 3.17743105078022E-02 
436	 0.031394784664871 
437	 3.15357926346253E-02 
438	 3.17424813799521E-02 
439	 3.18658634388956E-02 
440	 3.17524548945761E-02 
441	 3.17521697774643E-02 
442	 3.19135331919746E-02 
443	 3.19863270026525E-02 
444	 3.18455406264232E-02 
445	 3.14617619968197E-02 
446	 3.16158047202966E-02 
447	 3.20428563070442E-02 
448	 3.18523169760813E-02 
449	 3.17282921207099E-02 
450	 3.18615788154152E-02 
451	 3.20272024216542E-02 
452	 3.21293744680235E-02 
453	 3.20935813080385E-02 
454	 3.21147024687449E-02 
455	 3.21421698662724E-02 
456	 3.18809326761826E-02 
457	 3.18394748229596E-02 
458	 3.21494455038999E-02 
459	 3.22493437591809E-02 
460	 3.21661966341491E-02 
461	 3.19961143655323E-02 
462	 3.18682403219087E-02 
463	 0.031823606095947 
464	 3.18553577705563E-02 
465	 3.19180452264498E-02 
466	 3.19305662519172E-02 
467	 3.15200946589586E-02 
468	 3.11507051660932E-02 
469	 3.15461226340354E-02 
470	 3.17379741450894E-02 
471	 3.16409042207318E-02 
472	 3.19501248215519E-02 
473	 3.21889628001656E-02 
474	 3.20710846677444E-02 
475	 3.19133382942404E-02 
476	 3.17882694091456E-02 
477	 3.17223580330216E-02 
478	 3.18983054376364E-02 
479	 3.21926349377947E-02 
480	 3.19032349418194E-02 
481	 3.15180770595442E-02 
482	 3.14648709464906E-02 
483	 3.17435755444144E-02 
484	 3.21726800855388E-02 
485	 3.23307363999274E-02 
486	 3.24502651762505E-02 
487	 3.25418125116739E-02 
488	 3.22645568855393E-02 
489	 3.20224765349237E-02 
490	 3.22247441602788E-02 
491	 0.03244947643781 
492	 0.032531981349459 
493	 3.22587345396314E-02 
494	 3.20550042952312E-02 
495	 3.21310668856155E-02 
496	 3.24471038327737E-02 
497	 3.27890154396959E-02 
498	 3.28949425386859E-02 
499	 3.28881086737461E-02 
500	 3.28854673168987E-02 
501	 3.31553798015646E-02 
502	 3.34977341224252E-02 
503	 3.37371686785718E-02 
504	 3.35212074215304E-02 
505	 0.033324534764545 
506	 3.39951245127184E-02 
507	 3.46455291645317E-02 
508	 3.50246772799901E-02 
509	 3.52224599621699E-02 
510	 3.55587082596818E-02 
511	 3.62378271161237E-02 
512	 0.036612590013301 
513	 3.66327261490791E-02 
514	 3.63480934686285E-02 
515	 3.65427994449553E-02 
516	 3.74102080573324E-02 
517	 3.81072894661169E-02 
518	 3.86790341312706E-02 
519	 3.92394351260243E-02 
520	 3.97745268868805E-02 
521	 4.03604766851632E-02 
522	 4.12641036270136E-02 
523	 4.18636430832611E-02 
524	 4.20018738022954E-02 
525	 4.26790265739092E-02 
526	 4.35327513181992E-02 
527	 4.39048256624058E-02 
528	 0.044113359881627 
529	 0.044335104590885 
530	 4.48653841170552E-02 
531	 4.55214354592223E-02 
532	 4.61453748620591E-02 
533	 4.64880851873332E-02 
534	 4.66753895058654E-02 
535	 4.70312888515294E-02 
536	 0.047345051798792 
537	 4.75835759824709E-02 
538	 4.79019588386225E-02 
539	 4.81432801966747E-02 
540	 0.048170408346009 
541	 4.84153360270195E-02 
542	 4.88176172691956E-02 
543	 4.89486975965431E-02 
544	 4.92468187107444E-02 
545	 4.97924370033225E-02 
546	 4.98912509068566E-02 
547	 0.049890886177233 
548	 5.03194499949527E-02 
549	 0.050572073037717 
550	 5.05987414351504E-02 
551	 0.050755393953495 
552	 5.09348802967406E-02 
553	 5.10621602295599E-02 
554	 5.10820741918691E-02 
555	 5.10745937979532E-02 
556	 5.11906316351109E-02 
557	 5.14296277696334E-02 
558	 5.17162638098298E-02 
559	 5.17475974065387E-02 
560	 5.16119260471973E-02 
561	 5.14183248512768E-02 
562	 5.12579389358706E-02 
563	 5.12175195682618E-02 
564	 5.14995524139423E-02 
565	 0.051568303113922 
566	 5.12284444757648E-02 
567	 5.08698267138633E-02 
568	 5.05270805847067E-02 
569	 5.01950264617652E-02 
570	 5.00604616685174E-02 
571	 5.00347402215617E-02 
572	 4.96617060954759E-02 
573	 4.92711172131388E-02 
574	 4.90674585765304E-02 
575	 4.89894643838144E-02 
576	 4.88913255766013E-02 
577	 4.85232281443172E-02 
578	 4.81595949445203E-02 
579	 4.79520486484141E-02 
580	 4.81090576012418E-02 
581	 4.83110545632438E-02 
582	 4.82451175096874E-02 
583	 4.76802196618293E-02 
584	 4.69678024985735E-02 
585	 4.70996988437523E-02 
586	 4.72670121922469E-02 
587	 4.71653210375885E-02 
588	 4.70845925314773E-02 
589	 4.69668024703672E-02 
590	 4.67167871280141E-02 
591	 4.64789233614586E-02 
592	 4.63174099442399E-02 
593	 4.62805166628335E-02 
594	 4.62814308085416E-02 
595	 4.62523485522026E-02 
596	 4.61335609980166E-02 
597	 4.59453895438752E-02 
598	 4.57136960148454E-02 
599	 4.57784228210281E-02 
600	 4.61088926507962E-02 
601	 4.61035210142644E-02 
602	 4.58855606957045E-02 
603	 4.56104672353979E-02 
604	 4.55329346723737E-02 
605	 4.56289675076159E-02 
606	 4.57639853957724E-02 
607	 4.55554515261119E-02 
608	 4.49722307606045E-02 
609	 4.49506732762771E-02 
610	 4.50402149476509E-02 
611	 4.45749521191385E-02 
612	 4.42826835078233E-02 
613	 4.42438152936644E-02 
614	 4.41297320690644E-02 
615	 4.39030500469658E-02 
616	 4.35902938945752E-02 
617	 4.36755510101617E-02 
618	 4.38302920613254E-02 
619	 4.33680599831145E-02 
620	 4.29950061496997E-02 
621	 4.28721802399786E-02 
622	 4.26546510650016E-02 
623	 4.26266470048618E-02 
624	 4.30280326755009E-02 
625	 4.35187312949896E-02 
626	 4.37535702502278E-02 
627	 4.29814518209039E-02 
628	 4.25664121350783E-02 
629	 0.042939182867084 
630	 4.29005569306505E-02 
631	 4.27209433508309E-02 
632	 4.28600677142246E-02 
633	 4.31091744969396E-02 
634	 4.32932290729367E-02 
635	 4.30791081157674E-02 
636	 4.25782323029923E-02 
637	 4.19315637745368E-02 
638	 0.041623693195126 
639	 4.15209484956363E-02 
640	 4.12721699507411E-02 
641	 0.040889819161282 
642	 0.040389513593805 
643	 3.98695828805048E-02 
644	 3.93874042151256E-02 
645	 3.89772386004411E-02 
646	 3.84121536433398E-02 
647	 3.79515790598076E-02 
648	 3.84985525800153E-02 
649	 3.84995577152396E-02 
650	 3.75615851025516E-02 
651	 3.73893394990311E-02 
652	 3.75678341231117E-02 
653	 3.74345355771626E-02 
654	 3.73540308153993E-02 
655	 3.73559345129692E-02 
656	 0.037308872415782 
657	 3.71951882755202E-02 
658	 3.70212716637611E-02 
659	 3.69179696315127E-02 
660	 3.67167085620206E-02 
661	 3.61016952047474E-02 
662	 0.035768146379785 
663	 3.57686390076612E-02 
664	 0.035389466456445 
665	 3.49499924720293E-02 
666	 3.47426073538246E-02 
667	 3.47701126724351E-02 
668	 3.48715131546605E-02 
669	 3.46472875958782E-02 
670	 3.44930713781773E-02 
671	 3.44973270930602E-02 
672	 3.42602666186465E-02 
673	 3.41111913578006E-02 
674	 3.44426435132153E-02 
675	 3.46813675595152E-02 
676	 3.47260990439821E-02 
677	 3.47079930649276E-02 
678	 3.46921702991476E-02 
679	 3.47521934348767E-02 
680	 3.50543291867248E-02 
681	 3.54764674411286E-02 
682	 3.57994051686535E-02 
683	 3.60926251231177E-02 
684	 0.036479237354739 
685	 3.73673291615261E-02 
686	 3.85036159554874E-02 
687	 3.96567973274074E-02 
688	 4.10000558857299E-02 
689	 4.24040826489599E-02 
690	 4.38079441398553E-02 
691	 4.51756723356287E-02 
692	 4.67047522964455E-02 
693	 4.91388698155309E-02 
694	 5.18191765105215E-02 
695	 5.39297381346612E-02 
696	 5.64649026267659E-02 
697	 5.92957644564962E-02 
698	 6.16270092924846E-02 
699	 6.42810835769762E-02 
700	 0.067571895456983 
701	 7.10029573547975E-02 
702	 0.074354748623217 
703	 7.74424782193699E-02 
704	 8.01160564470461E-02 
705	 8.26352423587847E-02 
706	 8.58449520920455E-02 
707	 8.89816407229992E-02 
708	 9.15996698229239E-02 
709	 9.44375483032746E-02 
710	 9.74835709017702E-02 
711	 0.100565149991756 
712	 0.103450258353028 
713	 0.106072915924434 
714	 0.108706216322947 
715	 0.111058858133376 
716	 0.11297771080337 
717	 0.114867428732954 
718	 0.117106742959839 
719	 0.120108323198113 
720	 0.122649628138051 
721	 0.124258800325007 
722	 0.125809757645908 
723	 0.127504706383114 
724	 0.129381181666859 
725	 0.131160789924764 
726	 0.13259647555388 
727	 0.133580167500162 
728	 0.134935853063625 
729	 0.136917866762767 
730	 0.138095549170831 
731	 0.138906995683908 
732	 0.140161088972697 
733	 0.141296208435832 
734	 0.14221535654582 
735	 0.142828485601377 
736	 0.143784354901873 
737	 0.145363722836916 
738	 0.14627250607867 
739	 0.146692622422048 
740	 0.147323801671592 
741	 0.14771580072294 
742	 0.1479489066572 
743	 0.148832898427134 
744	 0.149790496096367 
745	 0.150326752639104 
746	 0.150704284006408 
747	 0.151085437594911 
748	 0.151746812539728 
749	 0.15247448988107 
750	 0.153124973628925 
751	 0.153433982479597 
752	 0.153621712340544 
753	 0.153948188665447 
754	 0.15442596970784 
755	 0.154976209349533 
756	 0.15538212513494 
757	 0.155667471222671 
758	 0.155879369622958 
759	 0.156203408021842 
760	 0.156800950196628 
761	 0.157351074565269 
762	 0.156925331810444 
763	 0.156324400211735 
764	 0.157459422115409 
765	 0.158832904858315 
766	 0.159699401998215 
767	 0.159618978900148 
768	 0.159459369867294 
769	 0.160205192110495 
770	 0.160795377102034 
771	 0.161072470444481 
772	 0.161486538866337 
773	 0.161662732630347 
774	 0.161454640337359 
775	 0.16185869834259 
776	 0.162602603544378 
777	 0.162943446836299 
778	 0.163291527914347 
779	 0.163655999972402 
780	 0.163555681822882 
781	 0.163729435402239 
782	 0.164687739417695 
783	 0.165291959919664 
784	 0.165433550332491 
785	 0.165272880823694 
786	 0.16541188597039 
787	 0.165964991979839 
788	 0.166279985094562 
789	 0.166378843808458 
790	 0.166342334199469 
791	 0.166547079278029 
792	 0.16698804331231 
793	 0.167524567202637 
794	 0.167639289629366 
795	 0.16729375910251 
796	 0.167363965404098 
797	 0.167758684752969 
798	 0.168298962890886 
799	 0.168603789545198 
800	 0.16863426224781 
801	 0.168476502477415 
802	 0.168555575649801 
803	 0.169036751484246 
804	 0.169654241128386 
805	 0.170245425990046 
806	 0.170665155661811 
807	 0.170830144972044 
808	 0.170908954078557 
809	 0.171423993614355 
810	 0.171949655391706 
811	 0.172224428166279 
812	 0.171875358606887 
813	 0.171514879320572 
814	 0.17200497180579 
815	 0.172689982588488 
816	 0.173378450011775 
817	 0.174145858500529 
818	 0.174364033355738 
819	 0.174083923161562 
820	 0.175200563635956 
821	 0.176259953278503 
822	 0.175454218979102 
823	 0.175327790120203 
824	 0.176202141639904 
825	 0.177341934034302 
826	 0.17788767671842 
827	 0.177568966830888 
828	 0.177300738254474 
829	 0.177386952864933 
830	 0.178050098488543 
831	 0.178642408543359 
832	 0.17902446343969 
833	 0.179315382030268 
834	 0.17952757471221 
835	 0.179667235031023 
836	 0.17960559151239 
837	 0.179793126127811 
838	 0.18070607137458 
839	 0.181498874554548 
840	 0.181865926471179 
841	 0.181470001172171 
842	 0.181380166091175 
843	 0.181910694516614 
844	 0.181740593357725 
845	 0.181723038454462 
846	 0.182844570719803 
847	 0.182972236357543 
848	 0.182308379807378 
849	 0.182754716408405 
850	 0.183317326108413 
851	 0.183524984166299 
852	 0.183049661336942 
853	 0.182477086311295 
854	 0.182485778889737 
855	 0.183239011188858 
856	 0.184207285587636 
857	 0.18396906083711 
858	 0.184262636152675 
859	 0.185226769861633 
860	 0.184279873422256 
861	 0.183612550501531 
862	 0.185230825332846 
863	 0.185496871685591 
864	 0.184793130853207 
865	 0.185735522579954 
866	 0.185979160133014 
867	 0.185284327671916 
868	 0.186365612219077 
869	 0.187254622062732 
870	 0.186490417644913 
871	 0.187000455937982 
872	 0.188187085479346 
873	 0.188009673375154 
874	 0.188087014483244 
875	 0.188777909229635 
876	 0.189485732457502 
877	 0.19016512717466 
878	 0.190778611185556 
879	 0.191374650049619 
880	 0.19183003746727 
881	 0.191929670511626 
882	 0.192639649887267 
883	 0.193832042502803 
884	 0.194155113361554 
885	 0.194000097998833 
886	 0.193806080037392 
887	 0.194855918661957 
888	 0.196401595931972 
889	 0.197256526708594 
890	 0.19734630671338 
891	 0.196846041791735 
892	 0.196298235719174 
893	 0.196609260655794 
894	 0.197868597214277 
895	 0.197200903907246 
896	 0.196420522457635 
897	 0.197848045036428 
898	 0.197461877686106 
899	 0.196074568170313 
900	 0.197970379681874 
901	 0.198652474870726 
902	 0.19742940014243 
903	 0.198191573710409 
904	 0.199337603905733 
905	 0.199540893761774 
906	 0.199413376260039 
907	 0.199327025434295 
908	 0.199800222705247 
909	 0.200125446629911 
910	 0.200225651284383 
911	 0.200873490634849 
912	 0.20052713001676 
913	 0.198701740040728 
914	 0.198432167440661 
915	 0.198626656376365 
916	 0.197637235750299 
917	 0.197674859281036 
918	 0.199019454869716 
919	 0.201611622388795 
920	 0.20194198123876 
921	 0.199589582535078 
922	 0.199403563235738 
923	 0.200393785851133 
924	 0.201300650469986 
925	 0.200463452459096 
926	 0.198672422793132 
927	 0.198546071827106 
928	 0.196597952006762 
929	 0.192515783253317 
930	 0.191827028896074 
931	 0.190774223036701 
932	 0.186936628731289 
933	 0.189083722445252 
934	 0.191387190603742 
935	 0.183774169203023 
936	 0.18490985707018 
937	 0.1926573809727 
938	 0.190448561614484 
939	 0.18385086588833 
940	 0.177131024547784 
941	 0.180066780513119 
942	 0.186113073830857 
943	 0.189491183093562 
944	 0.184560731945262 
945	 0.178142147632683 
946	 0.181832110061317 
947	 0.183359525765343 
948	 0.18067478417045 
949	 0.178541939593631 
950	 0.172003415708991 
951	 0.162137548783205 
952	 0.166498163678111 
953	 0.170259466509095 
954	 0.160946227371266 
955	 0.163368084080679 
956	 0.17103449735544 
957	 0.165628460579914 
958	 0.164006774028327 
959	 0.167398521360977 
960	 0.165650800890921 
961	 0.161730313901202 
962	 0.158301617940334 
963	 0.160691037956999 
964	 0.164013442318395 
965	 0.163604706048289 
966	 0.164105427869832 
967	 0.164585973883579 
968	 0.161590404929846 
969	 0.161421128350023 
970	 0.164507328862515 
971	 0.166031477508427 
972	 0.165193303584637 
973	 0.162216284026999 
974	 0.161189033389194 
975	 0.162794394006545 
976	 0.16687569052162 
977	 0.168373857848136 
978	 0.166585287378703 
979	 0.162209957667392 
980	 0.160300311074462 
981	 0.162272045040043 
982	 0.166738049869896 
983	 0.169123384398441 
984	 0.167255722133674 
985	 0.163968092839775 
986	 0.163339234765804 
987	 0.168856517916119 
988	 0.173164664851985 
989	 0.174262300901153 
990	 0.170985939855799 
991	 0.168438166882312 
992	 0.169072325837367 
993	 0.175265941804318 
994	 0.179440494878419 
995	 0.177721564020773 
996	 0.172449533085569 
997	 0.169742940247467 
998	 0.174650423182482 
999	 0.178031058219575 
1000	 0.178312954223292 
1001	 0.175676461008195 
1002	 0.175281415652704 
1003	 0.177710349216923 
1004	 0.179992510292012 
1005	 0.180299035864743 
1006	 0.179040463205614 
1007	 0.183408546183085 
1008	 0.185970648591463 
1009	 0.18199947357325 
1010	 0.184912116578299 
1011	 0.188197168411537 
1012	 0.181102865797594 
1013	 0.180844226569263 
1014	 0.186315856213869 
1015	 0.185572525150158 
1016	 0.184828895346688 
1017	 0.184554453066355 
1018	 0.178925924350892 
1019	 0.175744917790467 
1020	 0.179362492887244 
1021	 0.187161809184934 
1022	 0.191268157575928 
1023	 0.185688711731905 
1024	 0.190613608052995 
1025	 0.197098777486508 
1026	 0.185371887445522 
1027	 0.182859587332305 
1028	 0.191749840636278 
1029	 0.198010365505538 
1030	 0.197033937353796 
1031	 0.18994637799738 
1032	 0.19254494708741 
1033	 0.195936569171516 
1034	 0.194969090712923 
1035	 0.197244275177446 
1036	 0.20021519546219 
1037	 0.200331918562957 
1038	 0.19472378666392 
1039	 0.190660865701983 
1040	 0.200391820109347 
1041	 0.205039042037619 
1042	 0.19906580916867 
1043	 0.17801766412521 
1044	 0.181796534815092 
1045	 0.212886941009993 
1046	 0.214006230025044 
1047	 0.202986801447412 
1048	 0.192975473568387 
1049	 0.194177769099259 
1050	 0.202965234705788 
1051	 0.212475774014768 
1052	 0.206202638672926 
1053	 0.197325756162702 
1054	 0.209686721750975 
1055	 0.209717773939678 
1056	 0.197529531219497 
1057	 0.191676940305542 
1058	 0.192642783597093 
1059	 0.197242005247792 
1060	 0.189067836653145 
1061	 0.191828441834084 
1062	 0.209507206092238 
1063	 0.203466829648951 
1064	 0.195370503480354 
1065	 0.199628494558632 
1066	 0.182162054549074 
1067	 0.174031391419978 
1068	 0.209782978255452 
1069	 0.218113760473807 
1070	 0.207648410493516 
1071	 0.21322473820259 
1072	 0.208320252436791 
1073	 0.193049993094876 
1074	 0.181426711447976 
1075	 0.189458181126529 
