Wavelength	AVEI200015.asd
325	 4.34048563914059E-02 
326	 4.26687954676317E-02 
327	 3.72475551564669E-02 
328	 0.037415365415324 
329	 3.78684095296157E-02 
330	 3.69931173707853E-02 
331	 3.74017888238766E-02 
332	 3.69751801894263E-02 
333	 3.39663461211175E-02 
334	 3.63810592507669E-02 
335	 4.09963418615349E-02 
336	 3.70615695274097E-02 
337	 0.035147361050552 
338	 3.72524327387292E-02 
339	 0.036563182680072 
340	 3.53078427351493E-02 
341	 3.54604176062528E-02 
342	 3.48761554468893E-02 
343	 3.44364601862625E-02 
344	 3.65983481245285E-02 
345	 3.67166161039803E-02 
346	 0.034654189343219 
347	 3.50434283095041E-02 
348	 3.53629656516139E-02 
349	 3.41101672569205E-02 
350	 3.44563850800391E-02 
351	 3.51552347758913E-02 
352	 3.35983984407357E-02 
353	 3.32508858034769E-02 
354	 3.41982886110906E-02 
355	 3.35236620371598E-02 
356	 3.27506362813087E-02 
357	 3.26967952022492E-02 
358	 0.031841627635402 
359	 3.11424712012119E-02 
360	 3.22622164089932E-02 
361	 0.032477863304051 
362	 3.15771154932957E-02 
363	 3.12325604614561E-02 
364	 0.031210963361686 
365	 3.13008981939403E-02 
366	 3.09966093085487E-02 
367	 3.04280880492384E-02 
368	 2.98238132527468E-02 
369	 3.03691037754677E-02 
370	 3.17246012981784E-02 
371	 3.18882226124443E-02 
372	 3.19799767544579E-02 
373	 3.23456587602211E-02 
374	 3.10220046339298E-02 
375	 0.029668276917812 
376	 3.07315078179182E-02 
377	 3.15272161867436E-02 
378	 3.14018547620389E-02 
379	 3.04982610401279E-02 
380	 2.98999616526188E-02 
381	 0.030084140657071 
382	 2.98279170881572E-02 
383	 2.96795650630156E-02 
384	 3.04827257091073E-02 
385	 3.14395071948366E-02 
386	 3.22188931932099E-02 
387	 3.26915639470441E-02 
388	 3.21808515970862E-02 
389	 3.09407710192523E-02 
390	 3.23376761461765E-02 
391	 3.37104789437263E-02 
392	 3.17848912189129E-02 
393	 3.06031517436775E-02 
394	 3.07129864431411E-02 
395	 3.10767303692721E-02 
396	 0.03118913258288 
397	 0.030893515190946 
398	 3.09403636354321E-02 
399	 3.08163896464078E-02 
400	 2.99818566107255E-02 
401	 2.98611394174497E-02 
402	 3.03115627416162E-02 
403	 3.03563856076522E-02 
404	 3.03856009699444E-02 
405	 3.04949273835352E-02 
406	 3.03097121603454E-02 
407	 3.01229478930119E-02 
408	 3.03163789363143E-02 
409	 3.02070368465261E-02 
410	 2.98422448260681E-02 
411	 2.98155264261243E-02 
412	 2.97515481058061E-02 
413	 2.95509299343658E-02 
414	 2.97743316898218E-02 
415	 3.00562712620059E-02 
416	 2.98773147864023E-02 
417	 2.95641176231838E-02 
418	 2.94171470752302E-02 
419	 3.02112058578041E-02 
420	 3.05096525757386E-02 
421	 2.96790167910536E-02 
422	 2.91090891781063E-02 
423	 2.92182768414508E-02 
424	 3.03655679628302E-02 
425	 3.06746925134523E-02 
426	 2.99515158137412E-02 
427	 2.93932229612778E-02 
428	 0.029201174285892 
429	 0.029460765506264 
430	 2.95374865310515E-02 
431	 2.95786947288004E-02 
432	 0.030011201716928 
433	 2.99935706801043E-02 
434	 2.95215081120071E-02 
435	 2.93913696913981E-02 
436	 2.95185055328897E-02 
437	 2.98182620700276E-02 
438	 3.02151138895627E-02 
439	 0.030403103429857 
440	 2.98329905484154E-02 
441	 2.95572665095251E-02 
442	 2.97785452429017E-02 
443	 2.98080167175232E-02 
444	 2.98225573161596E-02 
445	 2.99713308970095E-02 
446	 3.00678357217121E-02 
447	 0.03013306045757 
448	 3.02823455982526E-02 
449	 3.04479602210319E-02 
450	 0.030566906707909 
451	 3.04295025287117E-02 
452	 3.03950885393592E-02 
453	 3.07986293923794E-02 
454	 3.09964326716125E-02 
455	 0.030973877160102 
456	 3.10652354612124E-02 
457	 3.11454346439887E-02 
458	 3.11946249075781E-02 
459	 3.13511113404667E-02 
460	 0.031512426919182 
461	 3.15499409748364E-02 
462	 3.16951855566084E-02 
463	 0.031843228384242 
464	 3.14612165993098E-02 
465	 3.13238254355537E-02 
466	 3.17470661465305E-02 
467	 3.18695232161714E-02 
468	 3.17444638357638E-02 
469	 3.15978706118344E-02 
470	 3.16627561158872E-02 
471	 3.18468001827248E-02 
472	 3.15311675518111E-02 
473	 0.031321044745622 
474	 3.15923434287485E-02 
475	 3.20077937669211E-02 
476	 3.24036871298274E-02 
477	 3.26104649183534E-02 
478	 3.25545947036086E-02 
479	 3.23222069886803E-02 
480	 3.23468700406893E-02 
481	 3.24036432083479E-02 
482	 3.23205172685145E-02 
483	 0.032409940447592 
484	 3.26048586206695E-02 
485	 3.26146490524568E-02 
486	 0.032693732441139 
487	 3.28984158732069E-02 
488	 3.29943639892925E-02 
489	 3.31893626505662E-02 
490	 3.36695774327735E-02 
491	 3.36163099387363E-02 
492	 3.31995498093654E-02 
493	 3.33242692666077E-02 
494	 3.33534325946678E-02 
495	 3.31252833264985E-02 
496	 3.33935448804333E-02 
497	 3.37449562816816E-02 
498	 3.35673677481091E-02 
499	 3.34567312597616E-02 
500	 3.36653945819302E-02 
501	 3.45988722514881E-02 
502	 3.50583394337891E-02 
503	 3.44736204455165E-02 
504	 3.46424514271558E-02 
505	 3.51061792350045E-02 
506	 3.46710068129596E-02 
507	 3.46612852911387E-02 
508	 3.52710927261538E-02 
509	 3.57259200520595E-02 
510	 3.59845024352391E-02 
511	 3.60471081308111E-02 
512	 3.61601017308931E-02 
513	 3.63144997857432E-02 
514	 3.63868372772449E-02 
515	 3.63239878715408E-02 
516	 3.62350406719052E-02 
517	 3.68183237145932E-02 
518	 3.74025767212104E-02 
519	 3.72400464313873E-02 
520	 3.71795548146145E-02 
521	 3.73906702643668E-02 
522	 3.78349828432384E-02 
523	 3.82349810950355E-02 
524	 3.84352248964459E-02 
525	 3.84096389456278E-02 
526	 3.83375426428382E-02 
527	 3.84606580842486E-02 
528	 3.88337328902454E-02 
529	 3.93673755858577E-02 
530	 3.97486237695629E-02 
531	 4.00145405321407E-02 
532	 4.01946908123805E-02 
533	 4.03122657084779E-02 
534	 4.04346826398487E-02 
535	 4.06958477500596E-02 
536	 0.040740977792492 
537	 4.06067120603947E-02 
538	 4.10048430469781E-02 
539	 4.15073260816859E-02 
540	 4.16835542368782E-02 
541	 4.20001095797235E-02 
542	 4.23475823421859E-02 
543	 4.21542259796742E-02 
544	 4.22356642141949E-02 
545	 4.28096147869755E-02 
546	 4.29127533366288E-02 
547	 4.27828059983686E-02 
548	 4.28432726981856E-02 
549	 4.30219315329028E-02 
550	 4.32976928135054E-02 
551	 0.043656175554676 
552	 4.38578959941817E-02 
553	 4.37943244797472E-02 
554	 4.39435245747885E-02 
555	 4.42356853548789E-02 
556	 4.44081704268966E-02 
557	 4.46489536934238E-02 
558	 4.48894962537109E-02 
559	 4.45745320210121E-02 
560	 0.044268740043124 
561	 4.45087062265761E-02 
562	 4.50473556341092E-02 
563	 4.55887689321523E-02 
564	 4.55051762340678E-02 
565	 4.54598239769247E-02 
566	 4.56852967764387E-02 
567	 4.58104258067929E-02 
568	 4.57901616598105E-02 
569	 4.56119276165899E-02 
570	 4.55487530929236E-02 
571	 0.04563960514618 
572	 4.57170206952779E-02 
573	 4.58592775762266E-02 
574	 4.61007310054081E-02 
575	 4.63574376969181E-02 
576	 4.65176806732968E-02 
577	 4.63852593373294E-02 
578	 0.046533033078254 
579	 4.69654241143285E-02 
580	 4.68051381079645E-02 
581	 4.66784385211962E-02 
582	 4.71155214820541E-02 
583	 4.72005507603369E-02 
584	 4.70627088638434E-02 
585	 4.75055031064589E-02 
586	 0.047778037474719 
587	 4.76283295321513E-02 
588	 4.75344834059609E-02 
589	 4.74431234457662E-02 
590	 4.72354251881028E-02 
591	 4.72953156124028E-02 
592	 4.76059608750486E-02 
593	 4.78016262815223E-02 
594	 4.79929086692198E-02 
595	 4.82126170388426E-02 
596	 4.82032411155177E-02 
597	 4.82008827391606E-02 
598	 4.86986902804541E-02 
599	 4.88238956912025E-02 
600	 4.85427843765207E-02 
601	 4.89837768949686E-02 
602	 4.94070027667896E-02 
603	 4.91729211283233E-02 
604	 4.91906251709579E-02 
605	 4.94486850165511E-02 
606	 4.94848779114262E-02 
607	 4.95917096455773E-02 
608	 4.97938131960534E-02 
609	 0.049588887490519 
610	 4.92397457638082E-02 
611	 4.91308068801342E-02 
612	 4.94705271108506E-02 
613	 5.00267064895312E-02 
614	 4.98642714230347E-02 
615	 4.95962147851767E-02 
616	 4.96241437585346E-02 
617	 0.049981258687071 
618	 5.02525789521658E-02 
619	 4.96753312530338E-02 
620	 0.049641992091986 
621	 5.02867023887981E-02 
622	 5.02180548715423E-02 
623	 4.99862330928727E-02 
624	 5.01209631584765E-02 
625	 5.03454703813551E-02 
626	 5.05742589240638E-02 
627	 5.07313691198477E-02 
628	 5.07901844570303E-02 
629	 5.07730013139097E-02 
630	 5.08857818676969E-02 
631	 5.10755445413641E-02 
632	 5.12497223894813E-02 
633	 5.12128236947414E-02 
634	 5.11014617744054E-02 
635	 5.15064126589433E-02 
636	 5.19983723213925E-02 
637	 5.22587227809728E-02 
638	 0.051951314290415 
639	 5.15793524545371E-02 
640	 5.21122581704223E-02 
641	 5.25618388111098E-02 
642	 5.26659792079161E-02 
643	 0.052785496183879 
644	 0.052795080002832 
645	 5.26129576300936E-02 
646	 5.27353653703003E-02 
647	 5.31768884734562E-02 
648	 5.38180268443009E-02 
649	 5.38654560715311E-02 
650	 5.31907840704217E-02 
651	 5.32051146908096E-02 
652	 5.34363431456484E-02 
653	 5.31843742993489E-02 
654	 5.31018465421704E-02 
655	 5.32578134369668E-02 
656	 5.33551413313442E-02 
657	 5.34048966161614E-02 
658	 5.33758626351617E-02 
659	 5.30460116738919E-02 
660	 5.26493722431538E-02 
661	 5.25846840334859E-02 
662	 5.24772184985995E-02 
663	 5.22536194833032E-02 
664	 5.21114428334568E-02 
665	 5.18645070195493E-02 
666	 5.13600409947623E-02 
667	 5.07025946904632E-02 
668	 5.00851100660685E-02 
669	 0.049858817689925 
670	 4.98754723656314E-02 
671	 5.00610779363903E-02 
672	 5.03647603779442E-02 
673	 5.04899285418685E-02 
674	 5.01336297880724E-02 
675	 5.00266667939858E-02 
676	 5.02686325100538E-02 
677	 5.05786054333319E-02 
678	 0.050963380389196 
679	 5.13848587544253E-02 
680	 5.16444316988472E-02 
681	 5.18699773292975E-02 
682	 5.22989989195986E-02 
683	 5.27587984658075E-02 
684	 5.32700424915916E-02 
685	 5.41200426737965E-02 
686	 5.51399441467197E-02 
687	 5.61666450990249E-02 
688	 5.72322678384807E-02 
689	 5.82507013989284E-02 
690	 5.92572745581829E-02 
691	 0.060388085372784 
692	 6.16921852321661E-02 
693	 6.29767639872114E-02 
694	 6.42737986511807E-02 
695	 6.55598751574055E-02 
696	 6.66855173271758E-02 
697	 6.77766967940639E-02 
698	 6.93621474414534E-02 
699	 7.06948414047321E-02 
700	 7.14646729845512E-02 
701	 0.072409926729473 
702	 0.07353356757626 
703	 7.47227147284283E-02 
704	 7.57732602300347E-02 
705	 7.67105696534644E-02 
706	 0.077845012400821 
707	 7.87029064377789E-02 
708	 7.90667430333529E-02 
709	 0.079873204857255 
710	 8.09537259647638E-02 
711	 8.17669258929336E-02 
712	 0.082358600496898 
713	 8.28217086357898E-02 
714	 0.083577807070087 
715	 8.43985482879756E-02 
716	 8.50820947011019E-02 
717	 8.54292945801517E-02 
718	 0.085566691649434 
719	 8.59836746603608E-02 
720	 8.69145043843559E-02 
721	 8.80953747889021E-02 
722	 8.85026953778252E-02 
723	 8.86241524629254E-02 
724	 8.89904911091722E-02 
725	 8.98605377999522E-02 
726	 9.09518334902624E-02 
727	 9.14221212301499E-02 
728	 9.15718010409513E-02 
729	 9.16448747950216E-02 
730	 9.21304301102321E-02 
731	 9.29685526181589E-02 
732	 9.39782931996456E-02 
733	 9.44236520679469E-02 
734	 9.44083140617731E-02 
735	 0.094770681949727 
736	 9.53899413928523E-02 
737	 9.61498836293134E-02 
738	 0.096862833871833 
739	 9.74936883030906E-02 
740	 9.80602162454023E-02 
741	 9.84338508007459E-02 
742	 9.87621929505841E-02 
743	 9.98796652500949E-02 
744	 0.100728164070107 
745	 0.100483622459037 
746	 0.100550673364468 
747	 0.100993500709071 
748	 0.101331949147082 
749	 0.101701140950103 
750	 0.10214589791739 
751	 0.102743573065378 
752	 0.103291905615692 
753	 0.103587314047556 
754	 0.103959248185064 
755	 0.104437201897575 
756	 0.104898889042109 
757	 0.105410004154845 
758	 0.105925060739603 
759	 0.105429111440645 
760	 0.104266750808866 
761	 0.105105075375872 
762	 0.106127202447647 
763	 0.106667416960169 
764	 0.107381739711493 
765	 0.107822721527186 
766	 0.107992632316808 
767	 0.108755666675066 
768	 0.109535756976678 
769	 0.109595612875094 
770	 0.110066667305944 
771	 0.110957718986618 
772	 0.111293368019721 
773	 0.111553923070435 
774	 0.112069655686874 
775	 0.112812225915692 
776	 0.113438128532071 
777	 0.113326835753749 
778	 0.113532851132194 
779	 0.114243028846005 
780	 0.114724769570722 
781	 0.115196180257489 
782	 0.115820415851409 
783	 0.116296591975747 
784	 0.116620172447447 
785	 0.116896200593751 
786	 0.117040835499388 
787	 0.117158839181089 
788	 0.117875732590998 
789	 0.118376941840572 
790	 0.117965587221 
791	 0.118265812687856 
792	 0.119116944599213 
793	 0.119334048342711 
794	 0.11981792539883 
795	 0.120662136086596 
796	 0.120724074316174 
797	 0.120746828982029 
798	 0.121491436906497 
799	 0.121868970614217 
800	 0.121913776760526 
801	 0.122281090929676 
802	 0.122666665328825 
803	 0.123063895395606 
804	 0.124077740728957 
805	 0.124918120894236 
806	 0.124763150694503 
807	 0.12497565228683 
808	 0.125482454285863 
809	 0.125140859378106 
810	 0.125123121958104 
811	 0.125811598916227 
812	 0.126033131766639 
813	 0.126188877262576 
814	 0.126897281294335 
815	 0.126264405451061 
816	 0.124977060142325 
817	 0.126772556311082 
818	 0.128453486565172 
819	 0.12871821285676 
820	 0.128985789749493 
821	 0.129329167019373 
822	 0.129706073504027 
823	 0.130077334269849 
824	 0.130484940843792 
825	 0.131111593159866 
826	 0.131775052149424 
827	 0.132336943789251 
828	 0.132277694747518 
829	 0.132363384543581 
830	 0.133519255988532 
831	 0.133943684471015 
832	 0.133692087906993 
833	 0.134054001969665 
834	 0.134673606883614 
835	 0.135416669025841 
836	 0.136377034944234 
837	 0.137088509458389 
838	 0.137064929942503 
839	 0.137235191206507 
840	 0.137660915719902 
841	 0.137917969988167 
842	 0.138016504559874 
843	 0.138014258694899 
844	 0.13819775639863 
845	 0.138759086249065 
846	 0.139804805294805 
847	 0.139429962145611 
848	 0.138197464669024 
849	 0.138805270670945 
850	 0.140060572718239 
851	 0.141191623138235 
852	 0.140700006940527 
853	 0.139774204052756 
854	 0.139815057485639 
855	 0.139721358313739 
856	 0.139774586589537 
857	 0.141220336383738 
858	 0.14243005594686 
859	 0.142856485211564 
860	 0.143038758592098 
861	 0.142845343391692 
862	 0.142218982891847 
863	 0.142392205034004 
864	 0.143168694221809 
865	 0.143512426247799 
866	 0.143701474857533 
867	 0.143786761220488 
868	 0.143638659627766 
869	 0.143874981327106 
870	 0.144907529343897 
871	 0.145620310854239 
872	 0.146133212693425 
873	 0.147042596822132 
874	 0.147940317052089 
875	 0.148510917557103 
876	 0.147896272102128 
877	 0.147941894530482 
878	 0.149744340806418 
879	 0.150780640849366 
880	 0.151131445129737 
881	 0.151553480105879 
882	 0.151441256258492 
883	 0.1510874009708 
884	 0.151936783018295 
885	 0.152850762610901 
886	 0.153227382432226 
887	 0.153619646898634 
888	 0.154712929096339 
889	 0.157271271328477 
890	 0.158474076383687 
891	 0.158087972330315 
892	 0.157679424545763 
893	 0.157809807582607 
894	 0.158511681229707 
895	 0.157541022910153 
896	 0.155827249298782 
897	 0.154847830004865 
898	 0.155323693076736 
899	 0.157044910802824 
900	 0.159155232966256 
901	 0.15974797846835 
902	 0.158592269154303 
903	 0.157852669341875 
904	 0.15822313150096 
905	 0.160007020684781 
906	 0.161587987396621 
907	 0.161587369771737 
908	 0.157980763016323 
909	 0.157625115882735 
910	 0.161020533121396 
911	 0.161299033209735 
912	 0.160940165255192 
913	 0.161201265619227 
914	 0.160291955775975 
915	 0.159524680596766 
916	 0.160569716859827 
917	 0.161396938258065 
918	 0.161810851054535 
919	 0.162528235873571 
920	 0.163209615123972 
921	 0.163910885177608 
922	 0.165820676872136 
923	 0.166109557381614 
924	 0.162617699397766 
925	 0.161801953252375 
926	 0.163246594574214 
927	 0.163252033127225 
928	 0.165046431454959 
929	 0.168391781066915 
930	 0.167159330601078 
931	 0.161896443354851 
932	 0.154374801904444 
933	 0.154084215882143 
934	 0.159293514247858 
935	 0.163558036182138 
936	 0.162222830090931 
937	 0.15648320163183 
938	 0.152958683540795 
939	 0.151150711786054 
940	 0.150713044359409 
941	 0.14963023334697 
942	 0.15076398972776 
943	 0.154814027089672 
944	 0.148942454197323 
945	 0.139650539042923 
946	 0.139858256936149 
947	 0.144075865115498 
948	 0.150223054981612 
949	 0.157460224160733 
950	 0.155437565778044 
951	 0.143432939409054 
952	 0.142803694297176 
953	 0.145651900641462 
954	 0.144077709073777 
955	 0.14728732382755 
956	 0.151475033072476 
957	 0.14791238177052 
958	 0.143391416264705 
959	 0.140845703236961 
960	 0.143168559276302 
961	 0.144710114598323 
962	 0.142752879718887 
963	 0.138280677967787 
964	 0.135567630471215 
965	 0.138137949062901 
966	 0.137816145827303 
967	 0.138511554059441 
968	 0.151167617742779 
969	 0.153664999445482 
970	 0.144946505647775 
971	 0.145250082153018 
972	 0.147252523798693 
973	 0.147309952009044 
974	 0.149263897788182 
975	 0.151512129665902 
976	 0.151897504417763 
977	 0.147577439020122 
978	 0.142446195333122 
979	 0.145752655247984 
980	 0.145888540664947 
981	 0.142281561449159 
982	 0.146316642268079 
983	 0.149933019093774 
984	 0.14958220700951 
985	 0.152642217012507 
986	 0.154214303775811 
987	 0.149529250611458 
988	 0.1535219477159 
989	 0.162024400090955 
990	 0.161882633353821 
991	 0.157717221063765 
992	 0.152845697438986 
993	 0.154195753869702 
994	 0.156140118466365 
995	 0.155987105120244 
996	 0.15659736371722 
997	 0.157718519467398 
998	 0.158965038947115 
999	 0.161378869576557 
1000	 0.162445388787514 
1001	 0.157661941615581 
1002	 0.159824391844761 
1003	 0.167232658490086 
1004	 0.163435566242884 
1005	 0.156896367090884 
1006	 0.152746166039473 
1007	 0.157429046874054 
1008	 0.164545625966836 
1009	 0.168406654274803 
1010	 0.172695963721126 
1011	 0.172906757438809 
1012	 0.162712614583562 
1013	 0.157119423353764 
1014	 0.158436757973045 
1015	 0.162609513832475 
1016	 0.167090204562475 
1017	 0.168954426414277 
1018	 0.160533145726435 
1019	 0.159426283315758 
1020	 0.172977335538716 
1021	 0.181334179035668 
1022	 0.180073451092526 
1023	 0.168937552285641 
1024	 0.17593103251711 
1025	 0.18999797907566 
1026	 0.185483879939583 
1027	 0.172585840310229 
1028	 0.160964776936824 
1029	 0.173754922851621 
1030	 0.179584017810376 
1031	 0.171705297999114 
1032	 0.173195372049638 
1033	 0.179147678488508 
1034	 0.184921463514556 
1035	 0.18406361650304 
1036	 0.176735629890635 
1037	 0.165609907334896 
1038	 0.171934937226542 
1039	 0.183363358580585 
1040	 0.174402962269085 
1041	 0.174273174416434 
1042	 0.182614981924215 
1043	 0.175327013455673 
1044	 0.16995302000165 
1045	 0.170958412790624 
1046	 0.169119426042467 
1047	 0.16945143292963 
1048	 0.174537439264805 
1049	 0.18092370301255 
1050	 0.183179325100178 
1051	 0.17786170037207 
1052	 0.178621350972049 
1053	 0.188267197207262 
1054	 0.207303915736901 
1055	 0.203556318616286 
1056	 0.179878164889027 
1057	 0.165602027976509 
1058	 0.168383351222104 
1059	 0.181548944144417 
1060	 0.166342206236707 
1061	 0.170967845683925 
1062	 0.205201438405885 
1063	 0.200242283945412 
1064	 0.187111798548815 
1065	 0.190444244092919 
1066	 0.189175578041869 
1067	 0.201537619623158 
1068	 0.239984968841661 
1069	 0.223023230933657 
1070	 0.184478618646026 
1071	 0.207438193337449 
1072	 0.193074131699347 
1073	 0.152598224165996 
1074	 0.18044078958567 
1075	 0.183541316926378 
