Wavelength	AVEI200061.asd
325	 3.24741952967957E-02 
326	 2.87501109858146E-02 
327	 2.56199375419477E-02 
328	 2.59537616842066E-02 
329	 2.56072707762186E-02 
330	 2.38835310428575E-02 
331	 2.58555705526792E-02 
332	 2.82012228671577E-02 
333	 2.77926504165549E-02 
334	 3.06745843353731E-02 
335	 3.46394060751128E-02 
336	 3.20691266124331E-02 
337	 3.13312133301708E-02 
338	 3.35145073515797E-02 
339	 3.07701137838798E-02 
340	 0.02826416628307 
341	 3.00635997530168E-02 
342	 2.98287546048302E-02 
343	 2.79321099320926E-02 
344	 2.65601152139885E-02 
345	 2.84292536789629E-02 
346	 3.22750362283539E-02 
347	 3.06998568618913E-02 
348	 2.77318546016383E-02 
349	 2.65410082095694E-02 
350	 0.028699547715863 
351	 3.10038321531303E-02 
352	 0.028281481045246 
353	 2.59229602910123E-02 
354	 2.53961922835119E-02 
355	 2.66982169563594E-02 
356	 2.73582747304515E-02 
357	 2.61943848365899E-02 
358	 2.66723070960486E-02 
359	 2.75883887772963E-02 
360	 2.65920814194281E-02 
361	 2.48641560022748E-02 
362	 2.36131755759388E-02 
363	 2.57933422840554E-02 
364	 2.75227411873521E-02 
365	 2.68699477934175E-02 
366	 2.64341931411705E-02 
367	 2.59651113626002E-02 
368	 2.47466585749734E-02 
369	 2.50024497751196E-02 
370	 2.66092664569483E-02 
371	 2.76086192094111E-02 
372	 2.76320858305533E-02 
373	 2.65109962089252E-02 
374	 2.47236267119101E-02 
375	 2.39960321395272E-02 
376	 2.64278186819481E-02 
377	 2.75756786341296E-02 
378	 2.68325930790624E-02 
379	 2.60766734720564E-02 
380	 2.60082099554538E-02 
381	 2.67711640926921E-02 
382	 2.63266236046058E-02 
383	 2.56611462892415E-02 
384	 2.62779674252578E-02 
385	 2.54409462271963E-02 
386	 2.39455439413724E-02 
387	 0.026356059759752 
388	 2.80473477435498E-02 
389	 2.71906718681914E-02 
390	 2.70044622662516E-02 
391	 0.026806786250587 
392	 2.55135241867173E-02 
393	 2.46827079867727E-02 
394	 2.44955813524941E-02 
395	 2.42800518021316E-02 
396	 2.48581203846555E-02 
397	 2.62334969070362E-02 
398	 2.67014513877006E-02 
399	 2.65681795690916E-02 
400	 2.63493796711694E-02 
401	 2.57561037974252E-02 
402	 2.51558663347409E-02 
403	 2.55147083448254E-02 
404	 2.57687336978685E-02 
405	 2.55377882850695E-02 
406	 2.53528259403487E-02 
407	 2.53424110558776E-02 
408	 2.55964667958464E-02 
409	 2.54061024142351E-02 
410	 2.50090512850443E-02 
411	 2.56116592989715E-02 
412	 2.60122432091163E-02 
413	 2.57275397435831E-02 
414	 2.55859969622911E-02 
415	 2.56229650285642E-02 
416	 2.57745562577189E-02 
417	 0.025536441155395 
418	 2.51434922571434E-02 
419	 2.57561679955015E-02 
420	 2.61755427624591E-02 
421	 2.58177452299347E-02 
422	 2.55116993356866E-02 
423	 2.53958040652373E-02 
424	 2.55097482741486E-02 
425	 2.59178631275913E-02 
426	 2.63604969502037E-02 
427	 2.58968311068938E-02 
428	 2.54935671187692E-02 
429	 0.025728092494791 
430	 2.57057484570547E-02 
431	 2.56681336852847E-02 
432	 2.62281773480391E-02 
433	 2.63678858675188E-02 
434	 2.59954252589048E-02 
435	 2.58311416371321E-02 
436	 2.58332290547991E-02 
437	 2.59386172131959E-02 
438	 2.58944483324318E-02 
439	 0.025780120783472 
440	 2.58068011128691E-02 
441	 2.59022694494023E-02 
442	 2.60395726768809E-02 
443	 2.62189469075841E-02 
444	 2.62575951531394E-02 
445	 2.60611805386588E-02 
446	 2.63037879693673E-02 
447	 2.67340265365974E-02 
448	 2.65232764591915E-02 
449	 2.64629411460635E-02 
450	 2.66953268636861E-02 
451	 2.65388375466253E-02 
452	 2.62900799026745E-02 
453	 2.62868976931477E-02 
454	 2.66301437382474E-02 
455	 2.71100831559328E-02 
456	 2.71013721300591E-02 
457	 2.71039728095812E-02 
458	 2.72812775742532E-02 
459	 2.73304972631676E-02 
460	 0.027298443101488 
461	 2.72688841798295E-02 
462	 2.72380727001423E-02 
463	 2.72267766473145E-02 
464	 2.72487282314813E-02 
465	 2.74714698682823E-02 
466	 2.78798273702002E-02 
467	 2.77601936113487E-02 
468	 2.73843380671557E-02 
469	 2.72644742212018E-02 
470	 2.74709228024336E-02 
471	 2.78054681486325E-02 
472	 0.027441360289789 
473	 0.027231161674411 
474	 2.76695592704528E-02 
475	 2.80296099193593E-02 
476	 2.81886203161804E-02 
477	 2.81207482657433E-02 
478	 2.80211447199915E-02 
479	 2.80036315373284E-02 
480	 2.82472237354061E-02 
481	 2.83458110054776E-02 
482	 2.80146672273374E-02 
483	 2.79643413820844E-02 
484	 2.81400525553746E-02 
485	 2.80869034384487E-02 
486	 2.81731165184891E-02 
487	 2.84878609508697E-02 
488	 2.88037925310849E-02 
489	 2.90302804705833E-02 
490	 2.90948763845288E-02 
491	 0.028947933708302 
492	 2.87462353744148E-02 
493	 0.028912726179638 
494	 2.90295214978054E-02 
495	 2.89725433094771E-02 
496	 2.92354255722218E-02 
497	 2.93893144721161E-02 
498	 2.88341750230741E-02 
499	 2.87985134954832E-02 
500	 2.93988631271509E-02 
501	 2.99850527787521E-02 
502	 3.01435774572352E-02 
503	 2.97152003539284E-02 
504	 2.96909418999818E-02 
505	 2.98734103813273E-02 
506	 2.96754994181902E-02 
507	 2.98023815449145E-02 
508	 3.02960512793582E-02 
509	 3.05368975507492E-02 
510	 3.05940472276092E-02 
511	 3.05686653371555E-02 
512	 3.08586253370818E-02 
513	 3.12324235019291E-02 
514	 3.09469479421682E-02 
515	 3.08687563673157E-02 
516	 3.12588094157947E-02 
517	 3.16829393712937E-02 
518	 3.19421371122391E-02 
519	 3.18715307357133E-02 
520	 3.17114752234443E-02 
521	 3.16585080924051E-02 
522	 3.20707507997583E-02 
523	 3.24341013279401E-02 
524	 3.25178296441681E-02 
525	 3.25010197938984E-02 
526	 3.26028008361337E-02 
527	 3.31075038070594E-02 
528	 3.32415565114814E-02 
529	 3.30022852995071E-02 
530	 3.31258285642474E-02 
531	 3.33215329679369E-02 
532	 3.34291577800057E-02 
533	 3.38626148950866E-02 
534	 3.43876042291022E-02 
535	 3.44789473765891E-02 
536	 3.42412287559456E-02 
537	 3.39026125328727E-02 
538	 3.43464840101905E-02 
539	 3.48504412112203E-02 
540	 3.47063358130964E-02 
541	 3.47229882710052E-02 
542	 3.49144939905748E-02 
543	 3.48397652975219E-02 
544	 3.49981224598738E-02 
545	 0.035495791252187 
546	 3.56543759435285E-02 
547	 3.55756228964753E-02 
548	 3.54762212263149E-02 
549	 3.56494690888049E-02 
550	 3.60605686781878E-02 
551	 3.63130101488346E-02 
552	 3.64463315875389E-02 
553	 3.64901756856614E-02 
554	 3.65090245094309E-02 
555	 3.65603704231062E-02 
556	 3.67243799042258E-02 
557	 3.68944350342229E-02 
558	 3.69955507265074E-02 
559	 3.68839357073948E-02 
560	 3.67326117848744E-02 
561	 3.67346099672364E-02 
562	 3.72484538175752E-02 
563	 3.79438674434896E-02 
564	 3.77875720666284E-02 
565	 3.77310530155153E-02 
566	 3.80737181153826E-02 
567	 3.81203702561167E-02 
568	 3.79975321753071E-02 
569	 3.79445652581471E-02 
570	 3.80049084155913E-02 
571	 3.81416834562338E-02 
572	 3.81474653405345E-02 
573	 0.038202374102912 
574	 3.84102713857366E-02 
575	 3.86855285033003E-02 
576	 3.88703151696357E-02 
577	 0.038697036041749 
578	 3.86238684840378E-02 
579	 3.87658716337096E-02 
580	 3.88801874747218E-02 
581	 3.90248387606378E-02 
582	 3.92561692469298E-02 
583	 3.95975893194605E-02 
584	 3.98691269348904E-02 
585	 3.95823578655582E-02 
586	 3.94121219326676E-02 
587	 3.95883734967032E-02 
588	 3.96182127294103E-02 
589	 3.95854936582462E-02 
590	 3.96559112061498E-02 
591	 3.96517501040485E-02 
592	 3.96457610772955E-02 
593	 4.00006211855438E-02 
594	 4.03858530036508E-02 
595	 4.05733898260739E-02 
596	 4.04035090538631E-02 
597	 4.02430392537708E-02 
598	 4.07797034780142E-02 
599	 4.10868120425014E-02 
600	 4.10165003378594E-02 
601	 0.04127916147505 
602	 4.15548860810311E-02 
603	 4.15627832882222E-02 
604	 4.17604695836449E-02 
605	 0.041989818392896 
606	 4.15838122536208E-02 
607	 0.041464473477951 
608	 4.18967276032477E-02 
609	 4.20148212498042E-02 
610	 4.19344608116809E-02 
611	 4.19033089836307E-02 
612	 4.20622361008405E-02 
613	 4.23501216340188E-02 
614	 4.24311353750243E-02 
615	 4.24209971652078E-02 
616	 4.24072274663895E-02 
617	 4.25359831148469E-02 
618	 0.042619702332256 
619	 4.22598882439466E-02 
620	 4.23830881419915E-02 
621	 4.30234511022597E-02 
622	 4.30715700155955E-02 
623	 4.27947566184587E-02 
624	 4.25176540121262E-02 
625	 4.28633687898781E-02 
626	 4.35455060346443E-02 
627	 4.34904371599213E-02 
628	 4.34380323763946E-02 
629	 4.36615750248466E-02 
630	 4.40268143293639E-02 
631	 4.41536367356339E-02 
632	 4.36078754257819E-02 
633	 4.36623998233101E-02 
634	 4.43416709132966E-02 
635	 4.46443091663694E-02 
636	 4.49291892546308E-02 
637	 4.53122796856878E-02 
638	 4.50430082368523E-02 
639	 4.45921594407562E-02 
640	 4.49564521732003E-02 
641	 4.52367497028629E-02 
642	 4.52424794572669E-02 
643	 4.54190874144474E-02 
644	 4.56472433140217E-02 
645	 4.58274793763103E-02 
646	 4.62594230432842E-02 
647	 4.67298749480853E-02 
648	 4.64852087806793E-02 
649	 4.65379865030799E-02 
650	 4.70981333940545E-02 
651	 4.68870597194265E-02 
652	 4.63386602666713E-02 
653	 4.60891066020962E-02 
654	 4.62034557761003E-02 
655	 4.65331194173409E-02 
656	 4.64120951350934E-02 
657	 4.62809883020237E-02 
658	 4.63677225589695E-02 
659	 4.62561358750649E-02 
660	 0.046061988834773 
661	 4.60401176118468E-02 
662	 0.045960894522164 
663	 4.58262222965288E-02 
664	 0.045932141614019 
665	 4.60002905783215E-02 
666	 4.57909438802306E-02 
667	 4.54034234276924E-02 
668	 4.49784920146202E-02 
669	 4.47644930881699E-02 
670	 0.04471021920335 
671	 4.48087595536756E-02 
672	 4.51022922953951E-02 
673	 4.53282146292398E-02 
674	 4.52006135487321E-02 
675	 0.045086850335673 
676	 0.045093905093454 
677	 0.045194490389599 
678	 4.55867848528088E-02 
679	 4.63106576952412E-02 
680	 4.69012480457619E-02 
681	 4.72068637448386E-02 
682	 0.047081582651827 
683	 4.72461055475721E-02 
684	 0.047889411870616 
685	 4.88351761096792E-02 
686	 4.97555456901199E-02 
687	 5.03638263805275E-02 
688	 5.11783016552898E-02 
689	 5.21448225199655E-02 
690	 5.31369523939769E-02 
691	 5.38089909951767E-02 
692	 5.42314983375808E-02 
693	 5.52253710751802E-02 
694	 5.63091616982418E-02 
695	 5.69159653013376E-02 
696	 5.79650094704389E-02 
697	 5.93510231689762E-02 
698	 6.04121825496826E-02 
699	 6.12844759713895E-02 
700	 6.20486584219411E-02 
701	 6.30117062714754E-02 
702	 6.41488535532198E-02 
703	 6.53756731413388E-02 
704	 6.62589837739836E-02 
705	 6.68582745632598E-02 
706	 6.78095268167399E-02 
707	 6.84342036488468E-02 
708	 6.84335678028071E-02 
709	 6.92036870903245E-02 
710	 7.04497569529546E-02 
711	 7.12850753581727E-02 
712	 7.19089881197419E-02 
713	 0.072387934710725 
714	 7.29069101751358E-02 
715	 7.32990443259353E-02 
716	 7.34305332801225E-02 
717	 7.36241926773016E-02 
718	 7.40737711305303E-02 
719	 7.49413503023583E-02 
720	 7.59882655927522E-02 
721	 7.68994561690707E-02 
722	 7.73566660646463E-02 
723	 7.75417954471579E-02 
724	 7.76085016493404E-02 
725	 7.83734694263146E-02 
726	 7.95039369161876E-02 
727	 7.94481761481066E-02 
728	 7.95531974554033E-02 
729	 8.03561711048817E-02 
730	 8.04652560458848E-02 
731	 8.06197782010555E-02 
732	 0.08199323525779 
733	 8.26681978009826E-02 
734	 0.082568343712315 
735	 8.28587924369671E-02 
736	 0.083354438563578 
737	 8.39457522023403E-02 
738	 8.48777115692114E-02 
739	 8.57455270281336E-02 
740	 8.57445607639323E-02 
741	 8.60000382390349E-02 
742	 8.67502488149555E-02 
743	 8.74536090048869E-02 
744	 8.78290270545903E-02 
745	 8.77230807952006E-02 
746	 8.80420968638629E-02 
747	 8.86906396927013E-02 
748	 8.90497458928624E-02 
749	 8.92947585060627E-02 
750	 8.95342262511468E-02 
751	 9.00846010146888E-02 
752	 9.06911440694584E-02 
753	 9.10531403351385E-02 
754	 9.09945036946829E-02 
755	 9.08798427801311E-02 
756	 9.19062209796199E-02 
757	 9.25748843638871E-02 
758	 9.22879492615318E-02 
759	 9.20376046475812E-02 
760	 9.21750693169215E-02 
761	 9.33137776033977E-02 
762	 9.40982724038051E-02 
763	 9.43142114606259E-02 
764	 9.49240748111483E-02 
765	 9.52902704152205E-02 
766	 9.53628308137204E-02 
767	 9.60332670459351E-02 
768	 9.68716314753401E-02 
769	 9.73521330640929E-02 
770	 0.097700337691355 
771	 0.097982335545976 
772	 9.82469699740615E-02 
773	 9.86731981691562E-02 
774	 9.93575157716045E-02 
775	 0.100082310141056 
776	 0.100606908981907 
777	 0.100559021360527 
778	 0.100838928647776 
779	 0.101543532923844 
780	 0.101785630307192 
781	 0.101935971436022 
782	 0.102317460529293 
783	 0.10291414296768 
784	 0.103521761169121 
785	 0.103718139014562 
786	 0.103838258043452 
787	 0.104052610836876 
788	 0.104567661086167 
789	 0.105087213001759 
790	 0.105339926006772 
791	 0.105767300109081 
792	 0.106289094799899 
793	 0.106486917099963 
794	 0.106890559702877 
795	 0.107575987450416 
796	 0.107917698002685 
797	 0.108107847953347 
798	 0.108363704724164 
799	 0.108267293969613 
800	 0.108160911497752 
801	 0.109251405302237 
802	 0.109747434218504 
803	 0.109312911617226 
804	 0.110399451257682 
805	 0.111701681646542 
806	 0.111688014276283 
807	 0.111623830150353 
808	 0.111763089205063 
809	 0.112065529090137 
810	 0.11237134269579 
811	 0.112576124480033 
812	 0.112545012319745 
813	 0.112635325322473 
814	 0.113306212420152 
815	 0.113156002843863 
816	 0.112527429086217 
817	 0.113639954649909 
818	 0.115131406052185 
819	 0.116253513550864 
820	 0.116789897818308 
821	 0.116848552773597 
822	 0.116588784085321 
823	 0.11704107858922 
824	 0.118039119176954 
825	 0.118359725781248 
826	 0.118900576549775 
827	 0.119923276270441 
828	 0.120550861615381 
829	 0.120801597129415 
830	 0.120819530231278 
831	 0.121181703684731 
832	 0.121852781287309 
833	 0.122249267716555 
834	 0.122997386439701 
835	 0.124057840230086 
836	 0.123648306740263 
837	 0.123204943834257 
838	 0.124429203776711 
839	 0.125323335430422 
840	 0.125754693841934 
841	 0.126698190784835 
842	 0.127213019948916 
843	 0.126959754964256 
844	 0.126381933370586 
845	 0.126180733675238 
846	 0.12704171691896 
847	 0.127896542129597 
848	 0.128361182189993 
849	 0.128001561800221 
850	 0.128168441733327 
851	 0.129172605270716 
852	 0.129062882740057 
853	 0.128906145914432 
854	 0.129867354649538 
855	 0.129057161066376 
856	 0.127549621525399 
857	 0.129427949528288 
858	 0.131138231847656 
859	 0.131577306518681 
860	 0.131903050906996 
861	 0.13179028273196 
862	 0.131004273326077 
863	 0.131345262021476 
864	 0.132255223195867 
865	 0.13143647523337 
866	 0.131878614714458 
867	 0.133802423801853 
868	 0.133231483538063 
869	 0.132630621130439 
870	 0.134031418165396 
871	 0.135582124401478 
872	 0.136631180248842 
873	 0.136476072331781 
874	 0.136844769545603 
875	 0.137823876775337 
876	 0.137123877909602 
877	 0.137477247948306 
878	 0.140408212768363 
879	 0.141505842864406 
880	 0.14118590435872 
881	 0.14116091953079 
882	 0.141637060974929 
883	 0.142414334449697 
884	 0.142254080652833 
885	 0.142349901718031 
886	 0.143342959849919 
887	 0.14448225563292 
888	 0.145907363287585 
889	 0.147875069576051 
890	 0.147857168554754 
891	 0.146302901164695 
892	 0.146789741160014 
893	 0.146719291056482 
894	 0.145244344280252 
895	 0.145018756023252 
896	 0.145567830351178 
897	 0.146078313450911 
898	 0.147614178965751 
899	 0.149640852524405 
900	 0.150526491301686 
901	 0.150909711178678 
902	 0.150956057227992 
903	 0.150290609709045 
904	 0.150371117563955 
905	 0.152097212113823 
906	 0.152847793908114 
907	 0.152436959802668 
908	 0.151249345792317 
909	 0.15091675322327 
910	 0.151734747551068 
911	 0.152483670410286 
912	 0.153181475193197 
913	 0.153592361645894 
914	 0.152388863208285 
915	 0.151386131266169 
916	 0.15279134810566 
917	 0.153972373749687 
918	 0.153879791346223 
919	 0.150802295960162 
920	 0.150977341355304 
921	 0.155283151403887 
922	 0.155905205152416 
923	 0.155042552621658 
924	 0.154952376889023 
925	 0.154363316960848 
926	 0.153749032386281 
927	 0.154545779012799 
928	 0.154487400729304 
929	 0.1531916443347 
930	 0.154353286638606 
931	 0.150263039951745 
932	 0.137017158057249 
933	 0.141768086394605 
934	 0.152966273125161 
935	 0.146050865769828 
936	 0.139733613227993 
937	 0.138915744848774 
938	 0.145242752142497 
939	 0.144996165644172 
940	 0.137031500325018 
941	 0.137101361543165 
942	 0.140984869002829 
943	 0.144484000817942 
944	 0.143577327209103 
945	 0.139452094734872 
946	 0.135053623441296 
947	 0.134360284449274 
948	 0.137898928430742 
949	 0.143872139341596 
950	 0.145174496969907 
951	 0.140541873877147 
952	 0.140283468528624 
953	 0.145525147080664 
954	 0.154908247876844 
955	 0.149915525295943 
956	 0.139161206537441 
957	 0.142850964077483 
958	 0.14795466160232 
959	 0.149189541051975 
960	 0.140898588231198 
961	 0.135435135788891 
962	 0.137797320405134 
963	 0.140678253706277 
964	 0.139894295663031 
965	 0.132899745282628 
966	 0.132677695183527 
967	 0.139693843968716 
968	 0.151114687807603 
969	 0.152800225840187 
970	 0.144893289782719 
971	 0.144327367109706 
972	 0.146025060513109 
973	 0.14734718168626 
974	 0.150974821697035 
975	 0.15147108402179 
976	 0.143755848384801 
977	 0.144956042024878 
978	 0.150943044812274 
979	 0.145796858625602 
980	 0.139929155743934 
981	 0.137534724244879 
982	 0.141984304220265 
983	 0.147311616659512 
984	 0.149975872696072 
985	 0.15062742901175 
986	 0.149830483440344 
987	 0.148454141072821 
988	 0.149415871433492 
989	 0.152115772816498 
990	 0.154215277982889 
991	 0.156847786545681 
992	 0.158854111342885 
993	 0.155296019540515 
994	 0.152924401999905 
995	 0.154969193303888 
996	 0.157733519689101 
997	 0.158765933576652 
998	 0.156493498675783 
999	 0.15833106104778 
1000	 0.161246371959373 
1001	 0.157733102470741 
1002	 0.160250952442068 
1003	 0.167245420861233 
1004	 0.1633170995818 
1005	 0.15752046071866 
1006	 0.154314776761777 
1007	 0.154986093246705 
1008	 0.160315116286815 
1009	 0.168969951797534 
1010	 0.171598317951044 
1011	 0.166747732470452 
1012	 0.154968705321331 
1013	 0.160972608396265 
1014	 0.176435096393331 
1015	 0.166796813856872 
1016	 0.161803587918202 
1017	 0.168191268733534 
1018	 0.174442063587502 
1019	 0.174964040287781 
1020	 0.168773910220341 
1021	 0.171806002396523 
1022	 0.172505233306341 
1023	 0.160677400706704 
1024	 0.166049778575831 
1025	 0.177705770046286 
1026	 0.170095108337916 
1027	 0.162549289633859 
1028	 0.160960588013176 
1029	 0.168592938074874 
1030	 0.173797886761003 
1031	 0.172216124359973 
1032	 0.164986516960927 
1033	 0.164398707020167 
1034	 0.175206794454414 
1035	 0.176915920369999 
1036	 0.170169694421781 
1037	 0.15950848709581 
1038	 0.165063247435964 
1039	 0.175047942732162 
1040	 0.164920351212873 
1041	 0.163388155467092 
1042	 0.172519410959553 
1043	 0.175522253852872 
1044	 0.177796576490944 
1045	 0.178543139251466 
1046	 0.168620667777514 
1047	 0.162046715104315 
1048	 0.167369982950333 
1049	 0.178390548490125 
1050	 0.181797441120284 
1051	 0.167873155078137 
1052	 0.162880418677208 
1053	 0.167941785693193 
1054	 0.17840196821748 
1055	 0.186626908559353 
1056	 0.184781225919213 
1057	 0.160870844654175 
1058	 0.154277550022739 
1059	 0.168858956020155 
1060	 0.172346343548832 
1061	 0.175017088902609 
1062	 0.175792308223434 
1063	 0.143550828309443 
1064	 0.134681402855289 
1065	 0.181127392202278 
1066	 0.192579411883265 
1067	 0.188030376894956 
1068	 0.198703040678072 
1069	 0.210771796088229 
1070	 0.214512975481243 
1071	 0.194877456366467 
1072	 0.167096120622617 
1073	 0.147647517218892 
1074	 0.174383542039807 
1075	 0.162137373971446 
