Wavelength	AVEI200399.asd
325	 4.96095731603605E-02 
326	 4.46057506175141E-02 
327	 4.20281860034255E-02 
328	 4.36953243545099E-02 
329	 4.64158925814133E-02 
330	 4.81646156330868E-02 
331	 0.045971460900141 
332	 4.37038189948201E-02 
333	 4.49467711389024E-02 
334	 4.41974999699398E-02 
335	 4.27652998807615E-02 
336	 4.66409335623354E-02 
337	 4.65997057649285E-02 
338	 4.12768859882637E-02 
339	 3.76316357261567E-02 
340	 3.71050976423926E-02 
341	 4.01052698076225E-02 
342	 4.30032013018197E-02 
343	 0.044195353610538 
344	 4.17840167644736E-02 
345	 4.21475897301697E-02 
346	 4.56992086249213E-02 
347	 4.73972205910673E-02 
348	 4.67618481015265E-02 
349	 0.04413070188388 
350	 4.41758563296401E-02 
351	 4.54801710137162E-02 
352	 4.49164183824334E-02 
353	 4.38055526885318E-02 
354	 4.28577488689188E-02 
355	 4.34295107198114E-02 
356	 4.42489431061048E-02 
357	 4.42962937145037E-02 
358	 4.19338000122316E-02 
359	 3.99387560788634E-02 
360	 4.26233614319966E-02 
361	 4.28564564949312E-02 
362	 4.03899902620166E-02 
363	 4.06537990057594E-02 
364	 4.09773749498103E-02 
365	 4.01222604015756E-02 
366	 3.96838423702546E-02 
367	 3.97189721099687E-02 
368	 4.00894385820317E-02 
369	 3.99511872945488E-02 
370	 3.96450850982193E-02 
371	 4.11582804836261E-02 
372	 4.19670597793788E-02 
373	 4.10342207039563E-02 
374	 4.15265432737398E-02 
375	 4.22995282670243E-02 
376	 4.13991554946038E-02 
377	 4.06954098652495E-02 
378	 4.06224023757047E-02 
379	 4.12234828593237E-02 
380	 4.07257357563249E-02 
381	 3.87995669444098E-02 
382	 3.93342965978496E-02 
383	 4.13564880818209E-02 
384	 4.30797880008083E-02 
385	 4.38823042228492E-02 
386	 4.34790409034451E-02 
387	 0.041989075331948 
388	 4.00564466390303E-02 
389	 0.038388720955225 
390	 3.87490976742482E-02 
391	 3.97372283624019E-02 
392	 3.95902414329174E-02 
393	 3.86527681436138E-02 
394	 3.75808448546641E-02 
395	 3.79714281520643E-02 
396	 3.87661768132762E-02 
397	 3.90655126623147E-02 
398	 3.67276468602531E-02 
399	 0.034739047809368 
400	 3.59639754965595E-02 
401	 3.69371318169651E-02 
402	 3.70858133600236E-02 
403	 3.67428922023779E-02 
404	 3.61394271388774E-02 
405	 3.55502375805939E-02 
406	 3.58511273252834E-02 
407	 3.63767283440558E-02 
408	 3.62338277315441E-02 
409	 3.62171616275673E-02 
410	 3.62399615110323E-02 
411	 3.55112772304693E-02 
412	 0.035002685777691 
413	 3.50984705974907E-02 
414	 3.50780326024247E-02 
415	 3.47871342587209E-02 
416	 3.41242532127621E-02 
417	 3.43945931341941E-02 
418	 3.52965369544462E-02 
419	 3.49290688023525E-02 
420	 0.034367949918469 
421	 3.42950897018841E-02 
422	 0.035184833609685 
423	 3.60393494801132E-02 
424	 3.53796736118001E-02 
425	 3.50016598046777E-02 
426	 3.51910082117305E-02 
427	 0.035181221656479 
428	 0.035195139214663 
429	 3.53087004901623E-02 
430	 3.49759845093999E-02 
431	 3.44641110585266E-02 
432	 3.43142442223934E-02 
433	 3.43673831639481E-02 
434	 3.45282142336282E-02 
435	 3.46482072571675E-02 
436	 3.46244082737491E-02 
437	 3.44307841323808E-02 
438	 3.44875175948893E-02 
439	 3.46147797531397E-02 
440	 3.43313938629126E-02 
441	 3.44422420365596E-02 
442	 0.034949804828694 
443	 3.48012385865387E-02 
444	 3.45676040544207E-02 
445	 3.47249480076197E-02 
446	 3.49624967645832E-02 
447	 3.50977818394338E-02 
448	 3.47988227755936E-02 
449	 3.47606779861889E-02 
450	 3.51218798571424E-02 
451	 3.53032524769882E-02 
452	 3.52466122093449E-02 
453	 3.49571943861369E-02 
454	 0.034992925489178 
455	 3.52617669273665E-02 
456	 3.51649287446691E-02 
457	 3.51211521383441E-02 
458	 3.52480655931492E-02 
459	 3.52080546863326E-02 
460	 3.51300401556677E-02 
461	 3.52001653785822E-02 
462	 3.56380063536811E-02 
463	 3.61748867476151E-02 
464	 3.58120789709585E-02 
465	 3.56668514163014E-02 
466	 3.61613166163686E-02 
467	 3.58719284147006E-02 
468	 3.52788045717109E-02 
469	 3.52977296808138E-02 
470	 3.56504941502915E-02 
471	 3.60857121615175E-02 
472	 3.59988924179493E-02 
473	 3.57906145526264E-02 
474	 3.57718055859642E-02 
475	 3.62905005979971E-02 
476	 3.67484981881379E-02 
477	 3.59900754977809E-02 
478	 3.58353069602378E-02 
479	 0.036568020032084 
480	 3.69851885822673E-02 
481	 3.71047616324753E-02 
482	 3.69737816421405E-02 
483	 3.66832702120477E-02 
484	 3.64710430346689E-02 
485	 3.68824612306732E-02 
486	 3.69173200175865E-02 
487	 3.63919152932801E-02 
488	 3.64124565689275E-02 
489	 3.68395705570602E-02 
490	 3.74058546845956E-02 
491	 0.037428709141396 
492	 3.69851217153814E-02 
493	 3.65488463077935E-02 
494	 3.67942369586075E-02 
495	 3.77503097341344E-02 
496	 3.75305710365443E-02 
497	 3.68314456171935E-02 
498	 3.67811043007581E-02 
499	 3.70254243297614E-02 
500	 3.74348926794134E-02 
501	 3.78331012729903E-02 
502	 3.80772328408762E-02 
503	 3.81292039730785E-02 
504	 3.84789636058138E-02 
505	 3.88650492408213E-02 
506	 3.87223837903716E-02 
507	 3.90244201313265E-02 
508	 3.98087787824943E-02 
509	 4.00080478939083E-02 
510	 4.02925264558752E-02 
511	 0.041131137261255 
512	 4.13274761330905E-02 
513	 4.10859753032777E-02 
514	 4.13138391667815E-02 
515	 4.16843001696529E-02 
516	 4.20915889171326E-02 
517	 4.24747090217669E-02 
518	 4.28595801976757E-02 
519	 4.32750347275848E-02 
520	 4.35921913491521E-02 
521	 4.39425736402842E-02 
522	 4.48552419038036E-02 
523	 4.52639373614431E-02 
524	 4.48874040023784E-02 
525	 4.53902034577212E-02 
526	 4.62455103205316E-02 
527	 4.64543519658694E-02 
528	 4.68247959131928E-02 
529	 4.73821303884307E-02 
530	 4.75177620240319E-02 
531	 4.76693921724501E-02 
532	 4.81333339288323E-02 
533	 4.87907030240878E-02 
534	 4.93915331381735E-02 
535	 4.94983907650591E-02 
536	 4.95379899758399E-02 
537	 4.97126680076868E-02 
538	 5.02392771281152E-02 
539	 5.07326661585729E-02 
540	 5.08322147582786E-02 
541	 5.11121421285496E-02 
542	 5.15221129794711E-02 
543	 5.15897777032394E-02 
544	 5.18247580454106E-02 
545	 5.23612288738998E-02 
546	 5.26202049174081E-02 
547	 5.27490925721295E-02 
548	 5.30088522244275E-02 
549	 5.31774080358644E-02 
550	 5.33109773346793E-02 
551	 5.37972702282178E-02 
552	 5.41422005481477E-02 
553	 5.40943416279924E-02 
554	 5.43578752856979E-02 
555	 5.48207163892215E-02 
556	 5.51086792583795E-02 
557	 5.52030157681287E-02 
558	 5.51335176371553E-02 
559	 5.51389995363798E-02 
560	 5.51606986958895E-02 
561	 5.51305957720094E-02 
562	 5.49906945621158E-02 
563	 5.48197793926188E-02 
564	 5.48216060253657E-02 
565	 5.49633662433231E-02 
566	 5.51872136371247E-02 
567	 5.52442197329654E-02 
568	 5.51614785211863E-02 
569	 5.50095418518319E-02 
570	 5.49552041419036E-02 
571	 5.49835287141573E-02 
572	 5.48800595864873E-02 
573	 5.47125836089722E-02 
574	 5.45293555513748E-02 
575	 5.44088051099139E-02 
576	 5.42236702464178E-02 
577	 5.36728908408704E-02 
578	 5.37114211860403E-02 
579	 5.43895476946704E-02 
580	 5.45260967321337E-02 
581	 5.43828964782627E-02 
582	 5.42408925895637E-02 
583	 5.41461087656872E-02 
584	 5.40784192354792E-02 
585	 5.39124996827461E-02 
586	 5.38068746757984E-02 
587	 5.38429269892337E-02 
588	 5.40675682869645E-02 
589	 5.43251972110535E-02 
590	 5.44030771144289E-02 
591	 5.41824706136372E-02 
592	 5.38133093913911E-02 
593	 5.38487193063632E-02 
594	 5.38431166551525E-02 
595	 0.053587459576274 
596	 5.36606598944069E-02 
597	 5.37800794714846E-02 
598	 5.32744857221652E-02 
599	 5.33787102083121E-02 
600	 5.41587489528672E-02 
601	 5.41959932965665E-02 
602	 0.053819951032069 
603	 5.34101412419032E-02 
604	 0.053377673508518 
605	 5.35138092612922E-02 
606	 5.29925043292604E-02 
607	 5.28248879853667E-02 
608	 5.32422062421869E-02 
609	 5.30095269270315E-02 
610	 5.25754887710702E-02 
611	 5.26346806572717E-02 
612	 5.24341806151949E-02 
613	 5.19861582267402E-02 
614	 5.19162543854864E-02 
615	 5.19651494743523E-02 
616	 5.19631084908978E-02 
617	 5.18816395503336E-02 
618	 5.17787523952495E-02 
619	 5.17832802024192E-02 
620	 5.16034529178354E-02 
621	 5.12209685180964E-02 
622	 5.09630588405859E-02 
623	 5.07078998751567E-02 
624	 5.03842559120142E-02 
625	 5.06875531900132E-02 
626	 5.13187093704062E-02 
627	 5.12000520615146E-02 
628	 5.10123627255306E-02 
629	 0.051014925002896 
630	 5.10705558660571E-02 
631	 5.12025622574639E-02 
632	 5.14429655850304E-02 
633	 5.14239957381273E-02 
634	 5.11664159460218E-02 
635	 5.10440674229626E-02 
636	 5.09562896053965E-02 
637	 5.08618325750815E-02 
638	 5.09101880273819E-02 
639	 5.09241467749796E-02 
640	 5.05483228183423E-02 
641	 5.03268558415726E-02 
642	 5.03755755750341E-02 
643	 5.03472253588288E-02 
644	 5.04055577526023E-02 
645	 5.06492382028497E-02 
646	 5.02642170637537E-02 
647	 4.95072426597003E-02 
648	 4.94614879916187E-02 
649	 4.94343457054787E-02 
650	 4.91564395378346E-02 
651	 4.86217495710673E-02 
652	 4.83268718595126E-02 
653	 4.88384803063944E-02 
654	 4.88782278741485E-02 
655	 4.82286605115682E-02 
656	 4.73868704578377E-02 
657	 4.66629914666722E-02 
658	 4.62986823417355E-02 
659	 0.046300164812122 
660	 4.62526996262259E-02 
661	 4.55138205660829E-02 
662	 4.49194231323741E-02 
663	 4.46052853455573E-02 
664	 4.40640245343199E-02 
665	 4.33226167075474E-02 
666	 4.24785594408738E-02 
667	 4.22681997003607E-02 
668	 4.24562017831221E-02 
669	 4.21500384282949E-02 
670	 4.18474127669731E-02 
671	 4.17147062972659E-02 
672	 0.041704793878778 
673	 0.041731257877268 
674	 4.17010106293209E-02 
675	 4.18838301341541E-02 
676	 4.20850753650603E-02 
677	 4.14894154125835E-02 
678	 0.041105526754901 
679	 4.14448198458658E-02 
680	 4.18098642467382E-02 
681	 4.23424289511251E-02 
682	 4.34159589955369E-02 
683	 4.41998750067565E-02 
684	 4.46569674833207E-02 
685	 4.56701555878597E-02 
686	 4.70733047815788E-02 
687	 0.04866839484871 
688	 5.01092287815792E-02 
689	 5.13786589539635E-02 
690	 0.052941214254602 
691	 5.44570447819875E-02 
692	 5.59420603616302E-02 
693	 5.77299631832709E-02 
694	 5.97412445901747E-02 
695	 0.061809381867585 
696	 6.43516207319088E-02 
697	 6.71075714277767E-02 
698	 0.069326119735339 
699	 7.14795089844323E-02 
700	 7.37008804626181E-02 
701	 7.56408674781323E-02 
702	 7.74527671667693E-02 
703	 7.94028251002483E-02 
704	 8.11985331866205E-02 
705	 8.29108367994534E-02 
706	 8.49369962037591E-02 
707	 8.69650893627963E-02 
708	 8.87591513729818E-02 
709	 0.090246740611037 
710	 9.15418863608597E-02 
711	 9.28673697716995E-02 
712	 9.42186441439194E-02 
713	 9.55998047711674E-02 
714	 9.70159511219066E-02 
715	 9.83825882635476E-02 
716	 9.96793248308028E-02 
717	 0.100783403361642 
718	 0.101773084854095 
719	 0.102824740105745 
720	 0.103838880234877 
721	 0.104798830521934 
722	 0.106090543627282 
723	 0.107312437704167 
724	 0.107895923888879 
725	 0.108468265420893 
726	 0.10914049819473 
727	 0.109910384734387 
728	 0.110541235930085 
729	 0.110993771129419 
730	 0.11194154188893 
731	 0.112904381676379 
732	 0.113140033098423 
733	 0.113685605435075 
734	 0.114534392731946 
735	 0.114716188385431 
736	 0.115090193073619 
737	 0.116121807496305 
738	 0.116641310028137 
739	 0.116859132326247 
740	 0.117496032407633 
741	 0.117904834033644 
742	 0.117980413165588 
743	 0.118043327160938 
744	 0.11847594855127 
745	 0.119507494950885 
746	 0.119962693703289 
747	 0.119913544662667 
748	 0.119997024130631 
749	 0.120468190005316 
750	 0.1213127923082 
751	 0.121777235551641 
752	 0.121899533777051 
753	 0.121808784689942 
754	 0.121962709903476 
755	 0.122310059333949 
756	 0.122471151236278 
757	 0.122128642483311 
758	 0.121254951483242 
759	 0.121268264131481 
760	 0.122794026293123 
761	 0.12542136312447 
762	 0.126504603091795 
763	 0.126083359503015 
764	 0.126157606903753 
765	 0.126188647411636 
766	 0.126107213827048 
767	 0.126387953135684 
768	 0.126915474503123 
769	 0.127585545015249 
770	 0.127550339523552 
771	 0.126981075364514 
772	 0.127308698219272 
773	 0.127840622781952 
774	 0.128103229926547 
775	 0.128252926486436 
776	 0.128417328930248 
777	 0.128803057168073 
778	 0.129123700381611 
779	 0.129374671691093 
780	 0.129895961448495 
781	 0.130565364928232 
782	 0.131224644747566 
783	 0.131345623494047 
784	 0.131217286947073 
785	 0.131651518780952 
786	 0.131969842227179 
787	 0.13201433580046 
788	 0.13213824559646 
789	 0.132274566565564 
790	 0.132359130214656 
791	 0.132597862810569 
792	 0.132885249369227 
793	 0.132839579272923 
794	 0.13299622921248 
795	 0.133518652006475 
796	 0.134204360449025 
797	 0.134637039518314 
798	 0.134463448198292 
799	 0.134403275077433 
800	 0.134633580203543 
801	 0.135236616484568 
802	 0.135597460224429 
803	 0.135579277283552 
804	 0.136013542094801 
805	 0.136527494305581 
806	 0.136662428362869 
807	 0.136535664851348 
808	 0.136458406629492 
809	 0.137288105385496 
810	 0.137884102157619 
811	 0.137798306860691 
812	 0.137740129593173 
813	 0.137730392808287 
814	 0.137753097049956 
815	 0.138870431125097 
816	 0.14076488587322 
817	 0.141692528094428 
818	 0.142002751663472 
819	 0.141796147534009 
820	 0.140620853397096 
821	 0.139908467342258 
822	 0.141319364586165 
823	 0.14299098669292 
824	 0.144045165276337 
825	 0.143580664734599 
826	 0.143361884019817 
827	 0.144019401845454 
828	 0.144181750920414 
829	 0.144169747321086 
830	 0.144498325988904 
831	 0.14429632561592 
832	 0.143865387279301 
833	 0.144629384494439 
834	 0.145159114171397 
835	 0.144958770914073 
836	 0.144974663695447 
837	 0.145288833078575 
838	 0.145893682951367 
839	 0.146578339389012 
840	 0.14717446369021 
841	 0.147531997199504 
842	 0.147151917524014 
843	 0.146141839237255 
844	 0.146357435734214 
845	 0.147051715214493 
846	 0.1472324648224 
847	 0.147850620531896 
848	 0.148598510226996 
849	 0.148078466974708 
850	 0.147624667527213 
851	 0.147802346012284 
852	 0.148295696563548 
853	 0.14889251745936 
854	 0.14933238247287 
855	 0.148821930393659 
856	 0.148086714563214 
857	 0.149459425431 
858	 0.14983647686854 
859	 0.148692018812417 
860	 0.149051673454704 
861	 0.150033556958241 
862	 0.150604502159872 
863	 0.15054738544124 
864	 0.150270403049825 
865	 0.15087338444707 
866	 0.151520672289382 
867	 0.151953202433723 
868	 0.152415458468106 
869	 0.152733013937282 
870	 0.152767444049794 
871	 0.152435116397668 
872	 0.152318467736823 
873	 0.153568741788504 
874	 0.154228993635945 
875	 0.153920349022683 
876	 0.153786071607764 
877	 0.153890288529037 
878	 0.15429213417467 
879	 0.155034124073353 
880	 0.155988277556326 
881	 0.156981718320259 
882	 0.157101325362036 
883	 0.156626265412798 
884	 0.157452212948372 
885	 0.15837409198463 
886	 0.158704479096557 
887	 0.158756798556834 
888	 0.158753879395152 
889	 0.158951389009427 
890	 0.159180215606204 
891	 0.159530977864984 
892	 0.160500360273068 
893	 0.160766344432792 
894	 0.160236647989851 
895	 0.162853145320252 
896	 0.164984019607761 
897	 0.162369763983776 
898	 0.162866257177251 
899	 0.166241345696387 
900	 0.167671776685436 
901	 0.167662063931211 
902	 0.166327174692373 
903	 0.163756792623246 
904	 0.162444759115982 
905	 0.164100705202749 
906	 0.165569946030018 
907	 0.166467871217021 
908	 0.167065976336101 
909	 0.167382352723743 
910	 0.167332129227178 
911	 0.166503159254022 
912	 0.165741933381125 
913	 0.165807627921717 
914	 0.167870793492773 
915	 0.17026969405116 
916	 0.17094558076911 
917	 0.170973625166649 
918	 0.170645532386332 
919	 0.170096283298326 
920	 0.16959084516275 
921	 0.169330021795244 
922	 0.169772058602159 
923	 0.169467593228796 
924	 0.167323156164962 
925	 0.166458647599851 
926	 0.166675521743592 
927	 0.166301781580652 
928	 0.166356100613559 
929	 0.167043180803906 
930	 0.167586480607971 
931	 0.168790856149834 
932	 0.170834690107809 
933	 0.169698318191426 
934	 0.168178961936709 
935	 0.171228768622647 
936	 0.17479251684525 
937	 0.17687412586923 
938	 0.176266254167743 
939	 0.168514095804997 
940	 0.156941011434797 
941	 0.161919589756412 
942	 0.170954951713337 
943	 0.173827858130388 
944	 0.168703572699652 
945	 0.162161285985013 
946	 0.165112704069606 
947	 0.167533830395574 
948	 0.166967160520114 
949	 0.164072209878129 
950	 0.1630416299704 
951	 0.165294034491536 
952	 0.167235390729828 
953	 0.16799372302793 
954	 0.166920465652296 
955	 0.162399179560891 
956	 0.158574205197212 
957	 0.163218253263312 
958	 0.167675363394738 
959	 0.169348292493125 
960	 0.168294758790987 
961	 0.164993201899713 
962	 0.161209290056866 
963	 0.163524143985292 
964	 0.167795569123069 
965	 0.169503503436558 
966	 0.168559478522567 
967	 0.165525288364385 
968	 0.161076771105679 
969	 0.162573695188825 
970	 0.168992561549119 
971	 0.168971632114093 
972	 0.165765724823358 
973	 0.161789163442295 
974	 0.15949919770732 
975	 0.158564563436433 
976	 0.158380612651096 
977	 0.161423902105214 
978	 0.165302993319395 
979	 0.164198761872598 
980	 0.16387460140005 
981	 0.165883429089624 
982	 0.169523171420019 
983	 0.170829365228901 
984	 0.168546321437751 
985	 0.169283344891107 
986	 0.170652036043538 
987	 0.169630153525801 
988	 0.168934785314946 
989	 0.168130338666799 
990	 0.165192539803696 
991	 0.165239944975144 
992	 0.168513565715408 
993	 0.170648292223907 
994	 0.169925650798688 
995	 0.167048957847334 
996	 0.172840643515394 
997	 0.175666982257887 
998	 0.165459465380439 
999	 0.165798911257186 
1000	 0.173532786115283 
1001	 0.175925270060581 
1002	 0.176817259526737 
1003	 0.175991876469205 
1004	 0.170179452946721 
1005	 0.166891792691725 
1006	 0.169083088105384 
1007	 0.173169042114771 
1008	 0.17958957236495 
1009	 0.18726569401282 
1010	 0.184762230376957 
1011	 0.175902959437944 
1012	 0.168762819753034 
1013	 0.172813339441294 
1014	 0.182723916660108 
1015	 0.18027728909758 
1016	 0.174670288721777 
1017	 0.170294795606876 
1018	 0.172067775292118 
1019	 0.175693185556671 
1020	 0.178399002762056 
1021	 0.181571969031826 
1022	 0.180454588818537 
1023	 0.171683856826834 
1024	 0.171900755371451 
1025	 0.179283139044214 
1026	 0.185755896010706 
1027	 0.187694725533181 
1028	 0.184376704061764 
1029	 0.17713935789119 
1030	 0.171782799624615 
1031	 0.172442915658105 
1032	 0.184742957012918 
1033	 0.191318832553087 
1034	 0.182283744207342 
1035	 0.173737728770422 
1036	 0.171515547881935 
1037	 0.178980733847194 
1038	 0.182933524851487 
1039	 0.186707004244648 
1040	 0.199853751214401 
1041	 0.194107055828622 
1042	 0.172491502811777 
1043	 0.166597211489634 
1044	 0.175626992800568 
1045	 0.196014381467174 
1046	 0.212343638959061 
1047	 0.217484400637238 
1048	 0.208844227366971 
1049	 0.194635102426948 
1050	 0.186671443694356 
1051	 0.193948174046874 
1052	 0.194387642193115 
1053	 0.194941641003415 
1054	 0.210051925643487 
1055	 0.195801557483129 
1056	 0.167157977395919 
1057	 0.188900207973066 
1058	 0.195724229159189 
1059	 0.1760297799372 
1060	 0.166694414258428 
1061	 0.169742781684683 
1062	 0.181421843380704 
1063	 0.174238702592333 
1064	 0.173535828885141 
1065	 0.193135440744584 
1066	 0.189156486928315 
1067	 0.181941864843215 
1068	 0.196310310520989 
1069	 0.198713638734398 
1070	 0.185450930365361 
1071	 0.159818822558049 
1072	 0.168992630943498 
1073	 0.202180024913525 
1074	 0.195306970525378 
1075	 0.17744140735551 
