Wavelength	AVEI200412.asd
325	 0.031382357414355 
326	 2.85690949928534E-02 
327	 0.02952337979056 
328	 2.91140915982883E-02 
329	 2.76303357926174E-02 
330	 2.61507841046319E-02 
331	 2.96347607821375E-02 
332	 3.34086868911419E-02 
333	 3.30413655663579E-02 
334	 3.31593595017872E-02 
335	 3.37489887800283E-02 
336	 3.29927912661912E-02 
337	 3.12712124315603E-02 
338	 2.94438435583741E-02 
339	 2.99912778000187E-02 
340	 3.31825579746818E-02 
341	 3.83473507179765E-02 
342	 3.80079955179212E-02 
343	 3.45706716042061E-02 
344	 3.49187216860637E-02 
345	 3.41313527659084E-02 
346	 3.17475487335123E-02 
347	 0.030805402438474 
348	 3.05877756192234E-02 
349	 3.04631544279522E-02 
350	 2.95611048511949E-02 
351	 2.93601551522578E-02 
352	 3.24953348216574E-02 
353	 3.38176675441356E-02 
354	 3.29368576242682E-02 
355	 3.36465668365671E-02 
356	 3.42160772599983E-02 
357	 3.36046605545926E-02 
358	 3.23607937778661E-02 
359	 3.15180212059611E-02 
360	 3.24602847309423E-02 
361	 3.32746665659416E-02 
362	 3.32606986406618E-02 
363	 3.17207585301474E-02 
364	 3.13886085035009E-02 
365	 3.31804093765515E-02 
366	 3.26035444328198E-02 
367	 3.09768721370197E-02 
368	 3.06645692782071E-02 
369	 3.19631764834184E-02 
370	 3.38488109151828E-02 
371	 3.26645048255078E-02 
372	 3.15087488597741E-02 
373	 3.19105663377299E-02 
374	 3.20015107846194E-02 
375	 3.13473742978624E-02 
376	 2.96630904859019E-02 
377	 3.09195366713401E-02 
378	 3.42320546372756E-02 
379	 3.36100638173823E-02 
380	 3.16428434137496E-02 
381	 0.029953081448759 
382	 0.029582841050381 
383	 3.01819681118925E-02 
384	 3.10987857075187E-02 
385	 3.02972078054333E-02 
386	 2.84767495829666E-02 
387	 2.95641433911849E-02 
388	 3.04509525922255E-02 
389	 2.98607911238847E-02 
390	 2.95817056190606E-02 
391	 2.96953213651923E-02 
392	 3.00963555994041E-02 
393	 3.04673825386229E-02 
394	 3.07432899044131E-02 
395	 0.03099966156921 
396	 3.13759185600941E-02 
397	 0.031614931371808 
398	 2.98787679968999E-02 
399	 2.83656582891912E-02 
400	 2.92948218992022E-02 
401	 2.95690832591864E-02 
402	 2.92008418361295E-02 
403	 2.98032925976585E-02 
404	 3.00866945459527E-02 
405	 2.97235032044685E-02 
406	 3.01254331474074E-02 
407	 3.06585658873249E-02 
408	 3.04101118422417E-02 
409	 3.01129419173128E-02 
410	 2.99158019049147E-02 
411	 0.029684978367282 
412	 0.029713514128007 
413	 3.00235515110292E-02 
414	 2.98089835168588E-02 
415	 2.95363177901826E-02 
416	 2.99014608796752E-02 
417	 3.00090248585179E-02 
418	 2.98549940783514E-02 
419	 3.01056006680484E-02 
420	 0.030405394111078 
421	 0.03053583576442 
422	 3.04245250258953E-02 
423	 3.02574370288785E-02 
424	 3.03139267620866E-02 
425	 3.03080816506265E-02 
426	 3.01918086332197E-02 
427	 0.03005724155959 
428	 0.029950195634984 
429	 2.99317546808856E-02 
430	 0.03019320192964 
431	 3.05665736607491E-02 
432	 3.07581316612538E-02 
433	 3.05265952669215E-02 
434	 3.00665648506797E-02 
435	 3.02793240223942E-02 
436	 3.06514617543468E-02 
437	 0.030815062497878 
438	 3.08098921353388E-02 
439	 3.07093571863248E-02 
440	 3.06149840059899E-02 
441	 3.08054701506789E-02 
442	 3.12645483125175E-02 
443	 3.15809618111738E-02 
444	 3.15608621053498E-02 
445	 3.11228614946691E-02 
446	 0.031005142106445 
447	 3.11400246203775E-02 
448	 3.10656106006033E-02 
449	 3.09943411220202E-02 
450	 3.10329096482343E-02 
451	 3.13641960378149E-02 
452	 3.17631653258333E-02 
453	 3.19845159969241E-02 
454	 3.18439591014324E-02 
455	 0.031539004083506 
456	 3.16852336326567E-02 
457	 3.19826311163166E-02 
458	 3.22690166545309E-02 
459	 3.23575145099531E-02 
460	 3.23787860485105E-02 
461	 3.25094074450975E-02 
462	 3.26546389210472E-02 
463	 0.03275207642111 
464	 3.26111453390635E-02 
465	 3.28064370114775E-02 
466	 3.34726401804716E-02 
467	 3.32584353841303E-02 
468	 3.27516905169307E-02 
469	 3.30372639530803E-02 
470	 0.033209097417729 
471	 3.31822717527909E-02 
472	 0.033498970331184 
473	 3.38961832257236E-02 
474	 3.41435254986013E-02 
475	 3.38877953307677E-02 
476	 3.33900918711123E-02 
477	 0.033161073993873 
478	 3.31861135530265E-02 
479	 0.03350062385671 
480	 3.42773390849186E-02 
481	 3.46675446888208E-02 
482	 3.40715887852597E-02 
483	 3.38652150075874E-02 
484	 3.40463691274898E-02 
485	 0.034003821817989 
486	 3.39590080452613E-02 
487	 3.39572513829612E-02 
488	 3.38402866653759E-02 
489	 3.39556790735941E-02 
490	 3.46057246939381E-02 
491	 3.46875733735494E-02 
492	 3.43250092570855E-02 
493	 3.45039235265897E-02 
494	 3.44892536586412E-02 
495	 3.41162225107558E-02 
496	 0.034328826552289 
497	 3.48821321911685E-02 
498	 3.53476473166499E-02 
499	 3.53810675789741E-02 
500	 3.51238832541825E-02 
501	 3.53782559012069E-02 
502	 3.58201463734494E-02 
503	 3.62406716595713E-02 
504	 3.67264070365686E-02 
505	 3.70353388889145E-02 
506	 3.67472950755789E-02 
507	 3.67471608351394E-02 
508	 3.72178549122325E-02 
509	 3.77431026034276E-02 
510	 3.81574865317677E-02 
511	 3.83445370925248E-02 
512	 3.84884447347356E-02 
513	 3.85981547347968E-02 
514	 3.85058941894444E-02 
515	 0.039020352683235 
516	 0.040179260693374 
517	 0.040446100238737 
518	 4.03972666855227E-02 
519	 4.07777676396473E-02 
520	 4.12658517000455E-02 
521	 4.17841826850924E-02 
522	 4.23495519399282E-02 
523	 4.26712400211626E-02 
524	 4.26725648047785E-02 
525	 4.27994467389898E-02 
526	 4.30915022102886E-02 
527	 4.35157635504392E-02 
528	 4.41639521862244E-02 
529	 4.48862379528505E-02 
530	 4.52192180871262E-02 
531	 4.52686032386742E-02 
532	 4.51609403190379E-02 
533	 4.52981058097601E-02 
534	 4.56611797024532E-02 
535	 4.60952183442763E-02 
536	 4.63490778057665E-02 
537	 4.64284542568487E-02 
538	 4.68252341945805E-02 
539	 4.72814507234592E-02 
540	 0.047522469105253 
541	 4.76071053391003E-02 
542	 4.76659748031268E-02 
543	 4.80202157335698E-02 
544	 4.83500822568599E-02 
545	 4.85154659074092E-02 
546	 4.85702726358003E-02 
547	 0.048603185409447 
548	 4.87200155521805E-02 
549	 4.89237468346956E-02 
550	 4.92063661677432E-02 
551	 0.049562487628972 
552	 4.98014186501261E-02 
553	 4.98191189420884E-02 
554	 4.98490276198159E-02 
555	 4.99574296864705E-02 
556	 5.02047037261697E-02 
557	 5.03722518313821E-02 
558	 5.04184609624587E-02 
559	 5.05548653091161E-02 
560	 5.06060824968027E-02 
561	 5.04460236833727E-02 
562	 5.07590752328993E-02 
563	 5.13266886280375E-02 
564	 5.12418302618237E-02 
565	 5.11966998003994E-02 
566	 5.13417623340421E-02 
567	 5.07805827794157E-02 
568	 0.050208025067433 
569	 5.05999765567859E-02 
570	 5.09208594155679E-02 
571	 5.09732405012857E-02 
572	 5.10421986175473E-02 
573	 5.11539557225147E-02 
574	 0.051316310763417 
575	 5.14128255002186E-02 
576	 0.051412449933364 
577	 5.12762230766692E-02 
578	 5.13305815282737E-02 
579	 5.15574108310959E-02 
580	 5.13807343631131E-02 
581	 5.11085720828206E-02 
582	 5.10378693277938E-02 
583	 5.11190320604708E-02 
584	 5.13477792777726E-02 
585	 5.18201480549841E-02 
586	 5.18711736066705E-02 
587	 5.13318704867716E-02 
588	 5.10869352886754E-02 
589	 5.11949117855369E-02 
590	 0.051600970917297 
591	 5.17953906084732E-02 
592	 5.17783578239526E-02 
593	 5.20852078253874E-02 
594	 5.22886096034274E-02 
595	 5.21564756311318E-02 
596	 0.051939563083962 
597	 5.18151955631756E-02 
598	 0.052013831616872 
599	 5.23189073520538E-02 
600	 5.26058071569508E-02 
601	 5.26860100819355E-02 
602	 5.27440604361075E-02 
603	 5.29250655664501E-02 
604	 5.28238038129286E-02 
605	 0.052556455333519 
606	 5.25955874288869E-02 
607	 5.25984374463693E-02 
608	 5.24620398122581E-02 
609	 5.24162694666256E-02 
610	 5.23691286874699E-02 
611	 5.21845861290536E-02 
612	 5.22919894837962E-02 
613	 5.25788649894309E-02 
614	 5.22769136046695E-02 
615	 5.21441396512099E-02 
616	 5.25411112505895E-02 
617	 5.23415987303712E-02 
618	 5.19204180819843E-02 
619	 5.22111546981339E-02 
620	 5.22469874674188E-02 
621	 0.051888330834051 
622	 5.17562836270454E-02 
623	 5.20366354442977E-02 
624	 5.28072994190515E-02 
625	 5.30711139416164E-02 
626	 5.28172134373902E-02 
627	 5.25510988016967E-02 
628	 5.23327406851436E-02 
629	 5.22875547540033E-02 
630	 5.27068883923374E-02 
631	 5.32247702796778E-02 
632	 5.33664156225505E-02 
633	 5.30248173059684E-02 
634	 5.25548767688315E-02 
635	 5.31882589102973E-02 
636	 5.37525853118107E-02 
637	 5.35991195489552E-02 
638	 5.35764876420669E-02 
639	 0.053595532441479 
640	 5.32700307089597E-02 
641	 5.33292803890826E-02 
642	 5.37804003573098E-02 
643	 5.36382215995443E-02 
644	 5.32999124480022E-02 
645	 5.31267882738896E-02 
646	 5.26309168337011E-02 
647	 5.21618256167993E-02 
648	 5.29456558657118E-02 
649	 5.33374892730525E-02 
650	 5.27730444447713E-02 
651	 5.21978202751999E-02 
652	 5.20114431324913E-02 
653	 5.25673430213958E-02 
654	 5.25555513436258E-02 
655	 5.19676283646243E-02 
656	 5.21513992135075E-02 
657	 5.19591996123993E-02 
658	 5.09451121430514E-02 
659	 5.08728379181611E-02 
660	 5.12374576430903E-02 
661	 5.09713189738644E-02 
662	 5.02025140624696E-02 
663	 4.92120347465211E-02 
664	 4.90218633302817E-02 
665	 4.92118339528373E-02 
666	 4.93681745971303E-02 
667	 4.92965370816233E-02 
668	 0.049049049049049 
669	 4.89165690158953E-02 
670	 0.048556717481773 
671	 4.79620536678477E-02 
672	 4.77397068530533E-02 
673	 4.77799615436198E-02 
674	 4.78939907873515E-02 
675	 4.81820913991359E-02 
676	 4.85934556513076E-02 
677	 4.89632130436932E-02 
678	 0.049317695695881 
679	 4.96553268710286E-02 
680	 4.98861775836377E-02 
681	 5.01341662913337E-02 
682	 5.05917293051078E-02 
683	 5.13348951448191E-02 
684	 5.22711272346179E-02 
685	 5.29665046623202E-02 
686	 0.053771598379556 
687	 0.055038150490385 
688	 5.69830821013892E-02 
689	 5.89929668100622E-02 
690	 6.01363947722629E-02 
691	 6.13352432334616E-02 
692	 6.29528034953483E-02 
693	 6.49197057568285E-02 
694	 6.69931991338707E-02 
695	 6.88249117664486E-02 
696	 7.10296777777813E-02 
697	 0.073231022438138 
698	 7.40865614814023E-02 
699	 7.54182967893005E-02 
700	 7.78742294925834E-02 
701	 7.94239518551115E-02 
702	 8.06817977389847E-02 
703	 8.28124216093345E-02 
704	 8.44489045571297E-02 
705	 8.56482899226128E-02 
706	 8.77300776003781E-02 
707	 0.089486230921985 
708	 9.02201036732322E-02 
709	 9.10043938694239E-02 
710	 9.20757797667237E-02 
711	 9.35436687211964E-02 
712	 9.52065141258039E-02 
713	 9.68904252219039E-02 
714	 9.83451567146982E-02 
715	 9.94213849197199E-02 
716	 0.10009928083772 
717	 0.101701046112049 
718	 0.103923801429034 
719	 0.104281449814092 
720	 0.104410378876414 
721	 0.104996225363331 
722	 0.105925822425952 
723	 0.107098284288879 
724	 0.10833161215177 
725	 0.108951611320103 
726	 0.109122068758083 
727	 0.110070122619532 
728	 0.111256929175442 
729	 0.112293275612216 
730	 0.112360367027312 
731	 0.11249853493519 
732	 0.114182447549735 
733	 0.1147894309339 
734	 0.114202773917151 
735	 0.11377594966744 
736	 0.113986819983129 
737	 0.11506573036475 
738	 0.115830180093414 
739	 0.116330238141813 
740	 0.117034273940951 
741	 0.11741706907458 
742	 0.11743285059441 
743	 0.117538346457742 
744	 0.11771046858477 
745	 0.117960549371814 
746	 0.118866210828837 
747	 0.119983003898052 
748	 0.120044540661511 
749	 0.12014572666261 
750	 0.120641847981707 
751	 0.121170189050267 
752	 0.121654214607448 
753	 0.122045369528814 
754	 0.122603398296685 
755	 0.123175486392031 
756	 0.123142754569757 
757	 0.123278450371913 
758	 0.12393271009125 
759	 0.124442800542526 
760	 0.125126424518212 
761	 0.126221659020903 
762	 0.127696340571748 
763	 0.128636029415786 
764	 0.127391270548632 
765	 0.127091693055739 
766	 0.128165571748739 
767	 0.127774750735388 
768	 0.127083126191155 
769	 0.127501657125882 
770	 0.128053201237808 
771	 0.12856874995647 
772	 0.129285638671012 
773	 0.129892980186135 
774	 0.130175057625467 
775	 0.130247204397077 
776	 0.130200510215778 
777	 0.130121931621222 
778	 0.130478362950063 
779	 0.131262890235528 
780	 0.131801472279917 
781	 0.132112121790138 
782	 0.132277707914633 
783	 0.132885175641953 
784	 0.133659088328885 
785	 0.133803865283787 
786	 0.13385977619529 
787	 0.13407141623036 
788	 0.134715695045632 
789	 0.135184765583065 
790	 0.134974375509372 
791	 0.135503398075941 
792	 0.136487896771262 
793	 0.136537584810348 
794	 0.137056526762278 
795	 0.13810891360048 
796	 0.137334859786611 
797	 0.136578244091789 
798	 0.137726833018593 
799	 0.138569399987092 
800	 0.13883312105507 
801	 0.138978664023468 
802	 0.139109129374667 
803	 0.139310972315291 
804	 0.139509641482297 
805	 0.140088650549314 
806	 0.141387462398872 
807	 0.141817906422574 
808	 0.141545972210622 
809	 0.142017592963072 
810	 0.142741983918728 
811	 0.143446335424383 
812	 0.143583074836913 
813	 0.143722789566844 
814	 0.144676637424742 
815	 0.144867144188004 
816	 0.144552586800329 
817	 0.145916673093881 
818	 0.147403341316175 
819	 0.148132181864004 
820	 0.147396638787954 
821	 0.146638802049461 
822	 0.147554325446648 
823	 0.148541692323295 
824	 0.148836378447141 
825	 0.147303566204506 
826	 0.146996942111866 
827	 0.148875184832887 
828	 0.149997109780928 
829	 0.150248050288001 
830	 0.149879144083077 
831	 0.149750521958413 
832	 0.149974635752966 
833	 0.150087439947325 
834	 0.150716051889935 
835	 0.151729717510743 
836	 0.150820523838839 
837	 0.150027906016992 
838	 0.151727195197762 
839	 0.152889657806686 
840	 0.152956743159697 
841	 0.152204036133474 
842	 0.151804537626708 
843	 0.152260351370632 
844	 0.152961424629672 
845	 0.153280453019818 
846	 0.152648214256655 
847	 0.152692103486628 
848	 0.153367782511259 
849	 0.153440980605416 
850	 0.153762284993858 
851	 0.15449874523562 
852	 0.154554508373793 
853	 0.154712211174881 
854	 0.155795294335586 
855	 0.155935756327296 
856	 0.155511437387744 
857	 0.156487663550636 
858	 0.156853563970824 
859	 0.15618730697174 
860	 0.155894117189198 
861	 0.156293903699262 
862	 0.157480200270903 
863	 0.15737598271255 
864	 0.156580553859815 
865	 0.157361090925606 
866	 0.159227539383183 
867	 0.161267939245862 
868	 0.160303277615807 
869	 0.158550365038102 
870	 0.158093128436893 
871	 0.159647171838859 
872	 0.161660179771557 
873	 0.160914989376419 
874	 0.160442423857442 
875	 0.161058951102755 
876	 0.162055854282866 
877	 0.162981391448525 
878	 0.163532669070945 
879	 0.164088130845959 
880	 0.164702751932533 
881	 0.165387098163086 
882	 0.166037455244107 
883	 0.166376903796316 
884	 0.165461086501933 
885	 0.165358117074126 
886	 0.166923681002429 
887	 0.167105669485281 
888	 0.166870113480395 
889	 0.167912912293844 
890	 0.167785577796311 
891	 0.166912086175752 
892	 0.168654082277944 
893	 0.169733374055929 
894	 0.168889193363829 
895	 0.169343969866923 
896	 0.169707321618278 
897	 0.168146097564773 
898	 0.167973361233221 
899	 0.169182988590131 
900	 0.169871158195497 
901	 0.169847654589388 
902	 0.169485192981369 
903	 0.170818528847405 
904	 0.172788761209022 
905	 0.174500841160828 
906	 0.176463516243282 
907	 0.17738313234153 
908	 0.174894270870847 
909	 0.172014109309479 
910	 0.170533459992138 
911	 0.172996675616701 
912	 0.175096362070078 
913	 0.174458255430062 
914	 0.173687860242153 
915	 0.174097284605095 
916	 0.176756294880367 
917	 0.178766265423395 
918	 0.179074324324324 
919	 0.176657729923151 
920	 0.174993904284469 
921	 0.175133021401283 
922	 0.175039419300385 
923	 0.175232673518228 
924	 0.176095074485105 
925	 0.175671548228592 
926	 0.173769748393479 
927	 0.170619126630594 
928	 0.171746460692223 
929	 0.177584685198118 
930	 0.177597207914318 
931	 0.176739283885756 
932	 0.178498663440098 
933	 0.173423130368822 
934	 0.16972139604606 
935	 0.180953769310168 
936	 0.188649655708691 
937	 0.188399622347093 
938	 0.181924003182688 
939	 0.179343692377516 
940	 0.182105351244398 
941	 0.178301040418475 
942	 0.176711480815806 
943	 0.182597075084331 
944	 0.182544073561488 
945	 0.178201981849754 
946	 0.175048378827706 
947	 0.171579504727736 
948	 0.169756255783414 
949	 0.175652080529655 
950	 0.182618871791196 
951	 0.186214711045381 
952	 0.179248794492003 
953	 0.175531008949199 
954	 0.185786096737522 
955	 0.180549547913855 
956	 0.16760949908724 
957	 0.168393204620464 
958	 0.174009791947848 
959	 0.179868809957684 
960	 0.180188908823586 
961	 0.176011358466625 
962	 0.170812032551489 
963	 0.1805945139299 
964	 0.186854319952606 
965	 0.173658823245841 
966	 0.173943161811141 
967	 0.182443401399085 
968	 0.178730820473238 
969	 0.172319953194935 
970	 0.167749748723202 
971	 0.171961189545413 
972	 0.175414092459555 
973	 0.174304090278647 
974	 0.180997469809403 
975	 0.185866887329812 
976	 0.178126112568765 
977	 0.174626770542884 
978	 0.176522799735994 
979	 0.179381536833325 
980	 0.179233567550129 
981	 0.176502980847803 
982	 0.178197880867117 
983	 0.179960956636022 
984	 0.179646663546123 
985	 0.179680538141784 
986	 0.179571801778074 
987	 0.1784223402418 
988	 0.172582457868774 
989	 0.167328341475778 
990	 0.174336147538729 
991	 0.179797117230366 
992	 0.181502176364753 
993	 0.186996846799072 
994	 0.1867672812991 
995	 0.17831810809406 
996	 0.175750062597711 
997	 0.178516717242591 
998	 0.184184893865733 
999	 0.184190966024528 
1000	 0.181501776102502 
1001	 0.184187545465406 
1002	 0.182042732263356 
1003	 0.176899126263387 
1004	 0.183152116731071 
1005	 0.187999273769703 
1006	 0.186583638881172 
1007	 0.183587041201154 
1008	 0.18502187432462 
1009	 0.193112244527236 
1010	 0.189002178082379 
1011	 0.180907440646335 
1012	 0.183313075407365 
1013	 0.180165223886844 
1014	 0.174004286093886 
1015	 0.179305075146963 
1016	 0.181621749899104 
1017	 0.179608851613357 
1018	 0.187848488394833 
1019	 0.192459969729141 
1020	 0.18761913189664 
1021	 0.189889138022862 
1022	 0.187851994229467 
1023	 0.171696630000301 
1024	 0.176262929408084 
1025	 0.191844878687434 
1026	 0.193223045402778 
1027	 0.198320430358746 
1028	 0.204364540337163 
1029	 0.190191499441079 
1030	 0.181067464064577 
1031	 0.183908528571269 
1032	 0.182150207973738 
1033	 0.180728802243216 
1034	 0.18350803479161 
1035	 0.195278699960031 
1036	 0.200972252182055 
1037	 0.186478755545089 
1038	 0.176348011805664 
1039	 0.178756164589843 
1040	 0.200321316977934 
1041	 0.201139512774006 
1042	 0.183129471538113 
1043	 0.189168558904828 
1044	 0.186287175385589 
1045	 0.168817418575149 
1046	 0.163053607730295 
1047	 0.178630970207219 
1048	 0.208165667961353 
1049	 0.190605377338999 
1050	 0.169643240102991 
1051	 0.18974679641971 
1052	 0.20164419029026 
1053	 0.196562927334419 
1054	 0.173683239089216 
1055	 0.140797627146205 
1056	 0.123764082963392 
1057	 0.176275156454726 
1058	 0.201012552761856 
1059	 0.188894436235492 
1060	 0.220991461140383 
1061	 0.210356644318478 
1062	 0.143774882727049 
1063	 0.21043737768444 
1064	 0.25309284691565 
1065	 0.181882770870337 
1066	 0.144202998212075 
1067	 0.141711075380992 
1068	 0.156464807253097 
1069	 0.156501446080788 
1070	 0.144582785883236 
1071	 0.140556046921203 
1072	 0.124419445597246 
1073	 0.111191324045601 
1074	 0.145981267486494 
1075	 0.187371294858311 
