Wavelength	AVEI200402.asd
325	 0.037094465164135 
326	 3.26605712729995E-02 
327	 2.67670923447715E-02 
328	 2.99031652922963E-02 
329	 3.42652709443119E-02 
330	 3.63563434587049E-02 
331	 3.56091457690847E-02 
332	 3.34813693434843E-02 
333	 3.15123714377912E-02 
334	 3.29582678135631E-02 
335	 3.59120190431749E-02 
336	 3.46210497223425E-02 
337	 3.39995967221834E-02 
338	 3.50840436782157E-02 
339	 3.49371046898686E-02 
340	 3.54735416513956E-02 
341	 3.79448270113825E-02 
342	 3.72127961409528E-02 
343	 3.50117322121719E-02 
344	 3.63787788965069E-02 
345	 3.52915806287006E-02 
346	 3.16848938127837E-02 
347	 3.13343935393981E-02 
348	 3.27600583252783E-02 
349	 3.44285051950759E-02 
350	 3.32136997396975E-02 
351	 3.14298413550942E-02 
352	 3.34587589060656E-02 
353	 3.42811244906341E-02 
354	 3.32410631799068E-02 
355	 3.27253838485191E-02 
356	 3.27400781933386E-02 
357	 3.31323255346162E-02 
358	 3.26897522950255E-02 
359	 3.20562540670537E-02 
360	 0.032385014783616 
361	 3.36291112331908E-02 
362	 3.48544797604401E-02 
363	 0.03282736963387 
364	 3.22478734349243E-02 
365	 3.48594167045528E-02 
366	 3.40041858623963E-02 
367	 3.18425242156426E-02 
368	 3.21583547697227E-02 
369	 3.24849592513857E-02 
370	 3.22301890597286E-02 
371	 3.11052529208919E-02 
372	 3.10949227035527E-02 
373	 3.28499198785976E-02 
374	 3.27387933729047E-02 
375	 3.15797029360655E-02 
376	 3.10722580613109E-02 
377	 3.17340286989075E-02 
378	 0.032983296631631 
379	 3.24009479985267E-02 
380	 3.16822639879914E-02 
381	 3.16424923210236E-02 
382	 3.14835250336516E-02 
383	 3.11202707340075E-02 
384	 3.05375002712483E-02 
385	 3.06329609999686E-02 
386	 3.12425260909326E-02 
387	 3.10296918137197E-02 
388	 3.12837224261328E-02 
389	 3.22592863219606E-02 
390	 0.031801375212481 
391	 0.03095437129102 
392	 3.11146654038071E-02 
393	 0.030839713207101 
394	 3.02203068033017E-02 
395	 3.01248645500623E-02 
396	 3.13175932237556E-02 
397	 3.34147273702235E-02 
398	 3.26899681697791E-02 
399	 3.10009657437467E-02 
400	 3.05544026077733E-02 
401	 0.03027353054987 
402	 3.01360069399378E-02 
403	 3.06255475709443E-02 
404	 3.07680037244116E-02 
405	 3.03217910963395E-02 
406	 3.04997829927773E-02 
407	 3.08498899034137E-02 
408	 3.06938815423868E-02 
409	 3.10253904796631E-02 
410	 3.14771266816055E-02 
411	 3.02997932363133E-02 
412	 2.93638820202272E-02 
413	 2.95094728966579E-02 
414	 0.029792903216678 
415	 3.01310035511244E-02 
416	 3.05460922707617E-02 
417	 3.07229345596889E-02 
418	 3.06924972143104E-02 
419	 3.08017914745126E-02 
420	 3.09519671286908E-02 
421	 3.10383387051609E-02 
422	 3.06635198031786E-02 
423	 3.03267912989624E-02 
424	 3.08134224630422E-02 
425	 3.08288453011734E-02 
426	 3.02996063548453E-02 
427	 3.02026744708276E-02 
428	 0.030379296313577 
429	 3.06738543742416E-02 
430	 0.030686892808918 
431	 3.06376729632428E-02 
432	 3.10039748140933E-02 
433	 3.11155893405655E-02 
434	 0.030922205352144 
435	 3.09637081356186E-02 
436	 3.09367647577942E-02 
437	 3.07062899565435E-02 
438	 3.10313940690944E-02 
439	 3.15363039431959E-02 
440	 3.13335832262392E-02 
441	 3.11763289139794E-02 
442	 3.12780745462782E-02 
443	 3.15373948761386E-02 
444	 3.16739910914625E-02 
445	 3.14969742355848E-02 
446	 3.14892357113425E-02 
447	 3.16248660481062E-02 
448	 3.16496794008023E-02 
449	 3.16897539992235E-02 
450	 3.18133445458208E-02 
451	 3.21643410628501E-02 
452	 3.25098529291676E-02 
453	 3.26003427936177E-02 
454	 3.22113114212179E-02 
455	 3.17146204843507E-02 
456	 3.22426571069209E-02 
457	 3.27444418648167E-02 
458	 3.28033265547081E-02 
459	 0.032807322765043 
460	 3.28195285046506E-02 
461	 3.28794512165413E-02 
462	 3.29401641645001E-02 
463	 3.29694417462126E-02 
464	 3.28268040788986E-02 
465	 3.30943170133849E-02 
466	 3.38874369617491E-02 
467	 3.37059110901616E-02 
468	 3.31683725540828E-02 
469	 0.033433261475607 
470	 3.36038961763237E-02 
471	 3.36035468918887E-02 
472	 3.40237195473065E-02 
473	 3.42929195330232E-02 
474	 3.40944495339219E-02 
475	 3.41155229080023E-02 
476	 3.41256627412052E-02 
477	 3.35096891710498E-02 
478	 3.33977682213088E-02 
479	 3.40081388674728E-02 
480	 3.48140562642552E-02 
481	 3.50742264888092E-02 
482	 3.43200192213201E-02 
483	 3.42632691152486E-02 
484	 3.47436535702897E-02 
485	 0.034608250139583 
486	 3.45961840957245E-02 
487	 3.48297507621612E-02 
488	 3.45361830609111E-02 
489	 3.43885843650859E-02 
490	 3.50598221347878E-02 
491	 0.035371109370621 
492	 3.51912521339787E-02 
493	 3.47845667294926E-02 
494	 3.45919137949661E-02 
495	 3.48351387174537E-02 
496	 3.53566460932347E-02 
497	 3.59041758596604E-02 
498	 3.61874144396743E-02 
499	 3.61057681230668E-02 
500	 3.58434694798842E-02 
501	 3.60663758892357E-02 
502	 3.64561376501148E-02 
503	 3.68108251507904E-02 
504	 3.72419125946717E-02 
505	 3.75520142337096E-02 
506	 3.73841995386003E-02 
507	 3.75588864613299E-02 
508	 3.81683235368031E-02 
509	 3.85455743803973E-02 
510	 3.87790435054499E-02 
511	 3.89700815452825E-02 
512	 3.93372991874594E-02 
513	 3.96816665628872E-02 
514	 3.93398653977334E-02 
515	 3.95963045649758E-02 
516	 4.06740928855645E-02 
517	 4.09754367072844E-02 
518	 4.10381438687576E-02 
519	 4.15559586760077E-02 
520	 4.20424874096878E-02 
521	 4.24028382196586E-02 
522	 4.26665246267145E-02 
523	 4.28687540233072E-02 
524	 4.30392973546639E-02 
525	 4.31901182554716E-02 
526	 4.34170309478745E-02 
527	 4.38363195222098E-02 
528	 4.44879071746726E-02 
529	 4.52031527786214E-02 
530	 4.54921014704616E-02 
531	 4.54676537325903E-02 
532	 4.52952891869304E-02 
533	 4.56968981464768E-02 
534	 0.046418432138789 
535	 4.67992208158688E-02 
536	 4.66275854565818E-02 
537	 4.61442783669295E-02 
538	 4.68329559026764E-02 
539	 4.77807007965078E-02 
540	 4.80416115873688E-02 
541	 4.81298618096627E-02 
542	 4.82335202451588E-02 
543	 4.86234705735294E-02 
544	 4.88638357698686E-02 
545	 4.88340132365985E-02 
546	 4.90185792472959E-02 
547	 4.92972930641633E-02 
548	 4.94551353195888E-02 
549	 4.95271666171939E-02 
550	 4.95690763848213E-02 
551	 4.97171107028389E-02 
552	 5.00116364438517E-02 
553	 5.04408857334519E-02 
554	 5.06834108653082E-02 
555	 5.08138133356505E-02 
556	 5.10698746427075E-02 
557	 5.12776572117848E-02 
558	 5.13603955116269E-02 
559	 5.12226458816053E-02 
560	 5.11140511633716E-02 
561	 5.12584470199889E-02 
562	 5.14082641477368E-02 
563	 5.15374273226991E-02 
564	 5.17451041183786E-02 
565	 5.18022282857788E-02 
566	 5.16121379991646E-02 
567	 5.12121023245404E-02 
568	 5.09665742209881E-02 
569	 5.13228841305882E-02 
570	 5.16001369216859E-02 
571	 5.17098288009172E-02 
572	 5.20451199267149E-02 
573	 5.22426824381241E-02 
574	 5.21152878881976E-02 
575	 5.20880591233191E-02 
576	 5.20991857141705E-02 
577	 5.19168228061981E-02 
578	 5.17422279202798E-02 
579	 5.17290402187153E-02 
580	 5.22457395068202E-02 
581	 5.26566806735473E-02 
582	 5.24281565473975E-02 
583	 5.22159668325216E-02 
584	 5.22307984249863E-02 
585	 5.27928844293014E-02 
586	 0.05275337351039 
587	 5.18872401002066E-02 
588	 5.21087758129989E-02 
589	 5.27275283220292E-02 
590	 5.25823622534752E-02 
591	 5.26343334323509E-02 
592	 5.29557699009638E-02 
593	 5.30446481537022E-02 
594	 5.31141714335559E-02 
595	 5.32420369579974E-02 
596	 5.30159628859879E-02 
597	 5.27064883878814E-02 
598	 5.28566085003272E-02 
599	 5.31496682599486E-02 
600	 5.34191671324812E-02 
601	 5.33752396616983E-02 
602	 5.33838014206116E-02 
603	 5.37314228391374E-02 
604	 5.36853744423112E-02 
605	 0.053359816074438 
606	 5.33870334396852E-02 
607	 5.33130850121213E-02 
608	 5.30963896505439E-02 
609	 5.35571097705637E-02 
610	 5.41015850212341E-02 
611	 5.39072454574916E-02 
612	 5.37394701597819E-02 
613	 5.36948038399416E-02 
614	 5.34411399805991E-02 
615	 5.31609824564249E-02 
616	 5.29657267709136E-02 
617	 5.26982053586187E-02 
618	 5.26367510894323E-02 
619	 5.33168799568211E-02 
620	 0.053668465767264 
621	 0.053490259937038 
622	 5.35023026379148E-02 
623	 5.35708604693502E-02 
624	 0.053552166612893 
625	 5.34150554773479E-02 
626	 5.32807822082769E-02 
627	 5.34923901879821E-02 
628	 5.36453392988178E-02 
629	 5.36108496920784E-02 
630	 0.053679139268983 
631	 5.38969951666314E-02 
632	 5.42826710549546E-02 
633	 5.43696688073617E-02 
634	 0.054260856655872 
635	 5.47466113253146E-02 
636	 5.49744732015718E-02 
637	 5.45196327642102E-02 
638	 5.43335516420635E-02 
639	 5.42840478263072E-02 
640	 5.38480302222233E-02 
641	 0.054100724512265 
642	 5.50186352884821E-02 
643	 5.50637541871035E-02 
644	 5.47092977510541E-02 
645	 5.44223430714859E-02 
646	 0.054048676199649 
647	 5.37013774832314E-02 
648	 5.37289987884706E-02 
649	 5.35898932064969E-02 
650	 0.053211748346524 
651	 5.35326470238962E-02 
652	 5.39563440349114E-02 
653	 5.37003131331737E-02 
654	 5.34546221055782E-02 
655	 5.33959720016691E-02 
656	 0.05368775427953 
657	 5.33322796389186E-02 
658	 0.052013028168873 
659	 0.051635670391628 
660	 5.19853065671118E-02 
661	 0.052446267622347 
662	 5.21394786716757E-02 
663	 5.10957948997964E-02 
664	 5.07560745455274E-02 
665	 5.06710838671398E-02 
666	 5.04146287115679E-02 
667	 4.99381433561355E-02 
668	 4.94725588719729E-02 
669	 4.97003132796175E-02 
670	 4.94998169258165E-02 
671	 4.86638429837569E-02 
672	 4.84953443219209E-02 
673	 4.88548697350398E-02 
674	 4.94428398679061E-02 
675	 0.049995229866416 
676	 5.03687984300155E-02 
677	 5.04223066653972E-02 
678	 5.04848934553633E-02 
679	 5.07513050606941E-02 
680	 5.11051625187646E-02 
681	 5.16254056693614E-02 
682	 5.24715923014487E-02 
683	 5.29758565295504E-02 
684	 5.31966714105356E-02 
685	 5.42177814391484E-02 
686	 5.55267723123728E-02 
687	 5.66597978596236E-02 
688	 5.81357423797816E-02 
689	 5.98759937563589E-02 
690	 6.19548148361642E-02 
691	 6.33824590788291E-02 
692	 6.42127014282163E-02 
693	 6.60142151916798E-02 
694	 6.83470165270846E-02 
695	 7.05119968494214E-02 
696	 7.24683923785395E-02 
697	 7.41308742314081E-02 
698	 7.52746960696518E-02 
699	 0.077006991223703 
700	 7.96523966814128E-02 
701	 8.14714548982043E-02 
702	 8.28881854615328E-02 
703	 0.084788379123211 
704	 8.64383875717739E-02 
705	 8.78776265051729E-02 
706	 8.98117734585058E-02 
707	 9.12289657515083E-02 
708	 9.16707934818123E-02 
709	 0.093147895200854 
710	 9.50814880923846E-02 
711	 0.095863298223804 
712	 9.67328300796766E-02 
713	 9.80573163775168E-02 
714	 0.099765637627283 
715	 0.101354566385866 
716	 0.102441563449986 
717	 0.103592157959073 
718	 0.104872575474846 
719	 0.10587464953669 
720	 0.106692339298113 
721	 0.107356131649837 
722	 0.107885345446329 
723	 0.108641775428667 
724	 0.109971335893004 
725	 0.110858721605496 
726	 0.111284351773111 
727	 0.112285681025868 
728	 0.113307413274661 
729	 0.114043110355067 
730	 0.114330387372723 
731	 0.114653488102794 
732	 0.115657932573471 
733	 0.116315772596358 
734	 0.11643317890394 
735	 0.115981962787041 
736	 0.11588471924904 
737	 0.116713767485092 
738	 0.117572944155886 
739	 0.118250511879146 
740	 0.118623802036025 
741	 0.11898201209546 
742	 0.119394975625457 
743	 0.119686205322654 
744	 0.120085941082611 
745	 0.120758659098375 
746	 0.121193425233101 
747	 0.121419329925335 
748	 0.121708437959998 
749	 0.122141136203342 
750	 0.12272755092053 
751	 0.123234791653121 
752	 0.123844271996683 
753	 0.124724541102756 
754	 0.124875452799242 
755	 0.12455147362338 
756	 0.124995481199365 
757	 0.125885155830166 
758	 0.127029330340952 
759	 0.126949399071848 
760	 0.126274895132903 
761	 0.128460725437952 
762	 0.130185983658434 
763	 0.130442059663701 
764	 0.130308258864408 
765	 0.130053987787197 
766	 0.129850602454358 
767	 0.129695089033805 
768	 0.12972553626499 
769	 0.130131070718375 
770	 0.130422835826984 
771	 0.130636448416824 
772	 0.131393807763884 
773	 0.132062976444729 
774	 0.132239387293622 
775	 0.132379106691697 
776	 0.132497042557341 
777	 0.13246891671324 
778	 0.132778589632067 
779	 0.133503304169495 
780	 0.134330888069355 
781	 0.134844698500027 
782	 0.134807768168629 
783	 0.135293556378135 
784	 0.136155657777398 
785	 0.136708300899763 
786	 0.137081449749516 
787	 0.137290316951803 
788	 0.137281884124708 
789	 0.137394127041655 
790	 0.137913825659711 
791	 0.138267151591621 
792	 0.138513318546129 
793	 0.139037501239708 
794	 0.139852501725644 
795	 0.140751088711329 
796	 0.140662024360306 
797	 0.140370380656942 
798	 0.140716639540095 
799	 0.141116473059914 
800	 0.141491296133765 
801	 0.141940092678207 
802	 0.142215322692742 
803	 0.142286794207154 
804	 0.142547575507482 
805	 0.143041660266903 
806	 0.143759146083594 
807	 0.144153660984572 
808	 0.144269646788652 
809	 0.144548358842355 
810	 0.145073343593174 
811	 0.145775474559578 
812	 0.145713216031939 
813	 0.14583924505375 
814	 0.147513624025637 
815	 0.148624390192147 
816	 0.148774530660447 
817	 0.148749349675785 
818	 0.149135071315502 
819	 0.149982073097388 
820	 0.149912294737743 
821	 0.149483471677866 
822	 0.14945544695326 
823	 0.149776719416695 
824	 0.15032827343535 
825	 0.150756775443871 
826	 0.151457136848917 
827	 0.152426434689264 
828	 0.152524254441409 
829	 0.152187231098907 
830	 0.152099184507284 
831	 0.152237098108734 
832	 0.152665607333391 
833	 0.153580991429177 
834	 0.154234294779297 
835	 0.154283612618853 
836	 0.153917408363407 
837	 0.153645197242072 
838	 0.154003653582307 
839	 0.154858904008532 
840	 0.155807518835617 
841	 0.155899992285982 
842	 0.155714844547855 
843	 0.155566145857698 
844	 0.155684548805589 
845	 0.15598696661428 
846	 0.156344864745911 
847	 0.156690239877584 
848	 0.157004578410187 
849	 0.157235658344541 
850	 0.157925753458957 
851	 0.158957275444387 
852	 0.158265246547063 
853	 0.157451172354967 
854	 0.158322892688744 
855	 0.158977632119841 
856	 0.159302025045777 
857	 0.160017593230372 
858	 0.160598881075587 
859	 0.160780225103918 
860	 0.160203670986132 
861	 0.159558347711488 
862	 0.159492967316873 
863	 0.15927211116412 
864	 0.159253538827295 
865	 0.160502021073667 
866	 0.162452325089059 
867	 0.164180585356764 
868	 0.162693638246068 
869	 0.161395222865613 
870	 0.162963505251044 
871	 0.164131615269863 
872	 0.164595882893098 
873	 0.164846526509275 
874	 0.164397593071493 
875	 0.163617126468951 
876	 0.164329804337988 
877	 0.165484806553021 
878	 0.166274411743397 
879	 0.166681419848227 
880	 0.167336211675224 
881	 0.169303809510009 
882	 0.170117229386984 
883	 0.169403136715874 
884	 0.168323540875224 
885	 0.168196068434271 
886	 0.169435180873977 
887	 0.168718194402832 
888	 0.16824412156301 
889	 0.171305125280865 
890	 0.17275044181714 
891	 0.1720175764793 
892	 0.171371193689261 
893	 0.171538546984786 
894	 0.172790258483102 
895	 0.173443414975718 
896	 0.173195228642144 
897	 0.172032212520728 
898	 0.172138405658165 
899	 0.173710713679851 
900	 0.176008656342999 
901	 0.176343350814033 
902	 0.174631196758838 
903	 0.174880969715695 
904	 0.175991259221531 
905	 0.177002595378177 
906	 0.178424413873977 
907	 0.17920210717911 
908	 0.177337851821739 
909	 0.176995671798696 
910	 0.178670222251714 
911	 0.178768199170509 
912	 0.179212791222873 
913	 0.180491816515058 
914	 0.178020545883644 
915	 0.175561663943566 
916	 0.177949724823114 
917	 0.18070013392536 
918	 0.181861117419941 
919	 0.178661241172378 
920	 0.177758866964769 
921	 0.180555190395805 
922	 0.181032741356098 
923	 0.179832980941795 
924	 0.178183241624206 
925	 0.181202697869618 
926	 0.18496621182007 
927	 0.177838078422712 
928	 0.178099736950844 
929	 0.188254510281623 
930	 0.181868014572161 
931	 0.177200991197186 
932	 0.188953489650659 
933	 0.193855126067006 
934	 0.190219701588405 
935	 0.182578387599437 
936	 0.186275418085829 
937	 0.194678372566501 
938	 0.178224911354183 
939	 0.1733618822195 
940	 0.185923697001056 
941	 0.18650967699104 
942	 0.184965652713507 
943	 0.188640176457698 
944	 0.193036890171737 
945	 0.194472896638804 
946	 0.188263096363512 
947	 0.183808870581762 
948	 0.183735314858224 
949	 0.187326522397385 
950	 0.189331677410641 
951	 0.187562143654092 
952	 0.183519523475788 
953	 0.181749504056696 
954	 0.18530279448254 
955	 0.181043439043025 
956	 0.175291186185316 
957	 0.182761936988168 
958	 0.187589535022859 
959	 0.186349939976669 
960	 0.18320307878276 
961	 0.177617009536452 
962	 0.172068310110504 
963	 0.179651487586613 
964	 0.188927392877088 
965	 0.188675962935095 
966	 0.181618942007914 
967	 0.173690054512774 
968	 0.174859518109013 
969	 0.176370988867417 
970	 0.177592233895769 
971	 0.186803710304121 
972	 0.187824940213769 
973	 0.176242193831621 
974	 0.182816329907323 
975	 0.195948706529719 
976	 0.199167999026849 
977	 0.192400254230271 
978	 0.182716475181469 
979	 0.185168436423195 
980	 0.188559809668335 
981	 0.189482415994505 
982	 0.187868137601412 
983	 0.186459460409914 
984	 0.186601118184551 
985	 0.187146481722442 
986	 0.184975226158123 
987	 0.177686460038277 
988	 0.175682191489861 
989	 0.178494950988806 
990	 0.180733465605394 
991	 0.185797371266166 
992	 0.191790578126273 
993	 0.189033516939253 
994	 0.187239005787093 
995	 0.190231061250129 
996	 0.189091787500187 
997	 0.185485110601285 
998	 0.182014069129041 
999	 0.181207701947652 
1000	 0.183436182188451 
1001	 0.188226920680289 
1002	 0.190796130085756 
1003	 0.190016762322624 
1004	 0.186885599198454 
1005	 0.185222069998016 
1006	 0.185633536103983 
1007	 0.180012861923395 
1008	 0.180993091780088 
1009	 0.195282409697151 
1010	 0.195372982368148 
1011	 0.188357176167982 
1012	 0.188944900704823 
1013	 0.186377701620884 
1014	 0.182857856794633 
1015	 0.188420330850838 
1016	 0.195350870401984 
1017	 0.199794072058721 
1018	 0.198705599259098 
1019	 0.192067672381613 
1020	 0.183339546636119 
1021	 0.191720062605675 
1022	 0.201543019762336 
1023	 0.19629907443933 
1024	 0.186015851211489 
1025	 0.184355859839094 
1026	 0.208843063355128 
1027	 0.214557292865074 
1028	 0.198369054539471 
1029	 0.185289119816453 
1030	 0.186314787819995 
1031	 0.20043946804649 
1032	 0.198567108690319 
1033	 0.189971490202502 
1034	 0.183737867796651 
1035	 0.195726965389344 
1036	 0.209626378144015 
1037	 0.206720364951484 
1038	 0.20195045073518 
1039	 0.198071565711704 
1040	 0.195757162731512 
1041	 0.198128906539724 
1042	 0.203150296073761 
1043	 0.202042320480366 
1044	 0.200963546221695 
1045	 0.201029755913609 
1046	 0.198869687084576 
1047	 0.191727270252221 
1048	 0.18184651046693 
1049	 0.185087247215006 
1050	 0.205410958235111 
1051	 0.238959186828139 
1052	 0.230442468081671 
1053	 0.201892931450106 
1054	 0.201739329555672 
1055	 0.18337232171435 
1056	 0.162670729994424 
1057	 0.20435047132849 
1058	 0.205108308177804 
1059	 0.166665265821565 
1060	 0.217845830528731 
1061	 0.222772326484506 
1062	 0.14648103161203 
1063	 0.183740889319454 
1064	 0.228480063106125 
1065	 0.211030387749998 
1066	 0.208401935935975 
1067	 0.208968767812779 
1068	 0.192099799294069 
1069	 0.158135406418971 
1070	 0.124401680064252 
1071	 0.127875457137856 
1072	 0.144429881844591 
1073	 0.172406133512887 
1074	 0.228705359198734 
1075	 0.242790632395977 
