Wavelength	AVEI200418.asd
325	 3.65936212908521E-02 
326	 2.96432379699163E-02 
327	 2.25183325164999E-02 
328	 2.62629471814164E-02 
329	 2.85385694609522E-02 
330	 2.63509970381822E-02 
331	 3.07088237589346E-02 
332	 3.39101654012368E-02 
333	 2.87188994554175E-02 
334	 2.79414643281405E-02 
335	 0.031274732097335 
336	 0.032929841813644 
337	 3.34936585606516E-02 
338	 3.31903675511138E-02 
339	 3.27066549611158E-02 
340	 0.03345836923397 
341	 3.61323943457937E-02 
342	 3.58782911226484E-02 
343	 3.42342958786614E-02 
344	 3.59814971655729E-02 
345	 3.39076278743712E-02 
346	 2.84070544291021E-02 
347	 2.80355811480997E-02 
348	 0.030106096745014 
349	 3.21118519675298E-02 
350	 0.030557326721929 
351	 2.80687714917037E-02 
352	 0.02952516228291 
353	 3.09312854246356E-02 
354	 0.031384171021989 
355	 3.15242313488028E-02 
356	 3.15076066870945E-02 
357	 3.14271851092928E-02 
358	 3.11167468196878E-02 
359	 3.07247482434178E-02 
360	 3.04618633960242E-02 
361	 3.08784850809401E-02 
362	 0.031701564936531 
363	 3.13997613425357E-02 
364	 3.19864330055568E-02 
365	 3.39418123325502E-02 
366	 3.28998135636193E-02 
367	 3.09547661482428E-02 
368	 3.14562925329006E-02 
369	 3.26303919682705E-02 
370	 3.35246226403037E-02 
371	 3.24058793650107E-02 
372	 3.12443645722188E-02 
373	 3.11658299096658E-02 
374	 3.17506070534611E-02 
375	 0.032442107431241 
376	 3.25512766692087E-02 
377	 3.19759990720239E-02 
378	 3.09175100124909E-02 
379	 3.00724905035429E-02 
380	 2.94613397533045E-02 
381	 2.91997599012905E-02 
382	 2.97186796927391E-02 
383	 3.03883817018703E-02 
384	 3.03766037388332E-02 
385	 3.00263154140908E-02 
386	 2.97310489625999E-02 
387	 3.04717390565005E-02 
388	 3.08819361899955E-02 
389	 3.04400829221879E-02 
390	 3.00733397214197E-02 
391	 3.05401180846669E-02 
392	 3.25219537071063E-02 
393	 3.17891059794809E-02 
394	 2.91820901972286E-02 
395	 2.96578921572324E-02 
396	 3.06962663769273E-02 
397	 3.10431315774385E-02 
398	 3.02031269465363E-02 
399	 2.93362300419848E-02 
400	 2.96072125110698E-02 
401	 2.99212372078766E-02 
402	 3.00736403085802E-02 
403	 0.030139462608676 
404	 0.030085947798079 
405	 2.99228183246802E-02 
406	 2.97525572666206E-02 
407	 2.96578445347247E-02 
408	 2.97198968921338E-02 
409	 3.03006474818806E-02 
410	 3.09101618762877E-02 
411	 2.98685872899989E-02 
412	 2.91918930069638E-02 
413	 2.96817977232581E-02 
414	 2.96778812970537E-02 
415	 2.96174930473442E-02 
416	 0.030272925932094 
417	 3.02656300196255E-02 
418	 2.97267303608134E-02 
419	 3.01242812046389E-02 
420	 0.030476417261609 
421	 3.03060875759717E-02 
422	 3.02907343694103E-02 
423	 3.03623611820544E-02 
424	 3.03124007901483E-02 
425	 3.02470602617659E-02 
426	 3.01566203274932E-02 
427	 2.98697473821207E-02 
428	 2.97857373950902E-02 
429	 3.01251044649369E-02 
430	 3.04264289102874E-02 
431	 0.030581244120118 
432	 3.05371049693982E-02 
433	 3.03752489779332E-02 
434	 3.02080522687511E-02 
435	 3.02938080887714E-02 
436	 3.03900189568013E-02 
437	 3.03493938903937E-02 
438	 3.04087966802584E-02 
439	 3.05376535630916E-02 
440	 3.06161550107456E-02 
441	 3.07009368035617E-02 
442	 3.08942730999077E-02 
443	 3.16417190549506E-02 
444	 3.20182726794044E-02 
445	 3.13574912316141E-02 
446	 3.10140497077916E-02 
447	 3.09935620334317E-02 
448	 3.07102484852855E-02 
449	 3.07130610786472E-02 
450	 3.11301387975954E-02 
451	 3.16732518726191E-02 
452	 3.20721793313884E-02 
453	 3.20873869296599E-02 
454	 3.18643808376932E-02 
455	 3.17085792062449E-02 
456	 3.24039155709285E-02 
457	 3.27455247309294E-02 
458	 3.23729297875612E-02 
459	 3.24696260140883E-02 
460	 3.26656307616456E-02 
461	 3.24203822294757E-02 
462	 3.24761178703582E-02 
463	 3.27728445238906E-02 
464	 3.25360568251761E-02 
465	 3.25865405336384E-02 
466	 3.31915171941014E-02 
467	 3.30157610341286E-02 
468	 3.25955106201384E-02 
469	 3.29320554207738E-02 
470	 3.32394199764571E-02 
471	 3.33964484425442E-02 
472	 3.37839730900593E-02 
473	 3.39349059678218E-02 
474	 0.033597563368781 
475	 3.33502967736741E-02 
476	 3.31541447448925E-02 
477	 3.27383090226803E-02 
478	 3.28875319758924E-02 
479	 3.36462246250388E-02 
480	 3.42636263272108E-02 
481	 3.44151592082508E-02 
482	 3.39262122050953E-02 
483	 3.37542974939486E-02 
484	 0.033878956943004 
485	 0.033779884079521 
486	 3.38703687361806E-02 
487	 3.41832671800055E-02 
488	 3.40773174695373E-02 
489	 3.40911236908168E-02 
490	 3.47579126964907E-02 
491	 0.034882828313088 
492	 3.45573557559285E-02 
493	 3.46747835492939E-02 
494	 0.034845059705536 
495	 3.49218285511835E-02 
496	 3.50068711824912E-02 
497	 3.51219621616282E-02 
498	 3.52846437680236E-02 
499	 0.035547226003207 
500	 3.58396362014306E-02 
501	 3.58724766213614E-02 
502	 3.59893547686014E-02 
503	 3.63616498898751E-02 
504	 3.65963988228714E-02 
505	 3.66557382914138E-02 
506	 3.65410930103391E-02 
507	 3.68073078535971E-02 
508	 3.74338255230044E-02 
509	 3.75922997226581E-02 
510	 3.77964069609386E-02 
511	 3.84224965220033E-02 
512	 3.87097544786522E-02 
513	 3.87514035237849E-02 
514	 3.89916081573201E-02 
515	 0.039686866831297 
516	 4.07125044142915E-02 
517	 4.08589681021392E-02 
518	 4.05428970930199E-02 
519	 4.03568027965944E-02 
520	 4.09297147470099E-02 
521	 4.19911127580381E-02 
522	 0.042524641614534 
523	 4.26982982268782E-02 
524	 4.26473802392386E-02 
525	 4.28273566280378E-02 
526	 4.32068676885497E-02 
527	 0.043649893904764 
528	 4.41919170858708E-02 
529	 4.47033940909665E-02 
530	 4.48212536753452E-02 
531	 4.47203836500269E-02 
532	 4.46118488557376E-02 
533	 4.52211954187742E-02 
534	 4.61996844857091E-02 
535	 4.67231269050845E-02 
536	 4.66465605968019E-02 
537	 4.61835998185906E-02 
538	 0.046619595455852 
539	 4.72879914869968E-02 
540	 4.74780477101056E-02 
541	 4.73569111987227E-02 
542	 4.72467151574865E-02 
543	 4.79692004490017E-02 
544	 4.84546507115426E-02 
545	 4.83488780503745E-02 
546	 4.85670154543429E-02 
547	 4.88189306872618E-02 
548	 4.86204834901251E-02 
549	 4.87592778038889E-02 
550	 4.92415083373822E-02 
551	 4.93949083709338E-02 
552	 4.94799939755941E-02 
553	 4.96568159077537E-02 
554	 4.98423290852272E-02 
555	 4.99965206094508E-02 
556	 5.00439293423198E-02 
557	 5.03112195577495E-02 
558	 0.050751906432615 
559	 5.06432463908826E-02 
560	 5.04337195207587E-02 
561	 5.05799333059154E-02 
562	 5.11810874375358E-02 
563	 5.18163790365666E-02 
564	 5.13277005426587E-02 
565	 5.09732741311939E-02 
566	 5.11509519450881E-02 
567	 5.07772511327339E-02 
568	 5.03691467766322E-02 
569	 5.06993848012657E-02 
570	 5.09570641538855E-02 
571	 5.10232331657872E-02 
572	 5.12611746994981E-02 
573	 5.14068433549696E-02 
574	 5.13418030234891E-02 
575	 5.15379272779361E-02 
576	 5.17120907397001E-02 
577	 5.12062965677487E-02 
578	 5.09799925307877E-02 
579	 5.12162831207532E-02 
580	 5.12295810630038E-02 
581	 5.12399938189464E-02 
582	 5.14353940939537E-02 
583	 0.05135049208401 
584	 5.12041737403247E-02 
585	 5.18581287398035E-02 
586	 5.21022022345234E-02 
587	 5.15768526358297E-02 
588	 0.051408807835931 
589	 5.15704559844814E-02 
590	 5.18711252668952E-02 
591	 0.052073219525845 
592	 5.21615600931163E-02 
593	 5.23861357442889E-02 
594	 5.25211356774559E-02 
595	 0.052434983973456 
596	 5.21809082608353E-02 
597	 5.19749463057398E-02 
598	 5.21678953403675E-02 
599	 5.23372318077187E-02 
600	 5.24012905590744E-02 
601	 5.26056678235994E-02 
602	 5.29097666839621E-02 
603	 0.053246765702929 
604	 5.33831701760573E-02 
605	 5.32942931886421E-02 
606	 5.30168610287175E-02 
607	 5.27742191681212E-02 
608	 5.26559402689001E-02 
609	 5.24450436252537E-02 
610	 5.23637715685285E-02 
611	 5.27014184521223E-02 
612	 5.28531352405625E-02 
613	 5.26861725707223E-02 
614	 5.22768800297715E-02 
615	 5.21127502954789E-02 
616	 5.24169378013157E-02 
617	 5.22637865570543E-02 
618	 0.051954658684873 
619	 5.22430897297745E-02 
620	 5.24536634385593E-02 
621	 5.24535482312111E-02 
622	 5.26067513300257E-02 
623	 0.052725351091727 
624	 5.26332998501606E-02 
625	 5.23880666646628E-02 
626	 5.22378050962395E-02 
627	 5.28309814177486E-02 
628	 5.32122417762037E-02 
629	 5.30399271347125E-02 
630	 5.29139912583894E-02 
631	 5.28942360179815E-02 
632	 5.29836960303553E-02 
633	 5.29869302479075E-02 
634	 5.30005000182392E-02 
635	 5.35942116806718E-02 
636	 5.37603106491974E-02 
637	 5.30713094150006E-02 
638	 5.33036821739517E-02 
639	 5.38900369284736E-02 
640	 5.33753739145734E-02 
641	 5.31601784410515E-02 
642	 5.35132768088807E-02 
643	 0.053665455015958 
644	 5.35980452712491E-02 
645	 5.33218811720383E-02 
646	 5.29442366991904E-02 
647	 5.25967773352323E-02 
648	 0.052479120132134 
649	 5.27423384273172E-02 
650	 5.32537413563659E-02 
651	 5.29747161119942E-02 
652	 5.24405837648386E-02 
653	 5.23832148985468E-02 
654	 5.22689958338376E-02 
655	 5.20643153271842E-02 
656	 5.21705152337284E-02 
657	 5.19269023071441E-02 
658	 5.11101226616582E-02 
659	 5.08747880235448E-02 
660	 5.11194558702865E-02 
661	 5.15482984810263E-02 
662	 5.11294290227258E-02 
663	 4.99443279978763E-02 
664	 4.97771700039597E-02 
665	 4.98492229644478E-02 
666	 4.94678830781196E-02 
667	 4.88989046999384E-02 
668	 4.84715766698189E-02 
669	 4.90069345208148E-02 
670	 4.89301534139814E-02 
671	 4.79027916687182E-02 
672	 4.76451082519802E-02 
673	 0.047801566886525 
674	 4.78116463887555E-02 
675	 4.83799215754774E-02 
676	 4.92631240894502E-02 
677	 4.93548769386489E-02 
678	 4.91838579905844E-02 
679	 4.91421786406292E-02 
680	 4.98305338877383E-02 
681	 5.08572016229909E-02 
682	 5.14963874564131E-02 
683	 5.19154930621342E-02 
684	 5.23172649901568E-02 
685	 5.33566446056559E-02 
686	 5.47659510673721E-02 
687	 5.62554106565354E-02 
688	 5.75642328617824E-02 
689	 5.87710510699742E-02 
690	 6.05404701421945E-02 
691	 6.21666600034088E-02 
692	 6.36020798849598E-02 
693	 6.54370593262172E-02 
694	 6.74031983317755E-02 
695	 6.90895674076179E-02 
696	 7.08991760535767E-02 
697	 7.27167905907164E-02 
698	 7.40142501964933E-02 
699	 7.56955516635853E-02 
700	 7.80479105625041E-02 
701	 7.99897807190289E-02 
702	 8.15883297163877E-02 
703	 8.31523708650354E-02 
704	 0.084408988580455 
705	 8.56344420348991E-02 
706	 0.087894490360168 
707	 8.98177859531823E-02 
708	 9.06136707244588E-02 
709	 9.16031063704734E-02 
710	 9.28793741167313E-02 
711	 9.42470481741024E-02 
712	 0.095613286289216 
713	 9.69374455470689E-02 
714	 9.83321592200266E-02 
715	 9.95412027730852E-02 
716	 0.100431249547537 
717	 0.102083733994279 
718	 0.104239034047481 
719	 0.104819938975395 
720	 0.105126815783352 
721	 0.105703092521746 
722	 0.106456543573463 
723	 0.107295169392637 
724	 0.108047231156197 
725	 0.108562594270345 
726	 0.109091707506406 
727	 0.11072316562391 
728	 0.112067869597419 
729	 0.112455473731135 
730	 0.112492661792516 
731	 0.112813551346114 
732	 0.114101857940166 
733	 0.1154081116419 
734	 0.116163447310414 
735	 0.115073857577054 
736	 0.114324292500632 
737	 0.115291129478213 
738	 0.115961660673489 
739	 0.116467809202571 
740	 0.117646075911373 
741	 0.118203695366662 
742	 0.118018791251912 
743	 0.11834308820903 
744	 0.118776472898551 
745	 0.118967213580893 
746	 0.119203317883869 
747	 0.119579362665604 
748	 0.120200690245115 
749	 0.120951175249713 
750	 0.121682454993888 
751	 0.121927853627329 
752	 0.12220951408224 
753	 0.123071751188705 
754	 0.123439523709285 
755	 0.123310657970775 
756	 0.123243251961123 
757	 0.123589079740485 
758	 0.124538695850099 
759	 0.125474855855112 
760	 0.12653776123369 
761	 0.126848311635298 
762	 0.128357223353909 
763	 0.130118337260773 
764	 0.129155203303329 
765	 0.127946356455191 
766	 0.127447249741565 
767	 0.127539348735914 
768	 0.127798341135805 
769	 0.127803457031902 
770	 0.128286333732895 
771	 0.129210807030801 
772	 0.129856666094749 
773	 0.130350094314621 
774	 0.130743184470736 
775	 0.130731076072327 
776	 0.130739809737594 
777	 0.13162467832204 
778	 0.131968196320018 
779	 0.131680252306523 
780	 0.1323425739611 
781	 0.13298495089512 
782	 0.132902572707605 
783	 0.133522842832421 
784	 0.1344520845742 
785	 0.134342063095907 
786	 0.134391785237335 
787	 0.134975175418163 
788	 0.135844297235781 
789	 0.136469410469573 
790	 0.136401409690865 
791	 0.136494573955333 
792	 0.136767511666817 
793	 0.136757915801795 
794	 0.137283739227099 
795	 0.138379702800299 
796	 0.138640897932207 
797	 0.138657073093843 
798	 0.139095676193931 
799	 0.139441119984734 
800	 0.139784035864277 
801	 0.140709761314325 
802	 0.141019046481625 
803	 0.140486887892818 
804	 0.1407543460056 
805	 0.141304420722991 
806	 0.141480896117892 
807	 0.141950456558165 
808	 0.142599230568923 
809	 0.142678687271049 
810	 0.142984377633813 
811	 0.143763225102641 
812	 0.1440461675388 
813	 0.144451044195599 
814	 0.145875781475225 
815	 0.146400339573785 
816	 0.146119555507162 
817	 0.147117118312011 
818	 0.148271849140901 
819	 0.148898387411717 
820	 0.14807990608042 
821	 0.147222421671296 
822	 0.148001865137659 
823	 0.148825311260181 
824	 0.149061786301451 
825	 0.147857661455871 
826	 0.14822174568583 
827	 0.15084575421865 
828	 0.151296210840433 
829	 0.150384784963755 
830	 0.14968271369965 
831	 0.1494704374484 
832	 0.149810469775731 
833	 0.150571173412022 
834	 0.151000192396079 
835	 0.150800208242935 
836	 0.150395464109365 
837	 0.150418423846165 
838	 0.151482207318082 
839	 0.152492055151141 
840	 0.153085062877744 
841	 0.152940163486475 
842	 0.153104989910798 
843	 0.153979708039014 
844	 0.154986715867213 
845	 0.155523205190046 
846	 0.155023877941297 
847	 0.154394531848856 
848	 0.154165632716097 
849	 0.155247475026406 
850	 0.155998912844791 
851	 0.155795166290177 
852	 0.155577349651527 
853	 0.155449229846048 
854	 0.155483302644978 
855	 0.156268162266519 
856	 0.15740639467948 
857	 0.157739475091692 
858	 0.157750283719114 
859	 0.157627339886778 
860	 0.157530104515308 
861	 0.157388328583121 
862	 0.15715096610405 
863	 0.157156675067751 
864	 0.157504712767348 
865	 0.15820957852666 
866	 0.159388466189241 
867	 0.160659832359222 
868	 0.160297739310186 
869	 0.159939014849377 
870	 0.16083764426403 
871	 0.161004427085362 
872	 0.160443106581446 
873	 0.159622103354453 
874	 0.160491368714447 
875	 0.163050707134338 
876	 0.164777435790586 
877	 0.165144514806447 
878	 0.164084549560065 
879	 0.164117721948779 
880	 0.16469139195043 
881	 0.164228139418244 
882	 0.165723249319449 
883	 0.168413364767161 
884	 0.166813135748321 
885	 0.165482711792993 
886	 0.166783787823114 
887	 0.167395801703238 
888	 0.167908154609532 
889	 0.169508622653561 
890	 0.169194127930142 
891	 0.16745252565964 
892	 0.168283701062876 
893	 0.168799829690632 
894	 0.168047547948848 
895	 0.169172309343081 
896	 0.170967499122164 
897	 0.171607911123291 
898	 0.171747198395222 
899	 0.171791778664335 
900	 0.172404500856521 
901	 0.173366337144518 
902	 0.174457212514098 
903	 0.175065663916057 
904	 0.175513639571287 
905	 0.176050071313769 
906	 0.176699562620511 
907	 0.176215055526911 
908	 0.172275254643109 
909	 0.170820553907204 
910	 0.172786568637059 
911	 0.173457033148417 
912	 0.176034456019842 
913	 0.180837779296275 
914	 0.177420525817776 
915	 0.173266981807146 
916	 0.178218279499425 
917	 0.180910270008597 
918	 0.179782023620259 
919	 0.176840537176583 
920	 0.176667475686739 
921	 0.179535261437257 
922	 0.176861414527596 
923	 0.174551715314105 
924	 0.177682416543831 
925	 0.176618148431635 
926	 0.172357614595496 
927	 0.170928882313847 
928	 0.17467614597226 
929	 0.181686892208368 
930	 0.17563194842786 
931	 0.17086725100475 
932	 0.179279648971414 
933	 0.182021876139433 
934	 0.182727384217942 
935	 0.190657671208949 
936	 0.184731338843299 
937	 0.170223143071221 
938	 0.173662698099026 
939	 0.177348298565194 
940	 0.174877464721866 
941	 0.16355618582638 
942	 0.160848390291752 
943	 0.176601213505911 
944	 0.18132053658235 
945	 0.177687931722497 
946	 0.176573645466911 
947	 0.17389362688384 
948	 0.172072378158787 
949	 0.180863355222051 
950	 0.186949964443359 
951	 0.184915557780957 
952	 0.177727468111325 
953	 0.173440945971609 
954	 0.178336034402414 
955	 0.18052195328493 
956	 0.177967007400277 
957	 0.170278147617754 
958	 0.171887356501638 
959	 0.180971675031474 
960	 0.18003886458398 
961	 0.173215709483374 
962	 0.165806613186261 
963	 0.175214350573718 
964	 0.183058804956301 
965	 0.172981174113253 
966	 0.172349301413019 
967	 0.177722944694899 
968	 0.173451503635568 
969	 0.172782956433409 
970	 0.177025795349608 
971	 0.177998555812853 
972	 0.177063477470871 
973	 0.175557802860431 
974	 0.177014826131147 
975	 0.179115247262409 
976	 0.178786362919827 
977	 0.174309518803092 
978	 0.170195064122258 
979	 0.176485355688286 
980	 0.181678965359571 
981	 0.183075995209335 
982	 0.18487079318064 
983	 0.182737384015167 
984	 0.175789294425176 
985	 0.171739354940337 
986	 0.172563573857565 
987	 0.178636001754224 
988	 0.177391596441043 
989	 0.173288992185244 
990	 0.180379263275828 
991	 0.183672892531526 
992	 0.180887878398047 
993	 0.178371354576136 
994	 0.179205617456596 
995	 0.183740695483174 
996	 0.184001957066095 
997	 0.181163065005573 
998	 0.177731188282901 
999	 0.181628208701282 
1000	 0.187410530082944 
1001	 0.183483795666617 
1002	 0.178818801671243 
1003	 0.177389418005921 
1004	 0.184882183303363 
1005	 0.187133548520612 
1006	 0.180663336269231 
1007	 0.181282613259543 
1008	 0.185166541554823 
1009	 0.188454462943057 
1010	 0.191010544045125 
1011	 0.190716627181086 
1012	 0.185038698993685 
1013	 0.175587001999769 
1014	 0.170690700573279 
1015	 0.189132649575914 
1016	 0.197173271919289 
1017	 0.188958767766351 
1018	 0.189919055241425 
1019	 0.19077810129272 
1020	 0.187337457670398 
1021	 0.186240102642554 
1022	 0.187486990653619 
1023	 0.190131011517976 
1024	 0.188536495518879 
1025	 0.188960800588796 
1026	 0.202640777342744 
1027	 0.206527595374045 
1028	 0.196369504401737 
1029	 0.176931084570283 
1030	 0.163690281491436 
1031	 0.163186193826189 
1032	 0.169657176723712 
1033	 0.172576121656535 
1034	 0.168432408383173 
1035	 0.182618420197927 
1036	 0.193958364828504 
1037	 0.180019958284257 
1038	 0.174550480395208 
1039	 0.180664834544291 
1040	 0.194021480166478 
1041	 0.195634115259357 
1042	 0.184478770115918 
1043	 0.174749230984365 
1044	 0.174487072760223 
1045	 0.183935792148881 
1046	 0.185890239612556 
1047	 0.188960671863014 
1048	 0.193161637632933 
1049	 0.163776256442378 
1050	 0.147952014139768 
1051	 0.188361263773452 
1052	 0.198768853099254 
1053	 0.18720021393985 
1054	 0.187694504954355 
1055	 0.175912899305002 
1056	 0.161904599760797 
1057	 0.182640055382956 
1058	 0.18075016539513 
1059	 0.159134882892151 
1060	 0.196718853249226 
1061	 0.20580311547995 
1062	 0.161968599834408 
1063	 0.174797630735421 
1064	 0.203125376499817 
1065	 0.211837692608576 
1066	 0.191991014532618 
1067	 0.162744942515137 
1068	 0.147313308879507 
1069	 0.137282995421361 
1070	 0.131596888618109 
1071	 0.131432651841021 
1072	 0.149734211361473 
1073	 0.173298502409088 
1074	 0.163585919832986 
1075	 0.189601835894 
