Wavelength	AVEI200040.asd
325	 2.50817862292065E-02 
326	 2.24344200107291E-02 
327	 2.29512195869433E-02 
328	 2.34920623955919E-02 
329	 2.32623726651877E-02 
330	 2.22621073069998E-02 
331	 2.24996557755151E-02 
332	 2.28356270888476E-02 
333	 2.23134114478738E-02 
334	 2.72392281879304E-02 
335	 3.30471047839083E-02 
336	 2.63979716302662E-02 
337	 2.32296576985515E-02 
338	 0.026731718767712 
339	 2.68084856581374E-02 
340	 2.62976075263984E-02 
341	 2.75078249757763E-02 
342	 2.46624783634041E-02 
343	 2.07455006976299E-02 
344	 2.29288262702143E-02 
345	 2.40164917439578E-02 
346	 2.30731503434154E-02 
347	 2.48191520714669E-02 
348	 2.51746172752295E-02 
349	 2.21689676302281E-02 
350	 2.43438766850397E-02 
351	 2.78356422312904E-02 
352	 2.50105328561909E-02 
353	 2.32386647963012E-02 
354	 2.35416022711801E-02 
355	 0.022395876902862 
356	 2.19861157404046E-02 
357	 2.33843834494781E-02 
358	 2.41272111032021E-02 
359	 2.42025276687305E-02 
360	 2.41136119614601E-02 
361	 2.31348910139555E-02 
362	 2.19602890167451E-02 
363	 2.33591347859212E-02 
364	 2.45688553759893E-02 
365	 0.024068841117036 
366	 2.26168456001006E-02 
367	 2.12104199863681E-02 
368	 2.09941761367786E-02 
369	 2.15317520791656E-02 
370	 2.24894700706588E-02 
371	 2.32443082902871E-02 
372	 2.38625903577683E-02 
373	 2.41980111164496E-02 
374	 2.32491277579726E-02 
375	 2.18860871223289E-02 
376	 2.14023954089876E-02 
377	 2.18338259090113E-02 
378	 0.022758494774396 
379	 2.28272492586484E-02 
380	 2.25896418933985E-02 
381	 2.22868378123555E-02 
382	 2.14958316405264E-02 
383	 2.09903623509503E-02 
384	 2.17754848503169E-02 
385	 2.24583473091699E-02 
386	 2.27840019032679E-02 
387	 2.33519657408559E-02 
388	 2.28936721970355E-02 
389	 0.021334835965515 
390	 2.16467213546818E-02 
391	 2.27426719032674E-02 
392	 2.30658066436208E-02 
393	 2.26218318417689E-02 
394	 0.021743360187019 
395	 2.12869879929381E-02 
396	 2.14726422956191E-02 
397	 2.22598484955634E-02 
398	 2.29968439379415E-02 
399	 2.31822474494713E-02 
400	 2.24714883566822E-02 
401	 2.18575196599869E-02 
402	 2.16140173496351E-02 
403	 2.18631926406442E-02 
404	 2.21864936414956E-02 
405	 2.24136944948358E-02 
406	 2.27458088042756E-02 
407	 2.29607422361608E-02 
408	 2.27830890665874E-02 
409	 2.22325743267649E-02 
410	 2.16586686588009E-02 
411	 2.20152335649614E-02 
412	 2.21905673767001E-02 
413	 2.18075718205805E-02 
414	 2.21366547266826E-02 
415	 2.25876636332803E-02 
416	 2.22692983617423E-02 
417	 2.20355091431947E-02 
418	 2.20760355762049E-02 
419	 2.23527251201784E-02 
420	 2.25266259871637E-02 
421	 2.23986289279985E-02 
422	 2.19802920829302E-02 
423	 2.17019218239564E-02 
424	 2.21644847131374E-02 
425	 2.24664552905259E-02 
426	 2.23997718727557E-02 
427	 2.21280812825546E-02 
428	 2.19328031485224E-02 
429	 2.19951171536868E-02 
430	 2.20793618505542E-02 
431	 2.22279831311912E-02 
432	 2.25813435694215E-02 
433	 2.26224179735345E-02 
434	 2.23404090153796E-02 
435	 2.22040173066292E-02 
436	 2.22872529582499E-02 
437	 2.25825775242831E-02 
438	 2.26329980836078E-02 
439	 2.24647670449875E-02 
440	 2.22344282416109E-02 
441	 2.21692390156686E-02 
442	 2.23274346411431E-02 
443	 0.022597535313449 
444	 2.27422353793838E-02 
445	 2.25937498846532E-02 
446	 2.24302751246555E-02 
447	 2.23609614108685E-02 
448	 2.25160408419496E-02 
449	 2.26239997067861E-02 
450	 2.26075956106153E-02 
451	 0.02258597484256 
452	 2.27034081865407E-02 
453	 2.30705888518389E-02 
454	 2.32301781365733E-02 
455	 2.31379577264338E-02 
456	 0.022931246224583 
457	 2.27824338284247E-02 
458	 2.28166151158418E-02 
459	 0.023184891277553 
460	 2.35179256739409E-02 
461	 2.33814983219815E-02 
462	 2.32293791781691E-02 
463	 2.31201769327657E-02 
464	 2.28312272188714E-02 
465	 2.28012766101339E-02 
466	 0.023169748936419 
467	 2.31878565548434E-02 
468	 0.02298100181974 
469	 2.28583995570292E-02 
470	 2.30873787097955E-02 
471	 2.35133211661593E-02 
472	 0.023303670478208 
473	 0.023101700639647 
474	 2.33151852420458E-02 
475	 2.36805933967668E-02 
476	 2.39654349783449E-02 
477	 2.38413272118143E-02 
478	 2.36511644261888E-02 
479	 0.023527946949155 
480	 2.35154004728448E-02 
481	 2.35537996983184E-02 
482	 2.35924723600996E-02 
483	 2.36534025917181E-02 
484	 2.37333565439544E-02 
485	 0.023810852764674 
486	 2.39566210157647E-02 
487	 2.41854725024221E-02 
488	 2.44769179165447E-02 
489	 2.45807281420113E-02 
490	 2.42808145682885E-02 
491	 2.41351149583539E-02 
492	 2.42092506051129E-02 
493	 2.43791330432975E-02 
494	 2.43790748111846E-02 
495	 2.41317265361898E-02 
496	 2.39765133424235E-02 
497	 2.40310329033747E-02 
498	 2.43959688504645E-02 
499	 2.44125337812207E-02 
500	 2.42011546838536E-02 
501	 2.48353880407332E-02 
502	 2.52338374365677E-02 
503	 2.48351459756969E-02 
504	 0.024802716741175 
505	 2.49400952593133E-02 
506	 2.46447502378852E-02 
507	 0.024561327364569 
508	 2.48133062554814E-02 
509	 2.51304105237317E-02 
510	 2.53741135921871E-02 
511	 2.54628933986612E-02 
512	 2.57784477046138E-02 
513	 2.61293007329757E-02 
514	 2.59137776268458E-02 
515	 0.025689727066288 
516	 2.57201037843188E-02 
517	 2.61978814127339E-02 
518	 2.66656108331713E-02 
519	 2.66279649263209E-02 
520	 2.64952295550018E-02 
521	 2.64738222833651E-02 
522	 2.68772417671044E-02 
523	 2.71840968056414E-02 
524	 2.71877613584121E-02 
525	 2.72817996049052E-02 
526	 2.74142381405441E-02 
527	 2.74493038913396E-02 
528	 2.75788983770588E-02 
529	 2.78388807113782E-02 
530	 2.82196978285098E-02 
531	 2.84138859312719E-02 
532	 2.82787527448822E-02 
533	 2.85248759792279E-02 
534	 2.89347614914134E-02 
535	 2.88837283108938E-02 
536	 2.87308270593756E-02 
537	 2.86441445881057E-02 
538	 2.88309297780656E-02 
539	 0.029094125009064 
540	 0.029238244921959 
541	 2.94645952801661E-02 
542	 2.97147207235959E-02 
543	 2.97535002902803E-02 
544	 2.97152783309968E-02 
545	 2.97228168063439E-02 
546	 3.01682515358013E-02 
547	 3.05378550382023E-02 
548	 3.01300274890078E-02 
549	 2.99923379904097E-02 
550	 3.02275227412937E-02 
551	 3.01897865682899E-02 
552	 0.030256534556776 
553	 3.06063970886295E-02 
554	 3.06519823101299E-02 
555	 3.05384120773907E-02 
556	 3.06813371268524E-02 
557	 3.09258007112674E-02 
558	 3.11272432735591E-02 
559	 3.08692899105981E-02 
560	 3.04952472902829E-02 
561	 3.03712544743078E-02 
562	 3.08339918671079E-02 
563	 0.031508414564888 
564	 3.12520764358835E-02 
565	 3.10646302496674E-02 
566	 0.031305689331728 
567	 0.031520103257367 
568	 3.15901396874224E-02 
569	 3.14209233865252E-02 
570	 3.11507298743505E-02 
571	 3.09235443257117E-02 
572	 3.10408662279772E-02 
573	 3.11907669771936E-02 
574	 3.12070865920314E-02 
575	 3.14561274621539E-02 
576	 0.031734663706931 
577	 3.15985342959486E-02 
578	 3.13745560566714E-02 
579	 3.12164558364866E-02 
580	 0.031250352462346 
581	 3.14365488604542E-02 
582	 3.17148292999914E-02 
583	 3.18964067649921E-02 
584	 3.19551024943922E-02 
585	 3.19445286068104E-02 
586	 3.18555095006298E-02 
587	 3.17296250622507E-02 
588	 0.031801496901304 
589	 3.18886580541713E-02 
590	 3.17252339389137E-02 
591	 3.15870276291703E-02 
592	 3.15909964691297E-02 
593	 3.18639789990782E-02 
594	 3.21459921649424E-02 
595	 3.22560752199739E-02 
596	 0.032108259384995 
597	 3.19274886023217E-02 
598	 3.21250417152191E-02 
599	 3.22570213529727E-02 
600	 3.22456690384729E-02 
601	 3.23893907250786E-02 
602	 3.25231261441838E-02 
603	 3.25090336965038E-02 
604	 3.26759391049051E-02 
605	 0.032836797343766 
606	 3.22816460418081E-02 
607	 3.21636797584852E-02 
608	 3.27862606448024E-02 
609	 3.28845183464261E-02 
610	 3.26885188679339E-02 
611	 3.26365539662693E-02 
612	 3.28411692970565E-02 
613	 3.31792728735092E-02 
614	 3.31362804092589E-02 
615	 3.29267533422458E-02 
616	 3.27273455738526E-02 
617	 3.28265978237317E-02 
618	 3.30239219594941E-02 
619	 3.28785999374563E-02 
620	 3.29989538063708E-02 
621	 3.33956809684736E-02 
622	 3.33074840453911E-02 
623	 3.31187335231532E-02 
624	 3.31896144925843E-02 
625	 3.32381817494753E-02 
626	 3.32844657718823E-02 
627	 3.35479848174217E-02 
628	 3.35966916317726E-02 
629	 3.33615025417935E-02 
630	 3.35937110054709E-02 
631	 3.38809466479309E-02 
632	 3.36430006466152E-02 
633	 3.37417423284011E-02 
634	 3.41882212312821E-02 
635	 3.43557109734852E-02 
636	 3.43671020594843E-02 
637	 3.42917480575801E-02 
638	 3.40967075094265E-02 
639	 3.39926334128697E-02 
640	 3.43565206908312E-02 
641	 3.45834774363213E-02 
642	 3.45366168745249E-02 
643	 3.45996353672904E-02 
644	 3.45246029773664E-02 
645	 3.41197309069677E-02 
646	 3.39398794127249E-02 
647	 3.40682708211777E-02 
648	 0.034440791373402 
649	 3.47300703504758E-02 
650	 3.47800917639562E-02 
651	 3.47526688559091E-02 
652	 3.45635804668885E-02 
653	 3.41028522548004E-02 
654	 3.38566142777657E-02 
655	 3.39737016777051E-02 
656	 3.45590478264758E-02 
657	 3.48004516307296E-02 
658	 3.43108211168035E-02 
659	 3.41385544530929E-02 
660	 0.034205181147767 
661	 3.41952625016197E-02 
662	 3.40390196584695E-02 
663	 3.37891028259035E-02 
664	 3.38083227291408E-02 
665	 3.38280983641249E-02 
666	 3.36397681270467E-02 
667	 3.36712576937852E-02 
668	 3.38132053812282E-02 
669	 0.033593546961754 
670	 3.34949694729713E-02 
671	 3.36624422000226E-02 
672	 3.38575119931897E-02 
673	 3.39361990633877E-02 
674	 3.37703906447891E-02 
675	 3.38059749907881E-02 
676	 3.40873765977288E-02 
677	 3.43856215922508E-02 
678	 3.48019459576169E-02 
679	 3.53033754277373E-02 
680	 3.53129520186839E-02 
681	 3.51841394895299E-02 
682	 0.035586825424911 
683	 3.58000669832837E-02 
684	 3.57968969947234E-02 
685	 3.62736756382827E-02 
686	 3.70591071294979E-02 
687	 3.79302008525346E-02 
688	 3.80536467597562E-02 
689	 3.79259782372698E-02 
690	 3.90683851838908E-02 
691	 3.99969827525109E-02 
692	 4.04384399154213E-02 
693	 4.13664806543255E-02 
694	 4.24510138511658E-02 
695	 4.32492147214002E-02 
696	 4.39891603360261E-02 
697	 4.47468333678903E-02 
698	 4.56235213313949E-02 
699	 4.66382983734741E-02 
700	 4.77245398170937E-02 
701	 4.84344858690668E-02 
702	 4.90991830934566E-02 
703	 5.02391840406125E-02 
704	 5.13855458444533E-02 
705	 0.052437756819122 
706	 5.34827546758048E-02 
707	 5.43441898143298E-02 
708	 5.49365150255889E-02 
709	 5.56023188719375E-02 
710	 5.62833942302016E-02 
711	 5.67627525631665E-02 
712	 5.73533012926711E-02 
713	 5.80633761542624E-02 
714	 0.058459011633721 
715	 5.88972763225006E-02 
716	 0.05973005250608 
717	 6.01230708579478E-02 
718	 6.02103170353557E-02 
719	 0.061016947470377 
720	 6.20267920154622E-02 
721	 6.28333412172848E-02 
722	 6.30271510768583E-02 
723	 6.30356808042946E-02 
724	 6.33052091878759E-02 
725	 6.38981260185007E-02 
726	 6.46078134081759E-02 
727	 0.064858947294176 
728	 6.51169912213376E-02 
729	 6.56052343504255E-02 
730	 6.61171512923894E-02 
731	 6.65892838179424E-02 
732	 0.066972115619128 
733	 0.067209537524034 
734	 6.74025683589816E-02 
735	 6.78398173243794E-02 
736	 6.84779024806604E-02 
737	 6.92311780129443E-02 
738	 0.069813607111509 
739	 7.01825807545433E-02 
740	 7.03383207243534E-02 
741	 0.070589792662368 
742	 7.10182935110665E-02 
743	 7.14695450163017E-02 
744	 7.18861036366561E-02 
745	 7.22279931665585E-02 
746	 7.25760392237709E-02 
747	 7.28228977432211E-02 
748	 0.072594143760397 
749	 7.28244101383751E-02 
750	 0.073705544362774 
751	 7.42246507058269E-02 
752	 7.44920777020632E-02 
753	 7.47001653791388E-02 
754	 7.45416190592518E-02 
755	 7.42889739334275E-02 
756	 7.48616507958397E-02 
757	 7.53443203931746E-02 
758	 7.53710329747724E-02 
759	 7.54800682617535E-02 
760	 7.57056356704811E-02 
761	 7.57276833239489E-02 
762	 7.59437064117326E-02 
763	 7.63652703608118E-02 
764	 7.67763464873948E-02 
765	 7.72315451731974E-02 
766	 7.76743150712676E-02 
767	 7.78766412344437E-02 
768	 0.078049883889489 
769	 7.84303082497029E-02 
770	 7.90213437134127E-02 
771	 7.96235199525939E-02 
772	 7.95124538517055E-02 
773	 7.94721042099518E-02 
774	 8.00100085230895E-02 
775	 8.06666320879454E-02 
776	 8.11506579250765E-02 
777	 8.10500039148571E-02 
778	 8.13382679047903E-02 
779	 8.20677968256804E-02 
780	 8.20759891057055E-02 
781	 8.20296955798564E-02 
782	 8.24872881553318E-02 
783	 8.33416443629814E-02 
784	 8.40102793127104E-02 
785	 8.32530992940309E-02 
786	 0.082935377015137 
787	 8.35256004169894E-02 
788	 8.38851940948574E-02 
789	 0.084023294520025 
790	 8.40476771635697E-02 
791	 8.47993106819776E-02 
792	 8.57142198074405E-02 
793	 8.49391101462088E-02 
794	 0.084891993444929 
795	 8.60799870984232E-02 
796	 8.62850094963955E-02 
797	 8.61436610713748E-02 
798	 8.64188604219626E-02 
799	 8.67300470168368E-02 
800	 8.70293887225671E-02 
801	 8.73731419600684E-02 
802	 8.75593509789028E-02 
803	 8.75948771100725E-02 
804	 8.80090845850071E-02 
805	 8.84486597122321E-02 
806	 8.85174237257405E-02 
807	 8.87965360408387E-02 
808	 8.91138818050746E-02 
809	 8.84861373172406E-02 
810	 8.86178059478349E-02 
811	 8.99190576539794E-02 
812	 8.96207141809907E-02 
813	 8.90356371211311E-02 
814	 9.01911650752466E-02 
815	 9.01959585421712E-02 
816	 8.93026477890671E-02 
817	 9.08613629790612E-02 
818	 9.18501796185505E-02 
819	 9.13120759983054E-02 
820	 0.091809629946868 
821	 9.25301387152176E-02 
822	 9.23265778580829E-02 
823	 9.22127832736952E-02 
824	 9.24466632775237E-02 
825	 9.30961207692978E-02 
826	 9.36036497622305E-02 
827	 9.37480593617287E-02 
828	 9.36532768114312E-02 
829	 9.39633346549802E-02 
830	 9.53529449853311E-02 
831	 0.09538647343276 
832	 9.44298911594589E-02 
833	 9.50414472544934E-02 
834	 9.61013200921179E-02 
835	 9.69592529488355E-02 
836	 9.67001183795889E-02 
837	 9.65256982851994E-02 
838	 9.77952786311531E-02 
839	 9.81971283124149E-02 
840	 9.77197548862215E-02 
841	 9.77333203988192E-02 
842	 9.79494884493595E-02 
843	 9.83182309554507E-02 
844	 9.90704980010809E-02 
845	 9.96757921279331E-02 
846	 9.95516214603641E-02 
847	 0.099198984785541 
848	 9.88561323242644E-02 
849	 9.87305957178559E-02 
850	 9.92688136768893E-02 
851	 0.100349161760919 
852	 0.100133898681874 
853	 9.95527719510522E-02 
854	 9.97177602818273E-02 
855	 9.91115581802842E-02 
856	 9.84821387711464E-02 
857	 0.100452788821742 
858	 0.102000862836613 
859	 0.102165537958062 
860	 0.101940184437384 
861	 0.101727612279226 
862	 0.10183950255927 
863	 0.101692050294436 
864	 0.101417865951906 
865	 0.101512872646234 
866	 0.102100994018597 
867	 0.103049023989482 
868	 0.103536525452275 
869	 0.103924416249234 
870	 0.104495548211362 
871	 0.104637369275103 
872	 0.104712409464171 
873	 0.105642789483994 
874	 0.105661548444352 
875	 0.104695267637782 
876	 0.104609298184661 
877	 0.105403734135279 
878	 0.106896521430588 
879	 0.107876810839615 
880	 0.108233799702938 
881	 0.10814721904435 
882	 0.107761248833388 
883	 0.107470325398385 
884	 0.108276263581787 
885	 0.109285196293563 
886	 0.109913740176015 
887	 0.11003729480891 
888	 0.110306812970482 
889	 0.111563902561668 
890	 0.111519879725543 
891	 0.110371776302195 
892	 0.110653102002599 
893	 0.110542965518901 
894	 0.109432355329877 
895	 0.109157198330808 
896	 0.109211098744124 
897	 0.108862363868547 
898	 0.109285712347299 
899	 0.110625936800195 
900	 0.112748606303302 
901	 0.11379018187906 
902	 0.113158515249827 
903	 0.111502395766691 
904	 0.110189513954789 
905	 0.11033819197885 
906	 0.111959535059843 
907	 0.113490197504232 
908	 0.112165170222024 
909	 0.112628491510543 
910	 0.114700996568316 
911	 0.111964897180553 
912	 0.110129647662256 
913	 0.112143401264164 
914	 0.113316513743154 
915	 0.113570975675489 
916	 0.113466251820333 
917	 0.114239548499651 
918	 0.115051677042803 
919	 0.112692422964337 
920	 0.111632750693566 
921	 0.112961858568807 
922	 0.113462527779974 
923	 0.113272926432463 
924	 0.112753448673927 
925	 0.11326331446015 
926	 0.114345024986669 
927	 0.114419713694257 
928	 0.113487456088283 
929	 0.112251379581899 
930	 0.115077005553505 
931	 0.114594902945522 
932	 0.105410586056118 
933	 0.101064988682383 
934	 0.101115651531037 
935	 0.100944208148204 
936	 0.105437440614184 
937	 0.11097802782614 
938	 0.106946497118678 
939	 0.097714777931392 
940	 8.85470569752425E-02 
941	 9.36213643071857E-02 
942	 0.100992700444108 
943	 0.101433942326756 
944	 9.87663501179886E-02 
945	 9.60920134257656E-02 
946	 0.097582180104965 
947	 9.81364691306344E-02 
948	 9.70112710081909E-02 
949	 9.60498016217588E-02 
950	 9.61608254363542E-02 
951	 9.79829307335455E-02 
952	 0.101833098269268 
953	 0.107134285501188 
954	 0.112619764193763 
955	 0.108264593360357 
956	 9.89981024102809E-02 
957	 9.60700878029518E-02 
958	 9.35718495247037E-02 
959	 9.15995172367848E-02 
960	 9.47309051451516E-02 
961	 9.79134268057267E-02 
962	 9.87945312856525E-02 
963	 0.100029172024195 
964	 9.92043889927682E-02 
965	 9.43574044969252E-02 
966	 0.09288471996417 
967	 9.61312406033646E-02 
968	 0.10460830369996 
969	 0.104267224667908 
970	 9.58800075072053E-02 
971	 9.86732094393976E-02 
972	 0.100623727242741 
973	 9.69583081965075E-02 
974	 0.10207226156591 
975	 0.107842728642093 
976	 0.104561824762838 
977	 0.100973290690002 
978	 9.93630912695365E-02 
979	 0.100813877387398 
980	 9.98221029415928E-02 
981	 9.69889390734438E-02 
982	 0.10114600597245 
983	 0.10562654276971 
984	 0.10646648510679 
985	 0.103312178903232 
986	 0.100368831347736 
987	 0.101832519513404 
988	 0.102733567228972 
989	 0.104061236896204 
990	 0.109786961126418 
991	 0.111336204361436 
992	 0.107438521103565 
993	 0.10227858262612 
994	 0.102886392407507 
995	 0.110510368455348 
996	 0.108917994181529 
997	 0.107452972769712 
998	 0.115274230821141 
999	 0.117333353451593 
1000	 0.114012349105433 
1001	 0.110579291678879 
1002	 0.111890169554149 
1003	 0.116854938712773 
1004	 0.117797200430827 
1005	 0.112882287461548 
1006	 0.104306756787912 
1007	 0.106447474348861 
1008	 0.115252149905949 
1009	 0.124647795219489 
1010	 0.124000216349083 
1011	 0.117011773449418 
1012	 0.111152961991842 
1013	 0.111283495044305 
1014	 0.116132892449732 
1015	 0.120026898057586 
1016	 0.114396332293364 
1017	 0.101672426149458 
1018	 0.103283531024418 
1019	 0.113304303197713 
1020	 0.125504442098401 
1021	 0.129486839747438 
1022	 0.124546306780954 
1023	 0.112651509701898 
1024	 0.112783282208043 
1025	 0.120019045133133 
1026	 0.120326491530659 
1027	 0.111242165997307 
1028	 9.96844144712551E-02 
1029	 0.110060780862196 
1030	 0.119469639932564 
1031	 0.120924378067839 
1032	 0.12188710605936 
1033	 0.12295329287259 
1034	 0.124263935231934 
1035	 0.124343192786819 
1036	 0.120457743844436 
1037	 0.111273471989249 
1038	 0.115590373846767 
1039	 0.124463038895592 
1040	 0.118552722361834 
1041	 0.107934467399751 
1042	 0.102678497689185 
1043	 0.122657008661341 
1044	 0.138979977433797 
1045	 0.140169856755135 
1046	 0.129776718401326 
1047	 0.122803976032048 
1048	 0.126997224781091 
1049	 0.126466714469583 
1050	 0.116906016497095 
1051	 9.90461114323791E-02 
1052	 0.101371128717521 
1053	 0.116717151987499 
1054	 0.128420447294354 
1055	 0.116817155093789 
1056	 9.06215486736778E-02 
1057	 8.54118990566611E-02 
1058	 9.28497850437686E-02 
1059	 0.105501592761225 
1060	 0.102309263198061 
1061	 0.108637857049348 
1062	 0.127138341130608 
1063	 0.106912850541934 
1064	 9.71226569147869E-02 
1065	 0.128405596485956 
1066	 0.13213649467935 
1067	 0.132522351169109 
1068	 0.158575588981326 
1069	 0.152030396785687 
1070	 0.125089800192417 
1071	 0.11687601228285 
1072	 0.10845178596199 
1073	 0.100660178187682 
1074	 0.107771471297107 
1075	 0.110569897393604 
