Wavelength	AVEI200336.asd
325	 6.96608353340935E-02 
326	 0.075489272640548 
327	 7.70203596203271E-02 
328	 7.77611449257224E-02 
329	 7.13317990713107E-02 
330	 5.91954313607463E-02 
331	 0.058963878880002 
332	 6.31665229091584E-02 
333	 6.36397386961144E-02 
334	 6.17178029049984E-02 
335	 5.93786041019137E-02 
336	 6.11413805415874E-02 
337	 5.96305225496008E-02 
338	 5.56611851935729E-02 
339	 6.39077618137739E-02 
340	 7.06585277918897E-02 
341	 6.53842585994735E-02 
342	 0.060512367035764 
343	 5.77435661594204E-02 
344	 0.056116847458527 
345	 5.75130758623017E-02 
346	 6.09695123086197E-02 
347	 6.17073878241214E-02 
348	 6.18657041847054E-02 
349	 6.26959204830895E-02 
350	 6.12273208225548E-02 
351	 5.94591858827102E-02 
352	 6.10599854104708E-02 
353	 6.03705352064745E-02 
354	 5.76481061252957E-02 
355	 5.92209559617854E-02 
356	 0.060660290159182 
357	 5.94145954710495E-02 
358	 5.79703100348342E-02 
359	 5.73983033650496E-02 
360	 5.88236103721373E-02 
361	 5.83003074509341E-02 
362	 5.63441338048708E-02 
363	 5.81062817112567E-02 
364	 5.93649256582581E-02 
365	 5.83088077355861E-02 
366	 0.058840641503546 
367	 5.93811041378738E-02 
368	 5.73470316335298E-02 
369	 0.056345100421718 
370	 5.68905858225117E-02 
371	 5.79267375496381E-02 
372	 5.77631043906172E-02 
373	 5.57389096890217E-02 
374	 5.42990055709616E-02 
375	 5.42861777476921E-02 
376	 5.63011125526159E-02 
377	 5.66441532188226E-02 
378	 5.53300448831378E-02 
379	 5.55302108344331E-02 
380	 5.58152412111937E-02 
381	 5.55219485010285E-02 
382	 5.49406156997751E-02 
383	 5.49162559724738E-02 
384	 5.64629160348015E-02 
385	 5.53733187651709E-02 
386	 5.23722173034816E-02 
387	 0.052461400258349 
388	 5.37421075829606E-02 
389	 5.48509797578998E-02 
390	 5.30873367609994E-02 
391	 5.11074249064465E-02 
392	 5.21743510298898E-02 
393	 5.29663512591138E-02 
394	 5.27325812050054E-02 
395	 5.13898686788921E-02 
396	 5.09195810754873E-02 
397	 5.16529514026789E-02 
398	 5.06397528406497E-02 
399	 4.90502729102353E-02 
400	 4.82337982819665E-02 
401	 4.89678580036171E-02 
402	 5.03332635026229E-02 
403	 4.98065834405557E-02 
404	 4.92210466888843E-02 
405	 4.93451486866715E-02 
406	 4.99262916740328E-02 
407	 5.03144518887919E-02 
408	 4.97746261706979E-02 
409	 4.92220649027937E-02 
410	 4.89741178311384E-02 
411	 4.92715209895264E-02 
412	 4.95306320286381E-02 
413	 0.049459128749878 
414	 4.91736895831528E-02 
415	 4.89400655236789E-02 
416	 4.90738087172805E-02 
417	 4.89054163107437E-02 
418	 4.86232032064414E-02 
419	 4.94830732817348E-02 
420	 4.95468931363449E-02 
421	 4.80944505851481E-02 
422	 0.047980347826448 
423	 4.85754537546465E-02 
424	 4.84859642491121E-02 
425	 4.86400848490768E-02 
426	 4.90879124180698E-02 
427	 4.92684141746195E-02 
428	 4.92833275061852E-02 
429	 0.049196426980046 
430	 4.89740004238996E-02 
431	 4.87300936172378E-02 
432	 4.86346869545427E-02 
433	 4.87292438634977E-02 
434	 0.048865479064762 
435	 4.84644963852179E-02 
436	 4.82314777510732E-02 
437	 0.048579223025577 
438	 4.87159410249827E-02 
439	 4.86838688380136E-02 
440	 4.87662984405149E-02 
441	 4.89979544608799E-02 
442	 4.92712302654339E-02 
443	 4.91477008988825E-02 
444	 4.87072353818956E-02 
445	 4.81084023914166E-02 
446	 4.82517394773214E-02 
447	 4.88168602851848E-02 
448	 0.048735226698552 
449	 4.87672675686045E-02 
450	 4.90709946412756E-02 
451	 4.91809595843277E-02 
452	 4.92731578375777E-02 
453	 4.95140225910958E-02 
454	 4.92280162435007E-02 
455	 4.86969929350257E-02 
456	 4.90583734352496E-02 
457	 0.049370541351933 
458	 4.92816262153876E-02 
459	 0.049177977505798 
460	 4.90436935940419E-02 
461	 0.048834106401242 
462	 4.89136284636192E-02 
463	 4.91792403309726E-02 
464	 0.049004394294226 
465	 4.90617398742911E-02 
466	 4.95911972064482E-02 
467	 4.97122723122089E-02 
468	 4.95069794072596E-02 
469	 4.92522674314181E-02 
470	 4.89884154813217E-02 
471	 4.88401158348466E-02 
472	 4.90960114701754E-02 
473	 4.94177098389078E-02 
474	 4.96014005629775E-02 
475	 0.050056346377551 
476	 0.050239937193025 
477	 4.90799609244916E-02 
478	 4.86203731247978E-02 
479	 4.92132822392388E-02 
480	 4.95687791509371E-02 
481	 4.95474103779717E-02 
482	 4.91264196009378E-02 
483	 4.91045641659104E-02 
484	 4.95242424854825E-02 
485	 0.050213397202747 
486	 0.050313246751014 
487	 4.96387576618874E-02 
488	 4.91676475912546E-02 
489	 4.91396489690856E-02 
490	 4.96709211294435E-02 
491	 5.00994086954229E-02 
492	 5.02449152673534E-02 
493	 5.00521384289643E-02 
494	 4.98356007942388E-02 
495	 4.97698207393949E-02 
496	 4.98545794930786E-02 
497	 5.00571437545685E-02 
498	 5.03336252920128E-02 
499	 0.050492881326504 
500	 5.06480673703819E-02 
501	 5.14334630666373E-02 
502	 5.18894302840942E-02 
503	 5.15644666467105E-02 
504	 5.18298128933459E-02 
505	 5.23702482999168E-02 
506	 5.23520961278758E-02 
507	 5.25542213160297E-02 
508	 5.31105986075671E-02 
509	 5.36392706767063E-02 
510	 5.41543003615125E-02 
511	 5.46709199572405E-02 
512	 5.51945970941814E-02 
513	 5.56942548112764E-02 
514	 5.60552946586273E-02 
515	 5.66160039811518E-02 
516	 5.74696876824019E-02 
517	 5.84118648099169E-02 
518	 5.90711519088723E-02 
519	 5.91220760320757E-02 
520	 0.059737500140863 
521	 6.07702748448576E-02 
522	 6.11270364891004E-02 
523	 6.16124664581983E-02 
524	 6.25242297236318E-02 
525	 6.33117927757239E-02 
526	 6.38127047719791E-02 
527	 6.38739468139899E-02 
528	 6.42700680898459E-02 
529	 6.49927821630745E-02 
530	 6.52693255823971E-02 
531	 6.53852844217718E-02 
532	 6.55798517917955E-02 
533	 6.61798949175972E-02 
534	 0.066925605657357 
535	 0.06720817117309 
536	 0.067556156462879 
537	 6.81134164618125E-02 
538	 6.87896976606275E-02 
539	 0.069196962069173 
540	 6.90012721062085E-02 
541	 6.89257707624347E-02 
542	 6.90896791692336E-02 
543	 6.93803765150679E-02 
544	 6.95795021775495E-02 
545	 6.96751083719978E-02 
546	 7.02775385074579E-02 
547	 7.09487890727937E-02 
548	 7.10573700307282E-02 
549	 0.071073091647282 
550	 7.11866784603636E-02 
551	 7.16384318780272E-02 
552	 7.19710062821685E-02 
553	 7.19374106363375E-02 
554	 7.21129221441896E-02 
555	 7.24012406556419E-02 
556	 7.24914792045238E-02 
557	 7.23595322907076E-02 
558	 7.20656754096722E-02 
559	 7.19144856260534E-02 
560	 7.19532096150325E-02 
561	 0.072186638219772 
562	 7.23409284135046E-02 
563	 7.22925897660615E-02 
564	 7.18293462721347E-02 
565	 7.16539119468074E-02 
566	 7.19298690009953E-02 
567	 7.16436352027014E-02 
568	 7.11517274162518E-02 
569	 7.10223617972356E-02 
570	 7.08362581064851E-02 
571	 7.05796274035611E-02 
572	 7.05483984641572E-02 
573	 7.04649303134808E-02 
574	 7.01722878712923E-02 
575	 6.98885602493804E-02 
576	 6.96569455110733E-02 
577	 0.069484191714946 
578	 6.95152693347752E-02 
579	 6.96399129868228E-02 
580	 6.92330528198356E-02 
581	 6.86458855330052E-02 
582	 6.82413191025482E-02 
583	 6.83359774234651E-02 
584	 6.86043929419687E-02 
585	 6.80242278351545E-02 
586	 6.76032511687685E-02 
587	 6.76970945892497E-02 
588	 0.067788207087309 
589	 6.77959566335001E-02 
590	 6.76776031325689E-02 
591	 6.72080414567092E-02 
592	 6.66566498159602E-02 
593	 6.70394684599281E-02 
594	 6.71964116200847E-02 
595	 6.65792111683308E-02 
596	 6.66806436089758E-02 
597	 6.71307418003792E-02 
598	 6.69265021937923E-02 
599	 6.69002849143317E-02 
600	 6.71244675691985E-02 
601	 6.68172874399977E-02 
602	 6.64319162922544E-02 
603	 6.63757943428245E-02 
604	 6.62473232111611E-02 
605	 6.60514399582305E-02 
606	 6.59697940026109E-02 
607	 0.065945930391623 
608	 6.59291792196873E-02 
609	 6.57551859745431E-02 
610	 6.55316953703986E-02 
611	 6.54124785728474E-02 
612	 6.52037229079724E-02 
613	 6.48763961262558E-02 
614	 6.44446653332645E-02 
615	 6.42428293651035E-02 
616	 6.44135638457013E-02 
617	 0.064273099064769 
618	 6.40162850066357E-02 
619	 6.41794952825467E-02 
620	 6.39149634236415E-02 
621	 6.32729164191305E-02 
622	 6.36355192760095E-02 
623	 6.40127369839744E-02 
624	 6.35268981858818E-02 
625	 6.33216520103251E-02 
626	 6.33814417219265E-02 
627	 6.30630831011495E-02 
628	 6.28985709362109E-02 
629	 0.063077382571594 
630	 0.063403411916405 
631	 6.36412948735741E-02 
632	 6.35349743588276E-02 
633	 6.31314273287337E-02 
634	 6.26746364982451E-02 
635	 6.29250704924612E-02 
636	 6.29532881146195E-02 
637	 6.22664233230286E-02 
638	 6.16706051660244E-02 
639	 6.13042951950239E-02 
640	 6.12644448725389E-02 
641	 6.05761221992893E-02 
642	 5.93267461428465E-02 
643	 5.92641230211302E-02 
644	 5.95239109927897E-02 
645	 0.059275409817476 
646	 5.86136991953349E-02 
647	 5.78076556069104E-02 
648	 5.75271671614034E-02 
649	 5.74056816491033E-02 
650	 5.72482956062607E-02 
651	 5.67791862047661E-02 
652	 5.63265587126945E-02 
653	 5.62981460813394E-02 
654	 5.64587298433311E-02 
655	 5.65511482312191E-02 
656	 5.58898106039256E-02 
657	 5.53050784515669E-02 
658	 5.52739476467284E-02 
659	 5.52590523554316E-02 
660	 5.50614892106186E-02 
661	 5.44589094991945E-02 
662	 5.39877147399853E-02 
663	 5.38009643994933E-02 
664	 5.37662196730713E-02 
665	 5.37279329257915E-02 
666	 5.35418545979512E-02 
667	 5.30544205004469E-02 
668	 5.25220680958386E-02 
669	 5.26551023453207E-02 
670	 5.26355318490414E-02 
671	 5.21995858167872E-02 
672	 5.16820803800832E-02 
673	 5.14049995368313E-02 
674	 5.16805300418744E-02 
675	 5.18190194404434E-02 
676	 5.18237068407601E-02 
677	 5.22237452036455E-02 
678	 5.27675021351791E-02 
679	 5.32677541028621E-02 
680	 5.33899179440332E-02 
681	 5.35154477142699E-02 
682	 5.43069313429055E-02 
683	 5.50097311642246E-02 
684	 5.56282898495133E-02 
685	 5.71568574795452E-02 
686	 5.87411899254423E-02 
687	 5.96484018639835E-02 
688	 6.12835071739192E-02 
689	 6.34019632103169E-02 
690	 6.52413703276941E-02 
691	 6.69551877995627E-02 
692	 6.87395712335877E-02 
693	 0.071037079192535 
694	 7.38759163304539E-02 
695	 0.077081536407765 
696	 7.93930859786323E-02 
697	 0.081242363244108 
698	 8.46518220132355E-02 
699	 8.79043117445221E-02 
700	 9.02713466569038E-02 
701	 9.30714273333466E-02 
702	 9.60666485299012E-02 
703	 9.87570169022137E-02 
704	 0.10147778967846 
705	 0.104229953116606 
706	 0.106708177152256 
707	 0.108892609349174 
708	 0.1108051227509 
709	 0.112809591132702 
710	 0.11493899164018 
711	 0.117155940637495 
712	 0.119248101782796 
713	 0.121172808441617 
714	 0.123189005922845 
715	 0.125095183416368 
716	 0.126798149912035 
717	 0.128623579264746 
718	 0.130471092729549 
719	 0.131448971516435 
720	 0.13275009676492 
721	 0.134508483601679 
722	 0.135559057752171 
723	 0.136407978864351 
724	 0.137559859557702 
725	 0.138480173503889 
726	 0.139198060991255 
727	 0.140418199743446 
728	 0.141504261260829 
729	 0.14219533438537 
730	 0.143129755460997 
731	 0.144077042540673 
732	 0.144634856259675 
733	 0.145032394066186 
734	 0.145366276590368 
735	 0.145626187693932 
736	 0.146211174954705 
737	 0.147270428999044 
738	 0.147758301171168 
739	 0.147828574695358 
740	 0.148016119394194 
741	 0.148637910449328 
742	 0.149581872624139 
743	 0.149903761990796 
744	 0.149936349627964 
745	 0.150015556299303 
746	 0.150287482692667 
747	 0.150762677791974 
748	 0.151448128816316 
749	 0.151728206136229 
750	 0.151534435743872 
751	 0.151878344597013 
752	 0.152451742385771 
753	 0.152846614503639 
754	 0.153080405725553 
755	 0.153194651310632 
756	 0.153363089081722 
757	 0.153249416371928 
758	 0.152854996152189 
759	 0.153656124116045 
760	 0.155783695559133 
761	 0.156679188077312 
762	 0.156737761183443 
763	 0.156698722378145 
764	 0.157595722287545 
765	 0.157808590730104 
766	 0.157071573953331 
767	 0.156903377648289 
768	 0.156921215133133 
769	 0.156555099870448 
770	 0.156637323146935 
771	 0.157190859149218 
772	 0.157566097772075 
773	 0.157794479449381 
774	 0.157913284193858 
775	 0.158089585316951 
776	 0.158369626389681 
777	 0.15877950871665 
778	 0.159288097996237 
779	 0.159722873673627 
780	 0.159452608322603 
781	 0.159243359609545 
782	 0.159698833660523 
783	 0.16033698019253 
784	 0.160868975473581 
785	 0.16089142484932 
786	 0.160713239783434 
787	 0.160512677051739 
788	 0.160519077746418 
789	 0.160711831483049 
790	 0.161043542793448 
791	 0.161343340566987 
792	 0.161667414545277 
793	 0.162304265381601 
794	 0.162653669135889 
795	 0.162591091922937 
796	 0.162721861112395 
797	 0.162876146613971 
798	 0.162870960738912 
799	 0.163173505829861 
800	 0.163576840409465 
801	 0.163291062301125 
802	 0.162860756354369 
803	 0.162667386852891 
804	 0.163442132085188 
805	 0.164359246551443 
806	 0.164500139514588 
807	 0.164657454707902 
808	 0.16489964302147 
809	 0.164895298865362 
810	 0.165127872061945 
811	 0.165815110329253 
812	 0.166891097854206 
813	 0.167658597708582 
814	 0.16723479035029 
815	 0.167034929062935 
816	 0.167459316176764 
817	 0.168517673541755 
818	 0.168977297973323 
819	 0.168429995103755 
820	 0.168058991762853 
821	 0.167814220675545 
822	 0.167567521765124 
823	 0.169114516840574 
824	 0.171353584615548 
825	 0.170272005075636 
826	 0.16943187919569 
827	 0.17010639787692 
828	 0.170214710394053 
829	 0.17016456509504 
830	 0.170646261178481 
831	 0.170990526553505 
832	 0.171180707646606 
833	 0.171648063240621 
834	 0.171851436678174 
835	 0.171653952623041 
836	 0.171650527902403 
837	 0.171916373449341 
838	 0.172447123917914 
839	 0.172424811823463 
840	 0.172009363623218 
841	 0.172197924243582 
842	 0.172360511933465 
843	 0.1722517665536 
844	 0.172053508075375 
845	 0.171849122456012 
846	 0.171748285228242 
847	 0.172615401554167 
848	 0.173966846316767 
849	 0.173967844594803 
850	 0.173680669702988 
851	 0.173681719451118 
852	 0.174671719226135 
853	 0.175544179869796 
854	 0.175099909660813 
855	 0.174682902761554 
856	 0.174512974498665 
857	 0.174308383819284 
858	 0.174686673296094 
859	 0.175517326390211 
860	 0.175105407110836 
861	 0.174360342292667 
862	 0.174255365020399 
863	 0.174649356187998 
864	 0.175376574120659 
865	 0.176072008018603 
866	 0.176913963486774 
867	 0.177685236388997 
868	 0.177315058801309 
869	 0.177019186248408 
870	 0.177682886502856 
871	 0.177432148010625 
872	 0.176749735387112 
873	 0.177075744998052 
874	 0.177789317648356 
875	 0.178584520810991 
876	 0.179127551296366 
877	 0.17894538968434 
878	 0.177972673101196 
879	 0.178444553677281 
880	 0.179586473976033 
881	 0.179635557520382 
882	 0.179521104471761 
883	 0.179659133675301 
884	 0.180649990319133 
885	 0.181649492591078 
886	 0.182111270531298 
887	 0.181919643563894 
888	 0.181853278911754 
889	 0.182906463564395 
890	 0.182959225946483 
891	 0.182131669367523 
892	 0.182446669008242 
893	 0.182654768529635 
894	 0.18232326619844 
895	 0.182505580565491 
896	 0.182653417577588 
897	 0.182190153021538 
898	 0.18448835250834 
899	 0.18756959438136 
900	 0.184729167314261 
901	 0.182700471461322 
902	 0.183443501657089 
903	 0.184628733425849 
904	 0.185565383432924 
905	 0.185791727233173 
906	 0.185942855060295 
907	 0.185905438603541 
908	 0.185325136192194 
909	 0.184064493559958 
910	 0.182963368235181 
911	 0.18521325499907 
912	 0.186742809825382 
913	 0.185493915467769 
914	 0.184839451238126 
915	 0.185839374451002 
916	 0.189071928052072 
917	 0.189138776980509 
918	 0.186551789093639 
919	 0.185826820016864 
920	 0.185466147128411 
921	 0.185302106713553 
922	 0.18663378212215 
923	 0.187684305189717 
924	 0.186836803541561 
925	 0.185088423797418 
926	 0.183503171464603 
927	 0.183962148004826 
928	 0.184557749208846 
929	 0.184571631441691 
930	 0.184036086581706 
931	 0.183924841154149 
932	 0.18528324419915 
933	 0.189307668691195 
934	 0.191553589723802 
935	 0.185882013463721 
936	 0.182525391045264 
937	 0.183273780389896 
938	 0.185477046526025 
939	 0.186945808028871 
940	 0.186308889794553 
941	 0.181976146146206 
942	 0.17841723699169 
943	 0.178524699715386 
944	 0.177988272419672 
945	 0.178550816412766 
946	 0.183903519137046 
947	 0.183551096735827 
948	 0.177572063770214 
949	 0.175011744530792 
950	 0.175822968589117 
951	 0.178709551607648 
952	 0.177609068531513 
953	 0.171807229982636 
954	 0.16238900745781 
955	 0.163184191162463 
956	 0.169290434156205 
957	 0.167645636170188 
958	 0.168620633228793 
959	 0.173031421183231 
960	 0.175760065934624 
961	 0.174936973643711 
962	 0.170771180089828 
963	 0.170242671209785 
964	 0.16851773278091 
965	 0.161356070840099 
966	 0.163193280450351 
967	 0.170865184909693 
968	 0.173796256080212 
969	 0.174567476274258 
970	 0.173787755099233 
971	 0.171504222520915 
972	 0.171080508064651 
973	 0.173225268668335 
974	 0.169902040009073 
975	 0.16416990307196 
976	 0.160643334249804 
977	 0.163232524613614 
978	 0.168490895497701 
979	 0.167603299084319 
980	 0.164356822593668 
981	 0.161472208109368 
982	 0.164787480126482 
983	 0.167017199017199 
984	 0.165394352909189 
985	 0.170162339158644 
986	 0.174404962009747 
987	 0.170438256175336 
988	 0.16631407140775 
989	 0.165824749858706 
990	 0.173479945061117 
991	 0.174960100877977 
992	 0.169246603920356 
993	 0.169511516242325 
994	 0.169061006346156 
995	 0.165965010204386 
996	 0.168932073678216 
997	 0.173843442182842 
998	 0.176001723350467 
999	 0.17608995126617 
1000	 0.175598866749994 
1001	 0.17712343082832 
1002	 0.174092996988331 
1003	 0.168055325564475 
1004	 0.169299065205864 
1005	 0.173858065716985 
1006	 0.179159689335826 
1007	 0.18293984806542 
1008	 0.182129553314206 
1009	 0.175524487544134 
1010	 0.172357176442391 
1011	 0.175453507645828 
1012	 0.185930886982531 
1013	 0.193036466394489 
1014	 0.19291257901697 
1015	 0.1822081327541 
1016	 0.180068402301043 
1017	 0.187961853168557 
1018	 0.183174291978485 
1019	 0.179480931389373 
1020	 0.182736406954307 
1021	 0.177235454606949 
1022	 0.174378349822624 
1023	 0.185294171809286 
1024	 0.193168326324391 
1025	 0.194907643237508 
1026	 0.191054147651876 
1027	 0.189957876480007 
1028	 0.191820363405466 
1029	 0.189603868199237 
1030	 0.18866681277856 
1031	 0.1912425330793 
1032	 0.198733833424661 
1033	 0.203093392740986 
1034	 0.198714752349843 
1035	 0.184105208217718 
1036	 0.170410876396117 
1037	 0.16934990158982 
1038	 0.178175933508144 
1039	 0.18991571877456 
1040	 0.193804638223859 
1041	 0.197749360640378 
1042	 0.19993988884804 
1043	 0.187859612839572 
1044	 0.187183527747195 
1045	 0.199980225903383 
1046	 0.193305907107861 
1047	 0.18986287515988 
1048	 0.200392493863915 
1049	 0.197232490180757 
1050	 0.189004866417704 
1051	 0.186590003361188 
1052	 0.193207424918631 
1053	 0.191876757446534 
1054	 0.159027247359404 
1055	 0.182089795856393 
1056	 0.231937858102013 
1057	 0.206558427102333 
1058	 0.193644117722603 
1059	 0.21089235158639 
1060	 0.218566262512398 
1061	 0.207020255459626 
1062	 0.182430789007625 
1063	 0.201230042871001 
1064	 0.210386194743717 
1065	 0.176627698526268 
1066	 0.170684357000509 
1067	 0.189101596247164 
1068	 0.212427579650527 
1069	 0.209124674622059 
1070	 0.193874728603377 
1071	 0.200259124043001 
1072	 0.19430491823429 
1073	 0.178662570058831 
1074	 0.181506767247305 
1075	 0.203407857181456 
