Wavelength	AVEI200367.asd
325	 9.40473382394826E-02 
326	 8.76493115096603E-02 
327	 7.38601200041436E-02 
328	 6.37045791307441E-02 
329	 6.48751823339638E-02 
330	 7.61112219838645E-02 
331	 7.63727916236637E-02 
332	 7.41826794248024E-02 
333	 7.85394218297488E-02 
334	 7.71937748313121E-02 
335	 7.18899302552552E-02 
336	 0.070737595414255 
337	 7.10055810978163E-02 
338	 7.20186843336958E-02 
339	 7.46288407531429E-02 
340	 7.59442741243892E-02 
341	 7.37297118361568E-02 
342	 6.95030602682863E-02 
343	 6.66367768600998E-02 
344	 7.07365852287765E-02 
345	 7.37472972893933E-02 
346	 7.36091167703758E-02 
347	 7.16108009590017E-02 
348	 7.04212365861786E-02 
349	 7.15101074091068E-02 
350	 7.12744969536998E-02 
351	 7.04641495307618E-02 
352	 0.071019207048624 
353	 0.070546508537269 
354	 6.92354341534034E-02 
355	 7.00462383768111E-02 
356	 7.03268258871348E-02 
357	 6.88200177488846E-02 
358	 6.88294455981727E-02 
359	 7.00431930581856E-02 
360	 7.14405050636975E-02 
361	 7.15981641507854E-02 
362	 7.06018127474258E-02 
363	 6.99286455930834E-02 
364	 0.070382355614033 
365	 7.16858603119271E-02 
366	 6.91098386383531E-02 
367	 6.56518520409146E-02 
368	 6.58262025153337E-02 
369	 6.63784553322883E-02 
370	 6.66584034311238E-02 
371	 6.69367240426538E-02 
372	 6.83227179291865E-02 
373	 0.070639962687058 
374	 6.85397268868868E-02 
375	 6.53919186807582E-02 
376	 6.63654240771373E-02 
377	 6.70186950325034E-02 
378	 6.68154951484148E-02 
379	 6.76510290448787E-02 
380	 6.78105613207385E-02 
381	 6.67838352728777E-02 
382	 6.71106997599532E-02 
383	 6.77201943346757E-02 
384	 6.69362365787503E-02 
385	 6.82332246139599E-02 
386	 7.03669336241101E-02 
387	 6.71053693350227E-02 
388	 6.47184757569641E-02 
389	 6.54506168571459E-02 
390	 6.44140284921474E-02 
391	 6.31724973853755E-02 
392	 6.39515971155695E-02 
393	 6.54732803610649E-02 
394	 6.70822533658196E-02 
395	 6.81862944553632E-02 
396	 6.76577425342737E-02 
397	 6.56370916925902E-02 
398	 6.52201650363472E-02 
399	 6.57226750615688E-02 
400	 6.61390044201736E-02 
401	 0.065669993797532 
402	 6.48343168285992E-02 
403	 6.52962087219998E-02 
404	 6.57587850840809E-02 
405	 6.56819755616288E-02 
406	 6.51689009802816E-02 
407	 6.49952788108396E-02 
408	 6.60476709660325E-02 
409	 6.64355971701917E-02 
410	 6.59774267800978E-02 
411	 6.54694386240446E-02 
412	 6.49296298482213E-02 
413	 6.44873002584978E-02 
414	 6.46900887604364E-02 
415	 6.50320925126588E-02 
416	 6.48154559926637E-02 
417	 6.50569100154257E-02 
418	 6.56750562185484E-02 
419	 6.57751850770791E-02 
420	 6.54183079697461E-02 
421	 6.48041024145933E-02 
422	 6.50930354546436E-02 
423	 6.56683115531685E-02 
424	 6.54560889773234E-02 
425	 6.53334378589842E-02 
426	 6.55233042755839E-02 
427	 6.60157035142085E-02 
428	 6.64558618316427E-02 
429	 0.066577900879791 
430	 0.066289009165651 
431	 6.60211166571825E-02 
432	 6.64942659033485E-02 
433	 6.67257279701598E-02 
434	 6.65469638610274E-02 
435	 6.63753455202518E-02 
436	 6.62998537274508E-02 
437	 6.63632334773093E-02 
438	 6.63847410654483E-02 
439	 6.64104574866955E-02 
440	 6.65619792029618E-02 
441	 6.68981901288628E-02 
442	 6.73066396362647E-02 
443	 6.72624047115356E-02 
444	 6.72067835346045E-02 
445	 6.74950349931751E-02 
446	 6.78351960872129E-02 
447	 6.80647244646628E-02 
448	 6.79208982899512E-02 
449	 6.78590741812638E-02 
450	 6.79944883041798E-02 
451	 6.79998134036863E-02 
452	 6.80579158673087E-02 
453	 6.83600253331623E-02 
454	 6.87814612958711E-02 
455	 6.91600113682965E-02 
456	 6.91784052409088E-02 
457	 6.90062322847664E-02 
458	 0.068794350996753 
459	 6.89123735657122E-02 
460	 6.91681940322536E-02 
461	 6.92919016464298E-02 
462	 6.91482215499324E-02 
463	 6.88385199318272E-02 
464	 6.86806921374261E-02 
465	 6.90475072471505E-02 
466	 6.99544355935254E-02 
467	 6.99882427729461E-02 
468	 6.97336640500679E-02 
469	 7.02836993331159E-02 
470	 7.03912765141794E-02 
471	 7.00231136852957E-02 
472	 7.02292175627924E-02 
473	 7.03931195941091E-02 
474	 7.01811067490511E-02 
475	 0.070226178096407 
476	 7.04772584413913E-02 
477	 7.06949087228377E-02 
478	 7.09878667016349E-02 
479	 7.12244352696929E-02 
480	 7.08050482207561E-02 
481	 7.03663337265713E-02 
482	 7.04339013436124E-02 
483	 7.06781766337019E-02 
484	 7.10659744804971E-02 
485	 7.16952732357698E-02 
486	 7.21433836704861E-02 
487	 7.21788059267271E-02 
488	 7.16427682137484E-02 
489	 7.12067774626647E-02 
490	 7.15155528258743E-02 
491	 7.17884021313606E-02 
492	 7.19018392898299E-02 
493	 7.19776010973973E-02 
494	 7.20345700205633E-02 
495	 7.20982197776182E-02 
496	 7.22285369999058E-02 
497	 7.23705123576651E-02 
498	 7.24470361372846E-02 
499	 7.25627369806541E-02 
500	 7.27054228965581E-02 
501	 7.27739077702397E-02 
502	 7.27053676690424E-02 
503	 7.25106296338568E-02 
504	 7.25385993772069E-02 
505	 7.27555796142608E-02 
506	 7.30397149610622E-02 
507	 7.31085293562112E-02 
508	 7.30407420869364E-02 
509	 0.073545075951986 
510	 7.40242655503562E-02 
511	 7.40119625599774E-02 
512	 7.40453372747513E-02 
513	 7.40629301239887E-02 
514	 7.36130505920927E-02 
515	 7.36522704842288E-02 
516	 7.43966057613991E-02 
517	 7.49362641604049E-02 
518	 7.51173212954429E-02 
519	 7.48881291296632E-02 
520	 7.49178258425538E-02 
521	 7.51814885489211E-02 
522	 7.51769712273695E-02 
523	 7.52259377791488E-02 
524	 7.54194856050767E-02 
525	 7.53379658197386E-02 
526	 7.52524187282126E-02 
527	 7.56029256810913E-02 
528	 7.57839537332618E-02 
529	 7.57185591316067E-02 
530	 7.56738193295115E-02 
531	 7.58802933936608E-02 
532	 0.076422842662076 
533	 7.65987392356543E-02 
534	 7.64587020539202E-02 
535	 7.62808798922808E-02 
536	 7.64191558483318E-02 
537	 7.68689163994382E-02 
538	 0.076967674925635 
539	 7.69137645637934E-02 
540	 7.69344816608117E-02 
541	 7.70102881800655E-02 
542	 7.71675679138154E-02 
543	 0.077491562258235 
544	 7.77073322352037E-02 
545	 7.77071701293529E-02 
546	 0.077666671191176 
547	 7.76023033290273E-02 
548	 7.75090783482968E-02 
549	 7.77425649428447E-02 
550	 7.82422114788011E-02 
551	 7.85546693353054E-02 
552	 7.85581197628398E-02 
553	 7.82404710377941E-02 
554	 7.81925333396588E-02 
555	 7.84311889178518E-02 
556	 7.88394037769407E-02 
557	 7.90155874751953E-02 
558	 7.88744597653075E-02 
559	 7.87424040449751E-02 
560	 7.88041518580639E-02 
561	 7.91809425745041E-02 
562	 7.93621744928195E-02 
563	 7.93318968944476E-02 
564	 7.93196065263385E-02 
565	 7.93126983758676E-02 
566	 7.93388278455372E-02 
567	 7.95127385583587E-02 
568	 7.96700670558681E-02 
569	 7.95944010018962E-02 
570	 7.95568500064476E-02 
571	 7.96052609700965E-02 
572	 7.96284420388638E-02 
573	 7.97464098404705E-02 
574	 8.00037582726463E-02 
575	 8.01508211945203E-02 
576	 8.01757400653328E-02 
577	 8.01178153895552E-02 
578	 8.01465602124406E-02 
579	 8.02967220838181E-02 
580	 8.04214197087882E-02 
581	 8.05543494803928E-02 
582	 8.07118880411411E-02 
583	 0.080634432397781 
584	 8.04453428812675E-02 
585	 8.05493829001529E-02 
586	 8.08350066687149E-02 
587	 8.11623281948055E-02 
588	 8.09278510872513E-02 
589	 8.05968140925631E-02 
590	 8.08445279499644E-02 
591	 0.08085575558444 
592	 8.06940967496464E-02 
593	 8.12786703249471E-02 
594	 8.15672986142105E-02 
595	 0.081061071054492 
596	 8.10169736847122E-02 
597	 8.13124973082991E-02 
598	 8.14394717894722E-02 
599	 8.14602517605282E-02 
600	 8.13931483586983E-02 
601	 8.12980743826806E-02 
602	 8.13177952886743E-02 
603	 8.15516561918009E-02 
604	 8.16792524170848E-02 
605	 8.16367925263076E-02 
606	 8.13901909851653E-02 
607	 8.12997085297752E-02 
608	 8.14895086114984E-02 
609	 8.16483661750353E-02 
610	 8.17724447608356E-02 
611	 8.18940611199728E-02 
612	 8.19323341793248E-02 
613	 8.19008494975051E-02 
614	 8.19139065417576E-02 
615	 8.18935947571536E-02 
616	 0.081814155716776 
617	 8.18412485477449E-02 
618	 8.19643711358945E-02 
619	 8.21438930041036E-02 
620	 8.20986114808734E-02 
621	 0.081845072300791 
622	 8.19082280556109E-02 
623	 0.081857625219449 
624	 8.13592255756927E-02 
625	 8.14903669971911E-02 
626	 8.21250549505117E-02 
627	 8.24678548141645E-02 
628	 8.25434588929399E-02 
629	 8.23731781814992E-02 
630	 8.22637210805925E-02 
631	 8.22126031774983E-02 
632	 8.21756204128941E-02 
633	 8.23854611615302E-02 
634	 8.27030183219893E-02 
635	 8.25194378612116E-02 
636	 8.23056296886745E-02 
637	 8.23320634390892E-02 
638	 8.23107815414979E-02 
639	 8.23396975827116E-02 
640	 8.26781885915895E-02 
641	 8.26982598897504E-02 
642	 8.24055862131506E-02 
643	 8.27428428413547E-02 
644	 8.31914768665412E-02 
645	 8.32504679666937E-02 
646	 8.28497546848872E-02 
647	 8.22910079951242E-02 
648	 0.082364878964005 
649	 8.26198862674344E-02 
650	 0.082864060936507 
651	 8.30953204227047E-02 
652	 8.32224791174768E-02 
653	 8.31516263038109E-02 
654	 8.29807168079397E-02 
655	 8.28083203828357E-02 
656	 8.29048819138713E-02 
657	 8.29177230396681E-02 
658	 8.26589451955269E-02 
659	 8.23731547735868E-02 
660	 8.21556024325617E-02 
661	 8.21016131994913E-02 
662	 8.22113768965159E-02 
663	 8.23340535521292E-02 
664	 8.18775901509038E-02 
665	 8.13989149956803E-02 
666	 8.13666433750372E-02 
667	 8.13986580522963E-02 
668	 0.0813956472556 
669	 8.13150085578556E-02 
670	 8.10237041515885E-02 
671	 8.06519559272669E-02 
672	 8.11761077182985E-02 
673	 8.18698396186107E-02 
674	 8.18349557099938E-02 
675	 8.17138272729575E-02 
676	 8.16418780116662E-02 
677	 8.15460876525004E-02 
678	 8.16110013806024E-02 
679	 8.18838228410249E-02 
680	 8.18728749466749E-02 
681	 8.18963314759303E-02 
682	 8.25649165054696E-02 
683	 8.28595111275979E-02 
684	 8.27477290461663E-02 
685	 8.33752761207864E-02 
686	 8.40757390356722E-02 
687	 8.42272649418652E-02 
688	 8.41459515253433E-02 
689	 8.41117575594671E-02 
690	 8.46104151887433E-02 
691	 8.48706125520402E-02 
692	 0.084769627171282 
693	 0.084958932433254 
694	 8.53260522811517E-02 
695	 8.56904515629157E-02 
696	 8.57916219448312E-02 
697	 8.57834674172296E-02 
698	 8.62943199833185E-02 
699	 8.65874298345146E-02 
700	 8.63503945649372E-02 
701	 8.60825768090097E-02 
702	 8.60472099672565E-02 
703	 8.65028900351853E-02 
704	 0.086909848616241 
705	 8.71301184485664E-02 
706	 8.72651301842252E-02 
707	 8.72318954697351E-02 
708	 8.70487092148065E-02 
709	 8.73229983162573E-02 
710	 8.78047056709296E-02 
711	 8.78882135397678E-02 
712	 8.78425345732697E-02 
713	 8.77702338982295E-02 
714	 8.77491442636224E-02 
715	 8.78379277957715E-02 
716	 8.80992033838269E-02 
717	 8.84889229172098E-02 
718	 8.89696391479733E-02 
719	 8.94515575093544E-02 
720	 8.95420529651308E-02 
721	 8.92594943016484E-02 
722	 8.92927434597367E-02 
723	 8.93495259992946E-02 
724	 8.90642774471924E-02 
725	 8.88857348634777E-02 
726	 8.90102795008197E-02 
727	 8.96796184829686E-02 
728	 9.01228391545051E-02 
729	 8.99933833654753E-02 
730	 8.99715269195316E-02 
731	 9.00704591186794E-02 
732	 9.01993984042921E-02 
733	 9.00972573225552E-02 
734	 8.97926289342568E-02 
735	 8.95477278994403E-02 
736	 8.95080183312912E-02 
737	 8.97452525142756E-02 
738	 8.98793553306054E-02 
739	 8.99713234432687E-02 
740	 9.02446821639477E-02 
741	 9.05889096379918E-02 
742	 9.08859852941808E-02 
743	 9.08118902256732E-02 
744	 9.07476680833296E-02 
745	 9.09943691368062E-02 
746	 9.10030024452524E-02 
747	 9.08828627772948E-02 
748	 9.11392413347351E-02 
749	 0.091313407500785 
750	 0.091263401817068 
751	 9.11993774725536E-02 
752	 9.10925101956812E-02 
753	 9.09156807051705E-02 
754	 9.10763286564382E-02 
755	 9.14496789483437E-02 
756	 9.14719194594122E-02 
757	 9.13363409010203E-02 
758	 0.091154473467036 
759	 9.12239377285381E-02 
760	 9.17386220942827E-02 
761	 9.25537216476393E-02 
762	 9.31434301168001E-02 
763	 9.34250321983841E-02 
764	 9.38270596709521E-02 
765	 9.36556399870165E-02 
766	 9.29403617308335E-02 
767	 9.27857303182008E-02 
768	 0.092887300533959 
769	 9.28388716249207E-02 
770	 9.26364982341581E-02 
771	 9.24171167543421E-02 
772	 9.27248216146181E-02 
773	 9.29723591960138E-02 
774	 9.28252999035959E-02 
775	 9.30866321936193E-02 
776	 9.34383974907207E-02 
777	 9.30983135281354E-02 
778	 9.29947831088185E-02 
779	 9.32720082234421E-02 
780	 9.32618935257156E-02 
781	 9.32043764907746E-02 
782	 9.32980593200981E-02 
783	 9.34178583090211E-02 
784	 9.35332266874303E-02 
785	 9.36599999212899E-02 
786	 9.34116007480903E-02 
787	 9.29007923904738E-02 
788	 9.32536854497913E-02 
789	 0.093946331870238 
790	 9.43840802391404E-02 
791	 9.41108368581792E-02 
792	 9.35638036555618E-02 
793	 9.40453892904349E-02 
794	 9.44472473216286E-02 
795	 9.44286480890563E-02 
796	 9.43618941053129E-02 
797	 9.44607725152681E-02 
798	 0.094883338217033 
799	 9.50375837875504E-02 
800	 9.48697972558285E-02 
801	 9.45214889615315E-02 
802	 9.44454553109846E-02 
803	 9.47469832756898E-02 
804	 9.47788084573282E-02 
805	 9.47328272778447E-02 
806	 9.48671260829439E-02 
807	 9.51376157481976E-02 
808	 9.53800885312716E-02 
809	 9.51191728406569E-02 
810	 9.49823223936432E-02 
811	 9.52351181207514E-02 
812	 9.56431836495813E-02 
813	 9.58650162253636E-02 
814	 9.54855742241372E-02 
815	 9.48937049774393E-02 
816	 9.46522998143609E-02 
817	 9.62141734986704E-02 
818	 9.67316471520367E-02 
819	 9.54074573220949E-02 
820	 9.54711748834919E-02 
821	 9.60441552857405E-02 
822	 9.58279627276016E-02 
823	 9.55587379188676E-02 
824	 9.55597711439133E-02 
825	 9.63209796111692E-02 
826	 0.096747767246014 
827	 9.65354123835292E-02 
828	 9.70008905676062E-02 
829	 9.74208175723207E-02 
830	 9.68143705774963E-02 
831	 9.64501824017235E-02 
832	 9.64939523257598E-02 
833	 9.65638690767954E-02 
834	 9.64797285933475E-02 
835	 9.62590772479433E-02 
836	 0.096595761519821 
837	 9.69745944616575E-02 
838	 9.67683685307694E-02 
839	 9.63795584943085E-02 
840	 0.096171737701861 
841	 9.69790923695792E-02 
842	 9.73728296673501E-02 
843	 9.68949182983389E-02 
844	 9.68818445206815E-02 
845	 9.71110321846137E-02 
846	 9.72053635062231E-02 
847	 9.71313499973701E-02 
848	 9.69853265291286E-02 
849	 9.70424472721855E-02 
850	 9.74099089544879E-02 
851	 9.78989947217549E-02 
852	 9.71042536478315E-02 
853	 9.64003817877981E-02 
854	 9.72713018519401E-02 
855	 9.74574946488478E-02 
856	 9.70840249530307E-02 
857	 9.76957836569303E-02 
858	 9.78863736698382E-02 
859	 9.73661376879655E-02 
860	 9.71767255979678E-02 
861	 9.70743728644261E-02 
862	 9.68270118372597E-02 
863	 9.73023738032184E-02 
864	 9.79119682257824E-02 
865	 9.67753402927688E-02 
866	 9.68219341899652E-02 
867	 9.84880659873038E-02 
868	 9.88368743736481E-02 
869	 9.85252021066008E-02 
870	 9.82235890320666E-02 
871	 9.80131515999374E-02 
872	 0.097946559026033 
873	 9.80488445615231E-02 
874	 9.81290145897736E-02 
875	 9.80750036809854E-02 
876	 9.77354665557113E-02 
877	 9.74356902030577E-02 
878	 9.74315696051238E-02 
879	 9.77852458534859E-02 
880	 9.81136144418231E-02 
881	 9.78033755790342E-02 
882	 9.77496114382736E-02 
883	 9.80981266200446E-02 
884	 9.85135077923407E-02 
885	 9.85574969905761E-02 
886	 9.80135634573694E-02 
887	 0.097132862145429 
888	 9.70082600099787E-02 
889	 9.89323298565913E-02 
890	 9.97026415520006E-02 
891	 9.91563659387341E-02 
892	 0.099500856447122 
893	 9.92972958294879E-02 
894	 9.81680151875554E-02 
895	 9.80020555449427E-02 
896	 9.80540717617995E-02 
897	 9.74083974962703E-02 
898	 9.90680032826243E-02 
899	 0.101788627934353 
900	 0.101125169749651 
901	 9.98516137772064E-02 
902	 9.89797171351468E-02 
903	 9.85270376066112E-02 
904	 9.84011802089707E-02 
905	 0.09852450557995 
906	 9.89048077712073E-02 
907	 0.0997195364324 
908	 0.101362398351836 
909	 0.101403245267841 
910	 0.100052767864668 
911	 0.101257962300566 
912	 0.101791773432232 
913	 0.100149603642192 
914	 9.94946440941711E-02 
915	 0.100248749938589 
916	 0.102334810240105 
917	 0.102231474786105 
918	 0.100457562554666 
919	 0.100592472739892 
920	 0.100740852818504 
921	 0.100171770649908 
922	 9.82811490845229E-02 
923	 9.73853538820067E-02 
924	 0.09935161535819 
925	 0.100365698554748 
926	 0.10014284536199 
927	 9.95413456124657E-02 
928	 9.98791625447515E-02 
929	 0.101302986773486 
930	 0.10156329290252 
931	 0.100580856659814 
932	 9.87889634594132E-02 
933	 9.99162765868298E-02 
934	 0.104230834066806 
935	 0.110311715427921 
936	 0.110726321387152 
937	 0.10771029189045 
938	 0.11246148405161 
939	 0.111990358094761 
940	 0.104773641061765 
941	 0.102921456908534 
942	 0.102346631530218 
943	 0.100139383015692 
944	 0.100573650191639 
945	 0.102529038921892 
946	 0.103443635945707 
947	 0.102399242225405 
948	 0.100051837549919 
949	 9.93069024179575E-02 
950	 0.100517081080924 
951	 0.102679064470306 
952	 9.99809269173805E-02 
953	 9.61119241324336E-02 
954	 9.48827713401231E-02 
955	 9.58191022627437E-02 
956	 9.87664044232133E-02 
957	 0.10370405883852 
958	 0.104564736266286 
959	 0.102008352345841 
960	 0.103648662020187 
961	 0.107180831441852 
962	 0.109616102679992 
963	 0.101124357675539 
964	 9.27054141445093E-02 
965	 9.51092520405676E-02 
966	 0.100526855076494 
967	 0.104837656781415 
968	 0.10311836398502 
969	 0.10093346131495 
970	 0.100297039154931 
971	 0.102047347369623 
972	 0.10389948711809 
973	 0.104413261403734 
974	 0.103746990737025 
975	 0.10284894829727 
976	 0.102710185542753 
977	 0.102043538122989 
978	 0.101870559497798 
979	 0.105045132736067 
980	 0.105169895275048 
981	 0.101546400628497 
982	 9.89511153139034E-02 
983	 0.096934564884499 
984	 9.58390649748498E-02 
985	 9.87397676901673E-02 
986	 0.101358505517573 
987	 9.93047136782855E-02 
988	 9.85297734784708E-02 
989	 0.100881603653377 
990	 0.108132785144502 
991	 0.107983932694863 
992	 0.100095421920044 
993	 9.62552468137983E-02 
994	 9.92921713670805E-02 
995	 0.107782347386658 
996	 0.104232141025409 
997	 9.87211468708814E-02 
998	 0.101890974822732 
999	 0.101514098420113 
1000	 0.100819728088103 
1001	 0.108713163475309 
1002	 0.108734180017972 
1003	 0.101234614021458 
1004	 0.101878975779296 
1005	 0.102908014590498 
1006	 0.102288103296015 
1007	 0.106038308694605 
1008	 0.10802541118992 
1009	 0.103899151517635 
1010	 0.10096648541804 
1011	 0.099078157081557 
1012	 9.66758670723944E-02 
1013	 9.92036494223024E-02 
1014	 0.103068193820192 
1015	 9.57821833939658E-02 
1016	 9.90393013526999E-02 
1017	 0.112196048495522 
1018	 0.103767230046877 
1019	 9.73101899455884E-02 
1020	 0.104359746788716 
1021	 0.107440035133342 
1022	 0.107789416715254 
1023	 0.108093626013607 
1024	 0.10880158496401 
1025	 0.109720569383415 
1026	 0.110239564925431 
1027	 0.109776313600131 
1028	 0.109011807427799 
1029	 0.110883762966219 
1030	 0.109330049310206 
1031	 0.104419784304692 
1032	 0.107358568940669 
1033	 0.108123710085365 
1034	 0.101800072100397 
1035	 0.10196741448512 
1036	 0.101292871477116 
1037	 9.17161799637614E-02 
1038	 8.79175407765905E-02 
1039	 9.13524449026565E-02 
1040	 9.90034141492718E-02 
1041	 9.66845745519479E-02 
1042	 8.99754978893605E-02 
1043	 0.107370057517555 
1044	 0.116480662946592 
1045	 0.109690901442369 
1046	 0.106935743492761 
1047	 0.107734999284238 
1048	 0.10983276668223 
1049	 9.89478826697015E-02 
1050	 9.38748261721046E-02 
1051	 0.109427534100301 
1052	 0.110553728944892 
1053	 0.107044694988847 
1054	 0.121557263575008 
1055	 0.115243219844227 
1056	 0.095816838676918 
1057	 0.105283541652334 
1058	 0.110760199378954 
1059	 0.104485943367502 
1060	 9.55585167052128E-02 
1061	 9.31016504434358E-02 
1062	 0.100497071179016 
1063	 0.111595048654701 
1064	 0.117149305968035 
1065	 0.10922952534998 
1066	 8.66310349549269E-02 
1067	 8.02729271226513E-02 
1068	 0.11544231509412 
1069	 0.110050199603848 
1070	 8.22558026217273E-02 
1071	 8.77362706907698E-02 
1072	 0.101130564345213 
1073	 0.10748584674248 
1074	 8.18950502806754E-02 
1075	 8.41997169073437E-02 
