Wavelength	AVEI200302.asd
325	 3.94881724309315E-02 
326	 4.41148581503793E-02 
327	 3.55385460301141E-02 
328	 4.05285054616453E-02 
329	 4.20945368502195E-02 
330	 3.46472888576324E-02 
331	 0.018454614586719 
332	 1.08625416779282E-02 
333	 2.60773553706783E-02 
334	 3.40741754210199E-02 
335	 3.39470637582644E-02 
336	 3.62361328118629E-02 
337	 3.82101684366369E-02 
338	 3.84785707353363E-02 
339	 3.38993572895907E-02 
340	 0.027511576179958 
341	 2.27776468052601E-02 
342	 0.027327298642953 
343	 3.48186340022184E-02 
344	 3.18022551853532E-02 
345	 2.69327754474812E-02 
346	 0.024820332418339 
347	 3.36199052103062E-02 
348	 3.94822434262934E-02 
349	 3.46187502076303E-02 
350	 3.58826614383699E-02 
351	 3.89722714128605E-02 
352	 3.33762664849445E-02 
353	 3.05194785318326E-02 
354	 3.13060066578728E-02 
355	 2.81524893179938E-02 
356	 2.56291170622643E-02 
357	 2.60557304981794E-02 
358	 2.36840539019035E-02 
359	 2.29439998063903E-02 
360	 3.13687824861273E-02 
361	 3.40781227216397E-02 
362	 3.01849938470096E-02 
363	 3.00320917547297E-02 
364	 0.030119677103284 
365	 2.87372262604159E-02 
366	 0.027040190781483 
367	 2.68486345918233E-02 
368	 3.04218956015481E-02 
369	 2.92503884703297E-02 
370	 2.53433000882643E-02 
371	 3.31820102554603E-02 
372	 3.62261359891196E-02 
373	 2.78433123209512E-02 
374	 2.74139354514418E-02 
375	 3.16725768264949E-02 
376	 3.32440080386808E-02 
377	 3.08230044283472E-02 
378	 2.71221299707575E-02 
379	 3.35593037261356E-02 
380	 3.52789833676156E-02 
381	 2.72313114547994E-02 
382	 2.86504167078313E-02 
383	 3.38118335955253E-02 
384	 3.30663783091259E-02 
385	 2.90061922555554E-02 
386	 2.42667364487074E-02 
387	 2.47693758955292E-02 
388	 2.66576149778766E-02 
389	 2.77572980709698E-02 
390	 2.73085602730563E-02 
391	 2.63839047126404E-02 
392	 2.63272487506311E-02 
393	 2.78278378955319E-02 
394	 2.95436565043751E-02 
395	 0.027048397699983 
396	 2.60367740284641E-02 
397	 0.028062305777856 
398	 2.70083928091095E-02 
399	 2.55203436445311E-02 
400	 2.67173738698839E-02 
401	 2.89254572671605E-02 
402	 3.09664639352705E-02 
403	 3.12300722762057E-02 
404	 2.97498027141945E-02 
405	 2.72773460399098E-02 
406	 2.81855054337302E-02 
407	 3.01024308899497E-02 
408	 2.97156709563459E-02 
409	 2.90610959383467E-02 
410	 2.84404441437263E-02 
411	 2.72388234603688E-02 
412	 2.66833980490577E-02 
413	 2.73363934117864E-02 
414	 0.028721566402393 
415	 2.98182711176317E-02 
416	 2.94573943720018E-02 
417	 2.97344068623939E-02 
418	 3.04232351793578E-02 
419	 2.91885362148896E-02 
420	 2.78658325421927E-02 
421	 2.74920457655949E-02 
422	 2.77110184882775E-02 
423	 2.75646211304823E-02 
424	 0.025682225970146 
425	 2.60273250611474E-02 
426	 2.84551370138159E-02 
427	 2.86449969950769E-02 
428	 2.82249047947868E-02 
429	 2.82922265645105E-02 
430	 2.89224297521271E-02 
431	 2.90480858000944E-02 
432	 2.68166073477217E-02 
433	 2.59949278736382E-02 
434	 2.70041635966245E-02 
435	 0.027212051372139 
436	 2.73053131691141E-02 
437	 2.77386159061144E-02 
438	 2.82361079234884E-02 
439	 0.028423043416721 
440	 2.76684261268148E-02 
441	 2.68943709631478E-02 
442	 2.65732839919666E-02 
443	 2.71431953707937E-02 
444	 2.83016683485912E-02 
445	 0.029578566339674 
446	 2.86325904417511E-02 
447	 2.67289776825189E-02 
448	 2.75155444321716E-02 
449	 2.86748481484613E-02 
450	 2.92446683957513E-02 
451	 2.84700840021117E-02 
452	 2.79411004427965E-02 
453	 2.91360303408981E-02 
454	 2.89560939799263E-02 
455	 2.75718213827641E-02 
456	 2.70038643096524E-02 
457	 2.75232659910195E-02 
458	 2.90013419614711E-02 
459	 2.96499371574019E-02 
460	 2.96406420350629E-02 
461	 2.93905002794864E-02 
462	 2.88375732404365E-02 
463	 2.83256769947408E-02 
464	 0.028764535541748 
465	 2.93479904179393E-02 
466	 2.96478355116268E-02 
467	 0.029901356064592 
468	 3.02175658625549E-02 
469	 3.07321576000142E-02 
470	 3.09521173946438E-02 
471	 3.06155687084796E-02 
472	 2.90937798679388E-02 
473	 2.87790917757359E-02 
474	 3.07441424705469E-02 
475	 3.01844135795229E-02 
476	 2.85759803959165E-02 
477	 2.97306716894457E-02 
478	 3.00667047896714E-02 
479	 2.92153377005583E-02 
480	 3.02721829884034E-02 
481	 3.10078087244524E-02 
482	 2.97701776630056E-02 
483	 2.97497334223858E-02 
484	 3.06921363001796E-02 
485	 3.07227523970076E-02 
486	 3.02961149948882E-02 
487	 2.96931900365242E-02 
488	 2.96577501514587E-02 
489	 3.00573872399885E-02 
490	 3.06498639836607E-02 
491	 3.08864097203666E-02 
492	 3.06692081229205E-02 
493	 2.99384762348283E-02 
494	 2.99063145497048E-02 
495	 3.09644903903422E-02 
496	 3.18106999561986E-02 
497	 3.22334427679975E-02 
498	 3.21537094308411E-02 
499	 3.16538923607184E-02 
500	 3.10181788417851E-02 
501	 3.10225347064635E-02 
502	 3.08740493388621E-02 
503	 3.03770946202393E-02 
504	 3.20898679190245E-02 
505	 3.42183342380248E-02 
506	 0.033257715367073 
507	 3.32910375279414E-02 
508	 3.48345148156918E-02 
509	 3.50237434801672E-02 
510	 3.48040625019585E-02 
511	 3.50265304150758E-02 
512	 3.58712072314217E-02 
513	 3.69003885903163E-02 
514	 0.037078689120285 
515	 3.67628070157289E-02 
516	 3.62829165111753E-02 
517	 3.65820613482414E-02 
518	 3.75449506464106E-02 
519	 3.88724147370424E-02 
520	 3.90795758023033E-02 
521	 3.84889075440118E-02 
522	 3.87193764421494E-02 
523	 3.96534800358068E-02 
524	 4.11665747752419E-02 
525	 4.26624152626997E-02 
526	 4.34573701499366E-02 
527	 4.26983685904713E-02 
528	 4.33027511539979E-02 
529	 4.52109185199075E-02 
530	 4.53872150038797E-02 
531	 4.53177169529367E-02 
532	 4.59251899935644E-02 
533	 4.60586949313463E-02 
534	 4.58326957710897E-02 
535	 4.57352877247377E-02 
536	 4.58820806522137E-02 
537	 4.63339671703192E-02 
538	 4.70569087275016E-02 
539	 4.77657554385749E-02 
540	 4.81946602079218E-02 
541	 4.86728704540946E-02 
542	 4.91577598126468E-02 
543	 4.93958005965249E-02 
544	 4.94581136115176E-02 
545	 4.94418423111767E-02 
546	 4.96717997704355E-02 
547	 5.01137193528346E-02 
548	 5.06780184463344E-02 
549	 5.04634238232402E-02 
550	 4.97194609312831E-02 
551	 5.00270650484436E-02 
552	 5.06807241190166E-02 
553	 5.12369057613236E-02 
554	 5.21111959583464E-02 
555	 5.27011891011749E-02 
556	 5.17446875022246E-02 
557	 5.15989921868026E-02 
558	 5.26256559189676E-02 
559	 5.27102443664322E-02 
560	 5.19536381305752E-02 
561	 5.07012062882563E-02 
562	 5.12642161819464E-02 
563	 5.29747914635482E-02 
564	 5.29800137773945E-02 
565	 5.25878295485275E-02 
566	 0.052346019806925 
567	 5.25313072913374E-02 
568	 5.26807218749578E-02 
569	 5.21645580775921E-02 
570	 5.19678357148383E-02 
571	 5.22081859093332E-02 
572	 0.052511152376981 
573	 5.21654852339676E-02 
574	 0.050897806134903 
575	 5.03704249924022E-02 
576	 5.04454043833543E-02 
577	 5.04359118713077E-02 
578	 5.01891286790267E-02 
579	 4.97273949104868E-02 
580	 4.94492892797076E-02 
581	 4.96063709875462E-02 
582	 5.03316544057479E-02 
583	 5.06150400610684E-02 
584	 5.06105334933707E-02 
585	 5.14617807213108E-02 
586	 0.05119400948295 
587	 0.049343804008786 
588	 4.83737565778412E-02 
589	 4.83010413321889E-02 
590	 4.88119286640457E-02 
591	 5.02287530923046E-02 
592	 5.16562173004613E-02 
593	 5.02804478829842E-02 
594	 4.92256906209068E-02 
595	 5.01062895577496E-02 
596	 4.97622139312387E-02 
597	 4.89089842881442E-02 
598	 4.95210236720327E-02 
599	 0.050089935184133 
600	 5.01985114053716E-02 
601	 5.01285738303672E-02 
602	 5.00512649112269E-02 
603	 5.00966402074099E-02 
604	 0.049918891101919 
605	 4.96601555890529E-02 
606	 5.00081593228996E-02 
607	 4.93530392812089E-02 
608	 4.75687153121152E-02 
609	 0.048082964143892 
610	 4.94445248440295E-02 
611	 4.94334253319127E-02 
612	 4.88055220331485E-02 
613	 4.79323797726582E-02 
614	 4.74346200963248E-02 
615	 4.72713930151502E-02 
616	 4.75439164331083E-02 
617	 4.93402682235897E-02 
618	 5.09304856127188E-02 
619	 4.91977448978438E-02 
620	 4.71481208876306E-02 
621	 4.60077071817836E-02 
622	 4.66020741885904E-02 
623	 4.75198790565434E-02 
624	 4.74944195603778E-02 
625	 0.047770726054026 
626	 4.81696195702818E-02 
627	 4.75251348434068E-02 
628	 4.76957364502324E-02 
629	 4.89206220363756E-02 
630	 4.76552705579653E-02 
631	 4.64223182894408E-02 
632	 4.86415185017737E-02 
633	 4.92743829089725E-02 
634	 4.78405358540374E-02 
635	 4.68212136329661E-02 
636	 4.65689382509258E-02 
637	 4.71178027519948E-02 
638	 4.64166094735149E-02 
639	 4.52149837777447E-02 
640	 4.52780657431369E-02 
641	 4.64729178540252E-02 
642	 4.79522110562596E-02 
643	 4.64080209549709E-02 
644	 4.42450237049415E-02 
645	 4.37634566043003E-02 
646	 0.045230040156084 
647	 4.71331956241241E-02 
648	 4.52152358708528E-02 
649	 4.38325051216167E-02 
650	 4.44139741513404E-02 
651	 4.42192923441297E-02 
652	 4.37169090760082E-02 
653	 4.37108634386829E-02 
654	 4.30717405536638E-02 
655	 4.20007252928794E-02 
656	 0.042399803284694 
657	 4.21490630118382E-02 
658	 4.04053791733208E-02 
659	 4.05680456336853E-02 
660	 4.15898946063838E-02 
661	 4.12625110302998E-02 
662	 4.05792305776157E-02 
663	 4.00240657540176E-02 
664	 4.05734702585566E-02 
665	 4.08561787693053E-02 
666	 3.98068232636597E-02 
667	 0.039325420461042 
668	 3.92751964602718E-02 
669	 3.83824805109867E-02 
670	 3.78849286943053E-02 
671	 3.81441941081823E-02 
672	 3.84152829018122E-02 
673	 3.87822519791014E-02 
674	 3.93840163987263E-02 
675	 0.039311783519682 
676	 3.86450149159396E-02 
677	 3.80888919963821E-02 
678	 3.85065546844465E-02 
679	 4.00701151049912E-02 
680	 4.01936493369953E-02 
681	 0.039712986367396 
682	 4.04908494887849E-02 
683	 4.06949078322886E-02 
684	 4.04876382005319E-02 
685	 4.26217122354426E-02 
686	 4.49450318816246E-02 
687	 0.045617534771309 
688	 4.77939371306857E-02 
689	 5.08391576753144E-02 
690	 5.25809520729229E-02 
691	 0.054004371558446 
692	 5.56118852432048E-02 
693	 5.80442160236218E-02 
694	 6.05308511141018E-02 
695	 6.22534416939576E-02 
696	 6.64365894500072E-02 
697	 7.17793339146094E-02 
698	 7.34389158402722E-02 
699	 7.46660907957965E-02 
700	 7.70651868858239E-02 
701	 8.05514962827958E-02 
702	 8.44652981882413E-02 
703	 8.79252843537583E-02 
704	 9.09037090442532E-02 
705	 9.34055070866008E-02 
706	 9.54065839809702E-02 
707	 9.76006332084798E-02 
708	 0.100378874455214 
709	 0.103027206573664 
710	 0.10564265340583 
711	 0.108681529908293 
712	 0.110901112632927 
713	 0.112266864246763 
714	 0.114608540032432 
715	 0.116777180131119 
716	 0.117790585601955 
717	 0.119582341791589 
718	 0.122352520812559 
719	 0.124513072537438 
720	 0.127165156775192 
721	 0.130037138961746 
722	 0.131396095199716 
723	 0.131960923866919 
724	 0.132395780478901 
725	 0.134117013326647 
726	 0.136538921574041 
727	 0.136994557040539 
728	 0.137697862937539 
729	 0.139633057692144 
730	 0.141447107706182 
731	 0.142702600383832 
732	 0.14308364913844 
733	 0.143398650595476 
734	 0.143859267960763 
735	 0.144321963208185 
736	 0.144784227311103 
737	 0.145302485834672 
738	 0.146550055475436 
739	 0.148020824020508 
740	 0.148579841065854 
741	 0.149551125168624 
742	 0.150924115624489 
743	 0.151011063861916 
744	 0.15059550598794 
745	 0.150432767901174 
746	 0.150804577444385 
747	 0.151379633385886 
748	 0.15109105689162 
749	 0.151441725179036 
750	 0.152782311170719 
751	 0.153731332713166 
752	 0.154757164214392 
753	 0.156395283410843 
754	 0.157103199076031 
755	 0.15706786309177 
756	 0.157741690762057 
757	 0.158389764089821 
758	 0.158804398980737 
759	 0.159510023376565 
760	 0.161250973514085 
761	 0.163861712422185 
762	 0.163416067564579 
763	 0.161134225083126 
764	 0.161075374898574 
765	 0.163323367897059 
766	 0.166467565856299 
767	 0.16514081042511 
768	 0.162809813453005 
769	 0.163612810325834 
770	 0.16416038605804 
771	 0.164065097825804 
772	 0.164768892822649 
773	 0.165578656574577 
774	 0.166021524888955 
775	 0.166354256097333 
776	 0.166615106768264 
777	 0.166737067971445 
778	 0.168028071462907 
779	 0.170027745469797 
780	 0.16889055496132 
781	 0.168383191443447 
782	 0.17117173773085 
783	 0.171580149678865 
784	 0.17070099710613 
785	 0.173071831398231 
786	 0.173708939016397 
787	 0.17195540737219 
788	 0.173096043278245 
789	 0.174471063794982 
790	 0.173501814396706 
791	 0.172745245997622 
792	 0.173185742947934 
793	 0.176426431990664 
794	 0.176877343549673 
795	 0.173794016502254 
796	 0.175038084068174 
797	 0.177040565899628 
798	 0.175951134285052 
799	 0.17655144557578 
800	 0.178564763988281 
801	 0.178733466782985 
802	 0.179105573116403 
803	 0.180196880895974 
804	 0.180473311097259 
805	 0.180571847592134 
806	 0.181275832830872 
807	 0.182142816583749 
808	 0.183022707798483 
809	 0.183850605194771 
810	 0.184005800586836 
811	 0.183471494174843 
812	 0.184243825187153 
813	 0.184937704817875 
814	 0.183553191186868 
815	 0.184695984788124 
816	 0.188520290358999 
817	 0.192236268898788 
818	 0.190918845017452 
819	 0.184489709588782 
820	 0.184909847271383 
821	 0.187638471202323 
822	 0.186478134587243 
823	 0.187385508754371 
824	 0.190423931680962 
825	 0.192230155765015 
826	 0.194254588753704 
827	 0.196699490912514 
828	 0.197023827517067 
829	 0.196105805354775 
830	 0.195371699789627 
831	 0.194342506073471 
832	 0.193349433008752 
833	 0.193325719892643 
834	 0.193624216249039 
835	 0.194041607198107 
836	 0.195026608284007 
837	 0.196602506743483 
838	 0.198704779522463 
839	 0.199677202147029 
840	 0.199557785796429 
841	 0.199755856125104 
842	 0.198748705271932 
843	 0.196616412563188 
844	 0.19737891657956 
845	 0.199278271366791 
846	 0.199974550041875 
847	 0.199028660354081 
848	 0.198294519848522 
849	 0.203951509552275 
850	 0.20643476209301 
851	 0.202830617056669 
852	 0.201734975079186 
853	 0.202113277197832 
854	 0.202095584881383 
855	 0.202049150843349 
856	 0.202121274155861 
857	 0.202570107116526 
858	 0.203436301838967 
859	 0.204723051815463 
860	 0.206813234705378 
861	 0.207001754169433 
862	 0.203146137409577 
863	 0.201424226370813 
864	 0.20249356333057 
865	 0.204888322312627 
866	 0.207572591406017 
867	 0.209182660796877 
868	 0.206022615424768 
869	 0.205452354776962 
870	 0.212345186134266 
871	 0.212619684660983 
872	 0.208157738302646 
873	 0.206913017422869 
874	 0.207812637699139 
875	 0.209837005807681 
876	 0.20882926880264 
877	 0.209885445811319 
878	 0.215593365468648 
879	 0.215483753554641 
880	 0.212803641196279 
881	 0.215132252022578 
882	 0.217153914591467 
883	 0.217719244739711 
884	 0.218180706633208 
885	 0.217212359507268 
886	 0.215078749263215 
887	 0.21876945839609 
888	 0.223617835897515 
889	 0.222505005144258 
890	 0.22038319476983 
891	 0.219105619967569 
892	 0.22088828059586 
893	 0.221939816874308 
894	 0.221282511515931 
895	 0.225856317165146 
896	 0.230248035220951 
897	 0.227702598390676 
898	 0.228521836623323 
899	 0.231695299001323 
900	 0.229285643130402 
901	 0.225800108992822 
902	 0.224448921337238 
903	 0.232221490937193 
904	 0.237038886543658 
905	 0.230968714527874 
906	 0.234691528558729 
907	 0.24175305617362 
908	 0.235033776778817 
909	 0.231504044307693 
910	 0.233925391629451 
911	 0.23374684204651 
912	 0.230529749528394 
913	 0.225569041934088 
914	 0.228891394015049 
915	 0.233791102422981 
916	 0.231551135298487 
917	 0.232454984591805 
918	 0.237031396269493 
919	 0.242417062787851 
920	 0.239773010880984 
921	 0.228964330952713 
922	 0.227463973309389 
923	 0.229047245493481 
924	 0.228027142010552 
925	 0.236070021670974 
926	 0.245516295189641 
927	 0.235636214923587 
928	 0.225878058291856 
929	 0.223723384470917 
930	 0.226138859347174 
931	 0.226342071231015 
932	 0.220277429189863 
933	 0.228917116940155 
934	 0.236685561501213 
935	 0.217315353748376 
936	 0.218553270860391 
937	 0.235997246578566 
938	 0.225796559416508 
939	 0.223369612151182 
940	 0.232057568089181 
941	 0.217043313522071 
942	 0.205395800180054 
943	 0.216541872505557 
944	 0.217404161068711 
945	 0.220963378748091 
946	 0.255110086760939 
947	 0.237672866632149 
948	 0.185646026311567 
949	 0.226873049875801 
950	 0.26274856326279 
951	 0.259053677346465 
952	 0.251293346309481 
953	 0.24624041051669 
954	 0.246109887282195 
955	 0.237256576483413 
956	 0.228028616808297 
957	 0.235000917685558 
958	 0.239423923734468 
959	 0.234684619659485 
960	 0.216512638408951 
961	 0.201633492073942 
962	 0.201067671522789 
963	 0.21882394231426 
964	 0.239725223766411 
965	 0.250980840720618 
966	 0.248006084619906 
967	 0.236272173990406 
968	 0.227756993509139 
969	 0.232617986278684 
970	 0.245634201335161 
971	 0.238508034422515 
972	 0.224356258861834 
973	 0.215703975008698 
974	 0.237423098864623 
975	 0.25454327402858 
976	 0.228134811948648 
977	 0.216191088941873 
978	 0.223215583083526 
979	 0.232241526766011 
980	 0.234931112563185 
981	 0.230027990790204 
982	 0.221502352864491 
983	 0.230832300460286 
984	 0.259838426812043 
985	 0.254465730629465 
986	 0.23232751570341 
987	 0.217375049534303 
988	 0.219571968778843 
989	 0.232383662884659 
990	 0.239074940203233 
991	 0.246874394996805 
992	 0.25191842598288 
993	 0.237847632192829 
994	 0.229196266338478 
995	 0.23451847913196 
996	 0.224881488888332 
997	 0.218354420926752 
998	 0.232027180792857 
999	 0.230507129109535 
1000	 0.220570143925935 
1001	 0.223655548865214 
1002	 0.231432135529481 
1003	 0.237875184293965 
1004	 0.228788551471024 
1005	 0.228476377287409 
1006	 0.243550206455485 
1007	 0.249341236518915 
1008	 0.251469699228114 
1009	 0.254184897237316 
1010	 0.240176195695386 
1011	 0.226382166415679 
1012	 0.235634075815286 
1013	 0.232575817611831 
1014	 0.217375145158521 
1015	 0.20972817038689 
1016	 0.224808791591914 
1017	 0.253427394163046 
1018	 0.23931855069823 
1019	 0.214090123109408 
1020	 0.197456960080516 
1021	 0.212266311428245 
1022	 0.242714108821364 
1023	 0.264788582585536 
1024	 0.253720381064803 
1025	 0.23134837014184 
1026	 0.246375861875866 
1027	 0.260906818209393 
1028	 0.258577975934353 
1029	 0.213211222053438 
1030	 0.195554410671839 
1031	 0.227429799560809 
1032	 0.242218669623509 
1033	 0.237949206656796 
1034	 0.214947354067032 
1035	 0.201291113094926 
1036	 0.206160069849078 
1037	 0.233116452750941 
1038	 0.236716445560224 
1039	 0.233824868464518 
1040	 0.268734147114775 
1041	 0.30681328487432 
1042	 0.315193638041913 
1043	 0.221862335230291 
1044	 0.169879377631475 
1045	 0.208861113018795 
1046	 0.231560407927505 
1047	 0.236638599870611 
1048	 0.227173114113367 
1049	 0.240146455741095 
1050	 0.265637237747671 
1051	 0.283315814467204 
1052	 0.238907660469271 
1053	 0.176367509620671 
1054	 0.178368115000719 
1055	 0.159750586018159 
1056	 0.126956005332386 
1057	 0.145775857785774 
1058	 0.180164798455942 
1059	 0.231540716703417 
1060	 0.330139481880642 
1061	 0.35324665694441 
1062	 0.287064146736495 
1063	 0.212810349359587 
1064	 0.179350809035688 
1065	 0.198793742375032 
1066	 0.19105669371284 
1067	 0.171755793162892 
1068	 0.173442404261545 
1069	 0.210617288391669 
1070	 0.247621560687001 
1071	 0.234347977805132 
1072	 0.265401153526364 
1073	 0.315040965678064 
1074	 0.309202571288459 
1075	 0.208611462019884 
