Wavelength	AVEI200388.asd
325	 4.59572512710399E-02 
326	 4.30025248944566E-02 
327	 3.35194764037701E-02 
328	 3.59794139348724E-02 
329	 3.91782661621522E-02 
330	 3.93236493377867E-02 
331	 0.039622724005533 
332	 4.07785995342297E-02 
333	 4.30157093844702E-02 
334	 4.06476615746125E-02 
335	 3.80586506427287E-02 
336	 4.91305726966013E-02 
337	 5.19692513008701E-02 
338	 4.31375291291342E-02 
339	 3.94102627574204E-02 
340	 3.89906014941252E-02 
341	 3.94417839889518E-02 
342	 0.038982811649797 
343	 3.87566729844632E-02 
344	 4.15382817023344E-02 
345	 4.48094323062191E-02 
346	 4.69274750694476E-02 
347	 4.47183246464031E-02 
348	 4.34448969805411E-02 
349	 4.60295491032029E-02 
350	 4.51458232706829E-02 
351	 4.28271719466293E-02 
352	 4.37135985986753E-02 
353	 0.042600876300566 
354	 3.99353812623742E-02 
355	 4.20266668054619E-02 
356	 4.41093736847996E-02 
357	 0.043434798799548 
358	 4.27338773476602E-02 
359	 4.25166422078535E-02 
360	 4.30641621493156E-02 
361	 4.20468079762032E-02 
362	 3.99951359481098E-02 
363	 4.05226909625455E-02 
364	 4.14276610039528E-02 
365	 4.15490508796594E-02 
366	 4.16606583636012E-02 
367	 0.041458363456368 
368	 0.040454072586787 
369	 4.01087581574848E-02 
370	 4.07171578872909E-02 
371	 4.22366446137656E-02 
372	 0.042313356442532 
373	 4.01662474114307E-02 
374	 4.02249841438702E-02 
375	 4.09189888817765E-02 
376	 3.95094755411003E-02 
377	 3.97753924210766E-02 
378	 4.14312379193747E-02 
379	 4.05993989605169E-02 
380	 4.00880470154243E-02 
381	 4.10188416744721E-02 
382	 4.09996509659405E-02 
383	 4.06780610035979E-02 
384	 4.11807998364084E-02 
385	 0.04228516515686 
386	 0.043122085033605 
387	 4.14045375007336E-02 
388	 3.98090575607375E-02 
389	 3.94411682659445E-02 
390	 0.038812060141749 
391	 3.86692005269205E-02 
392	 3.99520681669472E-02 
393	 4.03634332746234E-02 
394	 3.97748219517418E-02 
395	 3.93787722107055E-02 
396	 3.90673166402154E-02 
397	 3.86721372191651E-02 
398	 3.72812047116733E-02 
399	 3.62436804372294E-02 
400	 3.68234559910677E-02 
401	 3.75724748563428E-02 
402	 3.80095545357426E-02 
403	 3.78010028973246E-02 
404	 3.71663751406802E-02 
405	 3.63778896252672E-02 
406	 3.63950340027078E-02 
407	 3.67469345271159E-02 
408	 3.67506478426798E-02 
409	 3.71185706502305E-02 
410	 3.74636977313811E-02 
411	 0.03620739568733 
412	 3.53451970096627E-02 
413	 0.035680311755925 
414	 3.57189460927235E-02 
415	 3.55253738457057E-02 
416	 3.53737987426396E-02 
417	 3.55231572137833E-02 
418	 0.035868503564211 
419	 3.59928744085279E-02 
420	 3.55170397585851E-02 
421	 0.034490340461788 
422	 3.47447128149146E-02 
423	 3.56113635785775E-02 
424	 3.58390614067452E-02 
425	 3.58395020745563E-02 
426	 3.57205849763096E-02 
427	 3.55249835167183E-02 
428	 3.56095833457942E-02 
429	 3.60761000279163E-02 
430	 3.57255386597442E-02 
431	 3.51535435399905E-02 
432	 3.56195035443961E-02 
433	 3.57056025946466E-02 
434	 3.52160012826398E-02 
435	 3.47750520177121E-02 
436	 0.034826801342413 
437	 3.55204560018361E-02 
438	 3.54442735820222E-02 
439	 3.49227677864508E-02 
440	 3.49157989188844E-02 
441	 3.51055910859951E-02 
442	 3.53620694083122E-02 
443	 3.54877732974528E-02 
444	 3.55650037533371E-02 
445	 3.56708286885338E-02 
446	 3.58217892062915E-02 
447	 3.59658132369909E-02 
448	 3.59638886572123E-02 
449	 0.036081260264199 
450	 3.62975412474352E-02 
451	 3.60410559104922E-02 
452	 3.57529789807846E-02 
453	 3.58861651876439E-02 
454	 3.60833210873296E-02 
455	 3.61974484441502E-02 
456	 3.59768407815327E-02 
457	 3.60856390617579E-02 
458	 3.66074689774014E-02 
459	 3.62480884877191E-02 
460	 3.58643437757481E-02 
461	 3.65578259839484E-02 
462	 3.69683962162611E-02 
463	 3.69359871135837E-02 
464	 3.69787384622008E-02 
465	 3.70655779129971E-02 
466	 3.71651819685677E-02 
467	 0.037067479881187 
468	 3.68869749258898E-02 
469	 3.68213018749878E-02 
470	 3.68866873752623E-02 
471	 3.70392779571409E-02 
472	 0.037104568775959 
473	 3.71352780411117E-02 
474	 3.71822948815981E-02 
475	 3.74433440833808E-02 
476	 3.75666970031937E-02 
477	 3.68617278659978E-02 
478	 3.66898458681794E-02 
479	 3.72427927559997E-02 
480	 3.74886354193499E-02 
481	 3.75891201823734E-02 
482	 3.76865010061828E-02 
483	 3.76373912603811E-02 
484	 3.75277896494756E-02 
485	 3.76146070289154E-02 
486	 3.76224329136135E-02 
487	 3.74742798319385E-02 
488	 0.0372754485909 
489	 0.037319212329234 
490	 3.78394841909983E-02 
491	 3.79572258383712E-02 
492	 3.77246620595272E-02 
493	 0.037723924813663 
494	 3.80148086065427E-02 
495	 0.0385068903512 
496	 3.83843511832359E-02 
497	 3.81041965780229E-02 
498	 3.83502487674808E-02 
499	 3.87287333006765E-02 
500	 3.91154824793339E-02 
501	 3.94958580956445E-02 
502	 3.95254306112757E-02 
503	 3.91188573966973E-02 
504	 3.93352718556892E-02 
505	 3.97685814240793E-02 
506	 3.94808664304738E-02 
507	 3.96592039648404E-02 
508	 0.040480546934698 
509	 4.12755528719783E-02 
510	 0.041832673723518 
511	 4.20121334681496E-02 
512	 4.20880570359795E-02 
513	 4.21987182069879E-02 
514	 4.25218625043754E-02 
515	 0.042837760502836 
516	 4.31180417505153E-02 
517	 4.36528101772963E-02 
518	 4.42655969014006E-02 
519	 4.47372801231651E-02 
520	 4.50200929011745E-02 
521	 0.045292229765644 
522	 4.61123671322583E-02 
523	 4.66743545116539E-02 
524	 4.67061923204306E-02 
525	 4.70420785550211E-02 
526	 4.76101993409303E-02 
527	 4.81791230183232E-02 
528	 0.048617258175284 
529	 4.88854669729963E-02 
530	 4.90124541557686E-02 
531	 4.92368821877118E-02 
532	 4.97089377078569E-02 
533	 5.01913773611484E-02 
534	 5.06988967801681E-02 
535	 5.13834362794321E-02 
536	 5.16700083781195E-02 
537	 5.15859143382502E-02 
538	 5.21963796426056E-02 
539	 5.28234858527099E-02 
540	 5.27968696427392E-02 
541	 5.29679735178235E-02 
542	 0.053339704893809 
543	 5.34390829231088E-02 
544	 0.053649700703272 
545	 0.054087577182536 
546	 5.44317752310146E-02 
547	 5.47022985323809E-02 
548	 5.49662109353157E-02 
549	 5.51085723749456E-02 
550	 5.52290600071399E-02 
551	 5.57755878610058E-02 
552	 5.61703034918557E-02 
553	 5.61093050652432E-02 
554	 5.63531452483962E-02 
555	 0.056762104283054 
556	 5.68777620470338E-02 
557	 5.69741152248383E-02 
558	 5.71232524734807E-02 
559	 5.72898052768429E-02 
560	 0.057334926606765 
561	 5.71645912222871E-02 
562	 5.72846125880187E-02 
563	 0.057553403543528 
564	 5.73501719690263E-02 
565	 5.70905783377713E-02 
566	 5.69639455503712E-02 
567	 5.70140850019005E-02 
568	 5.71089994909861E-02 
569	 0.05707406849427 
570	 5.70616293840875E-02 
571	 5.70406276030514E-02 
572	 5.67569692751629E-02 
573	 5.66166623376906E-02 
574	 5.68147261139996E-02 
575	 5.67988707977019E-02 
576	 5.64999582428029E-02 
577	 0.05588951876436 
578	 0.055888132221773 
579	 5.65260151804737E-02 
580	 5.65443990660668E-02 
581	 0.056195462335811 
582	 5.57733408426777E-02 
583	 5.55284384461728E-02 
584	 0.055499921236528 
585	 5.56374364767813E-02 
586	 5.57385932825983E-02 
587	 5.57097703047655E-02 
588	 5.56199647554538E-02 
589	 5.56201256537396E-02 
590	 5.58884823285092E-02 
591	 5.58188874666502E-02 
592	 5.54534549376895E-02 
593	 5.53885223858368E-02 
594	 5.55085088747349E-02 
595	 5.57165620943577E-02 
596	 5.57689815149889E-02 
597	 5.56909539585632E-02 
598	 5.55771913222674E-02 
599	 5.57133190184967E-02 
600	 5.60176562528998E-02 
601	 5.56912099836641E-02 
602	 5.53544017865317E-02 
603	 5.55424964364644E-02 
604	 0.055505760140797 
605	 5.52880128057752E-02 
606	 0.05537176541175 
607	 5.53107794942041E-02 
608	 5.50165958027837E-02 
609	 0.055101327332716 
610	 5.52034075102391E-02 
611	 5.48114898943763E-02 
612	 5.42256458362191E-02 
613	 5.36861294111444E-02 
614	 5.36910761987524E-02 
615	 5.37685458623466E-02 
616	 5.36353994155674E-02 
617	 5.35534998132219E-02 
618	 5.35179629273477E-02 
619	 5.34799880751032E-02 
620	 5.32666524093339E-02 
621	 5.28905196892052E-02 
622	 5.25994560963758E-02 
623	 5.25687619694732E-02 
624	 5.29163685766047E-02 
625	 5.31575788831022E-02 
626	 5.31984959500495E-02 
627	 5.30591875438127E-02 
628	 5.30252688636996E-02 
629	 0.053172955873305 
630	 5.31049975127053E-02 
631	 5.30435011408769E-02 
632	 5.32959439732085E-02 
633	 5.32658933122844E-02 
634	 5.30027460282864E-02 
635	 0.053169867740555 
636	 5.32721721935268E-02 
637	 5.30537712567939E-02 
638	 0.052993798760731 
639	 5.29588081706604E-02 
640	 5.26015246378846E-02 
641	 5.22177452607065E-02 
642	 5.19324040593084E-02 
643	 5.17874848373929E-02 
644	 5.17995113079891E-02 
645	 5.19419698126995E-02 
646	 0.051698422767175 
647	 5.12002212341024E-02 
648	 0.051046895664818 
649	 5.10443733222922E-02 
650	 0.051020495794591 
651	 5.03552165313335E-02 
652	 4.97694512777766E-02 
653	 5.01542572204612E-02 
654	 5.03562351907853E-02 
655	 0.050104234159089 
656	 4.95635734169897E-02 
657	 4.89319733417629E-02 
658	 4.83927171745198E-02 
659	 4.79960930542632E-02 
660	 4.76728576851251E-02 
661	 4.73252392394664E-02 
662	 4.68853006532979E-02 
663	 4.63164793273815E-02 
664	 4.55914587106471E-02 
665	 4.48403198533642E-02 
666	 4.41946707778743E-02 
667	 4.38190431660954E-02 
668	 4.36424860568593E-02 
669	 4.34384189010677E-02 
670	 4.31672653388935E-02 
671	 4.28692007713153E-02 
672	 4.29230549028189E-02 
673	 4.30854866513564E-02 
674	 4.30454121807669E-02 
675	 4.28541540369432E-02 
676	 4.26510160670394E-02 
677	 4.27596480850308E-02 
678	 4.32153584525747E-02 
679	 4.39219888822715E-02 
680	 4.40005502518412E-02 
681	 4.39770374357689E-02 
682	 0.044847970200435 
683	 4.57156347731854E-02 
684	 4.64101222478861E-02 
685	 4.73183205999731E-02 
686	 4.85009201414819E-02 
687	 4.99967644323136E-02 
688	 5.17154639970703E-02 
689	 5.33615734301895E-02 
690	 5.47298797911297E-02 
691	 5.61122485274403E-02 
692	 5.77861359613552E-02 
693	 6.03227858017593E-02 
694	 6.30388844442366E-02 
695	 6.51263488919488E-02 
696	 6.75166220395068E-02 
697	 7.00613907067395E-02 
698	 7.18978128120684E-02 
699	 7.40483002890292E-02 
700	 7.67921879569054E-02 
701	 7.87185050648573E-02 
702	 8.02467830638964E-02 
703	 8.21750947764067E-02 
704	 8.42559580823562E-02 
705	 8.63905855602164E-02 
706	 8.83424183233973E-02 
707	 9.02224051926486E-02 
708	 9.20906617639626E-02 
709	 0.093921140406702 
710	 9.55520956774963E-02 
711	 9.66928416576929E-02 
712	 0.097821965129685 
713	 9.91295513300722E-02 
714	 0.100681622587893 
715	 0.102253871498538 
716	 0.103697393803181 
717	 0.104886925398616 
718	 0.105906541760048 
719	 0.106974007950778 
720	 0.108023583222922 
721	 0.109039252056398 
722	 0.110339597967107 
723	 0.111569426288871 
724	 0.112210053140013 
725	 0.112620178938322 
726	 0.1130908313615 
727	 0.114343522760635 
728	 0.115383105455244 
729	 0.115789812532059 
730	 0.116516784944516 
731	 0.117398225796358 
732	 0.118067234510753 
733	 0.118489870522786 
734	 0.118746012256732 
735	 0.119042485331156 
736	 0.119521838998826 
737	 0.120237556363772 
738	 0.120835095600013 
739	 0.121392807400513 
740	 0.122189748858438 
741	 0.122665509384364 
742	 0.122695667854076 
743	 0.122459963107552 
744	 0.122656710520112 
745	 0.12377242984718 
746	 0.124411853255642 
747	 0.124480553015496 
748	 0.124316257532531 
749	 0.124553871210743 
750	 0.12537451290401 
751	 0.126195945296186 
752	 0.126692943529182 
753	 0.126606296620736 
754	 0.126675730072415 
755	 0.126963591455338 
756	 0.127215715417721 
757	 0.127050649297785 
758	 0.126416790960551 
759	 0.126724361235669 
760	 0.128422971344515 
761	 0.130392625512644 
762	 0.130920285350283 
763	 0.130512023880052 
764	 0.131298301675867 
765	 0.131901458335907 
766	 0.131908715961223 
767	 0.131828238119884 
768	 0.131808501915215 
769	 0.13196627948054 
770	 0.132306285290243 
771	 0.132668608872182 
772	 0.132493251475574 
773	 0.132267211356001 
774	 0.132349837035348 
775	 0.132745245442914 
776	 0.133384944362452 
777	 0.134184613898965 
778	 0.134503154967887 
779	 0.134368834297236 
780	 0.13486696506416 
781	 0.135328346436559 
782	 0.135265210526523 
783	 0.135570933531099 
784	 0.136166752620275 
785	 0.136585779438763 
786	 0.136899174112511 
787	 0.137161342595014 
788	 0.137608129745061 
789	 0.13799584002969 
790	 0.138093687612549 
791	 0.138140576434658 
792	 0.138179243022515 
793	 0.138159421646432 
794	 0.138299732483182 
795	 0.138680437332957 
796	 0.139266229445193 
797	 0.139699791161424 
798	 0.139662367518821 
799	 0.139683589814211 
800	 0.139830432012025 
801	 0.139932918196639 
802	 0.140216335036296 
803	 0.140710538266686 
804	 0.141128260681827 
805	 0.141297821070077 
806	 0.141099018479702 
807	 0.141210313517588 
808	 0.141659350486957 
809	 0.142058251700685 
810	 0.1425427085126 
811	 0.143107694930464 
812	 0.143532406006569 
813	 0.143572945150914 
814	 0.142988346728542 
815	 0.143622681575133 
816	 0.145534870326138 
817	 0.147422215937399 
818	 0.148034081609327 
819	 0.146975234495425 
820	 0.145326454250206 
821	 0.144746056664507 
822	 0.14699223163906 
823	 0.148831410543152 
824	 0.149314449392709 
825	 0.14823480436433 
826	 0.148203889713588 
827	 0.149922239819584 
828	 0.149823088203536 
829	 0.148986484463576 
830	 0.149129364816278 
831	 0.149337638543931 
832	 0.149554059469033 
833	 0.150141910795625 
834	 0.150656025741321 
835	 0.150887933839937 
836	 0.150863879484061 
837	 0.150978480177372 
838	 0.151636819733974 
839	 0.151790235560461 
840	 0.151566343001162 
841	 0.152047957059369 
842	 0.152225529209188 
843	 0.151862833592129 
844	 0.1522048493172 
845	 0.15279657172506 
846	 0.153003996466873 
847	 0.152587395955187 
848	 0.151941026667132 
849	 0.152326468166482 
850	 0.152784007329935 
851	 0.152974105771967 
852	 0.153292693735333 
853	 0.153937812234326 
854	 0.154959830479795 
855	 0.154066179374792 
856	 0.152366749116038 
857	 0.153885280568437 
858	 0.154479336716086 
859	 0.153332098588936 
860	 0.153752964274978 
861	 0.154992141677762 
862	 0.156072013550076 
863	 0.155913695138363 
864	 0.155261408684577 
865	 0.156494230510852 
866	 0.156926948277371 
867	 0.156208109491729 
868	 0.157188771476734 
869	 0.158450446876044 
870	 0.158681067527852 
871	 0.157387642856586 
872	 0.15610387752884 
873	 0.157881802133959 
874	 0.159618376002115 
875	 0.16029914061951 
876	 0.160163147039892 
877	 0.159687541489017 
878	 0.159384973078059 
879	 0.16037314810474 
880	 0.161425037535463 
881	 0.16031133198651 
882	 0.160351104253132 
883	 0.162004994376883 
884	 0.163553720250024 
885	 0.164763959119475 
886	 0.165401246089985 
887	 0.165320663182035 
888	 0.164751189130656 
889	 0.164040601884291 
890	 0.164803821741478 
891	 0.166676284964593 
892	 0.167369493912717 
893	 0.167023939997344 
894	 0.165958542121523 
895	 0.166242387085689 
896	 0.167010172478915 
897	 0.167086653893647 
898	 0.168217341659672 
899	 0.170028911445805 
900	 0.170761885045079 
901	 0.171651355842507 
902	 0.172414799645979 
903	 0.170066790125027 
904	 0.167855279285768 
905	 0.168343909297454 
906	 0.169662143609148 
907	 0.171195116356601 
908	 0.172444238268369 
909	 0.172056704000927 
910	 0.170712767175311 
911	 0.172728703659414 
912	 0.174279934292103 
913	 0.173358678338563 
914	 0.172524279251456 
915	 0.172582391239712 
916	 0.17405985654387 
917	 0.174904882866059 
918	 0.174979112186901 
919	 0.175304656400412 
920	 0.175274277794574 
921	 0.175003276022333 
922	 0.17614087319639 
923	 0.17676141588954 
924	 0.175103319605185 
925	 0.172220381815771 
926	 0.169377894441776 
927	 0.168789852768307 
928	 0.171403111417251 
929	 0.176163591759704 
930	 0.176166657605777 
931	 0.17279271441044 
932	 0.168155259592916 
933	 0.168799108375465 
934	 0.173711868769707 
935	 0.178759492091578 
936	 0.177581565176716 
937	 0.172569312604449 
938	 0.174678244229661 
939	 0.174238540946291 
940	 0.169737859613731 
941	 0.167189493340893 
942	 0.170563843429794 
943	 0.180627921380733 
944	 0.18148318843019 
945	 0.174145233564545 
946	 0.163982226340108 
947	 0.164249595434459 
948	 0.173160537378539 
949	 0.173152972472063 
950	 0.16951700011367 
951	 0.165748714603629 
952	 0.168027786102667 
953	 0.170563341525207 
954	 0.167891624432799 
955	 0.163079728643145 
956	 0.160489430080751 
957	 0.166843153853538 
958	 0.175161520596483 
959	 0.180061902863154 
960	 0.170152303200659 
961	 0.165057252523399 
962	 0.171729770271666 
963	 0.171561316319071 
964	 0.166643831435172 
965	 0.161151716611746 
966	 0.165695421900753 
967	 0.174753520315552 
968	 0.174209338226927 
969	 0.17257268694852 
970	 0.172237107968208 
971	 0.173682800794862 
972	 0.17230769540365 
973	 0.166833201780241 
974	 0.165989261426102 
975	 0.167565740363742 
976	 0.168220772693405 
977	 0.171334419924744 
978	 0.174057249053687 
979	 0.169276451855098 
980	 0.166371229303935 
981	 0.167706574202409 
982	 0.170785411138664 
983	 0.171934182974006 
984	 0.169914275573521 
985	 0.170827013563637 
986	 0.171921135296233 
987	 0.169945088642821 
988	 0.168186529315744 
989	 0.168571237481639 
990	 0.173665741067618 
991	 0.176915693534579 
992	 0.177081556048456 
993	 0.178496927807479 
994	 0.176029391794466 
995	 0.169854045491631 
996	 0.176954764002201 
997	 0.183370828433914 
998	 0.17600557418203 
999	 0.175241782480282 
1000	 0.179251872640399 
1001	 0.178729611573716 
1002	 0.177718872997405 
1003	 0.176879921773407 
1004	 0.17540921665701 
1005	 0.174248126925796 
1006	 0.17433973680661 
1007	 0.177444283353395 
1008	 0.183382214704767 
1009	 0.190472931378734 
1010	 0.187170704895626 
1011	 0.180410752295271 
1012	 0.181663341442572 
1013	 0.181152506521968 
1014	 0.178102422764851 
1015	 0.175617178480071 
1016	 0.17218018569953 
1017	 0.170483588763102 
1018	 0.183331103040719 
1019	 0.188102185711669 
1020	 0.175983020338716 
1021	 0.177571513271632 
1022	 0.183825689188833 
1023	 0.183661347495215 
1024	 0.185063328694254 
1025	 0.187129702278144 
1026	 0.186708469422642 
1027	 0.181252994381452 
1028	 0.173672277270079 
1029	 0.173268117191642 
1030	 0.180938936647911 
1031	 0.193144483099326 
1032	 0.196245724331364 
1033	 0.190964774739446 
1034	 0.18063038971524 
1035	 0.181386492269387 
1036	 0.187536960665737 
1037	 0.190100619929569 
1038	 0.178744304150707 
1039	 0.170302588126684 
1040	 0.195476950070595 
1041	 0.197325221969498 
1042	 0.177000016477103 
1043	 0.185071920605833 
1044	 0.190570321214101 
1045	 0.189438815918549 
1046	 0.211288937928381 
1047	 0.217515994283338 
1048	 0.192434233129846 
1049	 0.185072675076864 
1050	 0.18717186330691 
1051	 0.18669220603242 
1052	 0.186995619887582 
1053	 0.192294037554473 
1054	 0.206944672083167 
1055	 0.185685156740958 
1056	 0.149876352704547 
1057	 0.182494250831711 
1058	 0.188118290644286 
1059	 0.156631551636247 
1060	 0.170464771441285 
1061	 0.177628341735836 
1062	 0.164887421030272 
1063	 0.183518276991666 
1064	 0.198826694762346 
1065	 0.186786723802058 
1066	 0.173790090610151 
1067	 0.167796974222519 
1068	 0.173327659860024 
1069	 0.173205884934959 
1070	 0.176010767469597 
1071	 0.200071883446444 
1072	 0.211276839958011 
1073	 0.200933738925036 
1074	 0.171189315708724 
1075	 0.171285610604976 
