Wavelength	AVEI200331.asd
325	 0.058302232843968 
326	 6.74758269433561E-02 
327	 6.87524699961443E-02 
328	 6.85117692065818E-02 
329	 6.47231416047947E-02 
330	 5.80270433614969E-02 
331	 5.22279051492822E-02 
332	 5.27007131987357E-02 
333	 6.32378495290304E-02 
334	 6.31313185003828E-02 
335	 5.60029303458131E-02 
336	 0.058939527354019 
337	 6.15073946498541E-02 
338	 6.08662100396961E-02 
339	 5.87868473772031E-02 
340	 5.83632653288329E-02 
341	 6.13871390471552E-02 
342	 6.08367978813016E-02 
343	 5.81221643780795E-02 
344	 5.76198206956009E-02 
345	 5.92500952286814E-02 
346	 6.19696368767477E-02 
347	 6.22432498804802E-02 
348	 6.14188400508225E-02 
349	 6.04462923478496E-02 
350	 0.058271198196636 
351	 5.63865496599175E-02 
352	 0.057165865249727 
353	 5.77569082014791E-02 
354	 5.74922049407739E-02 
355	 0.056740034717997 
356	 5.66985221434931E-02 
357	 5.76789379264655E-02 
358	 5.56368671179628E-02 
359	 5.44307195879258E-02 
360	 6.05478808836619E-02 
361	 6.01280915393286E-02 
362	 0.053911916328161 
363	 5.58251641823836E-02 
364	 5.86590356682733E-02 
365	 5.87493455433485E-02 
366	 5.90530864419303E-02 
367	 0.058721015548204 
368	 5.62890751036101E-02 
369	 5.51645078756466E-02 
370	 5.57215877221648E-02 
371	 5.63073381352679E-02 
372	 5.67062014262987E-02 
373	 5.66481186536048E-02 
374	 5.55894512041242E-02 
375	 5.45068848433377E-02 
376	 0.054719964293028 
377	 5.45970496359356E-02 
378	 5.38235981046895E-02 
379	 5.24701923404669E-02 
380	 5.22609106087191E-02 
381	 5.38762818053882E-02 
382	 5.57199876368113E-02 
383	 5.60714102995705E-02 
384	 0.05302198985277 
385	 0.051504149637082 
386	 5.21818437464321E-02 
387	 5.27692578687722E-02 
388	 5.37003062799432E-02 
389	 5.45434702926785E-02 
390	 5.20926063847073E-02 
391	 4.94607006532771E-02 
392	 5.04413967845401E-02 
393	 5.13206313475094E-02 
394	 5.14510054243199E-02 
395	 5.15415460208827E-02 
396	 5.10183866383208E-02 
397	 5.00090718230522E-02 
398	 5.03279462029806E-02 
399	 5.05275703096381E-02 
400	 0.049138328064336 
401	 4.86980565260379E-02 
402	 4.90637162478962E-02 
403	 4.86967932677863E-02 
404	 4.84981848308969E-02 
405	 4.88057582900434E-02 
406	 4.93770097341018E-02 
407	 4.96899767569758E-02 
408	 4.91706127142015E-02 
409	 4.89991783376833E-02 
410	 4.91383950609122E-02 
411	 4.86129972918976E-02 
412	 4.82780217196696E-02 
413	 4.85251218225339E-02 
414	 4.91189396682194E-02 
415	 4.96420930908723E-02 
416	 4.96252473636507E-02 
417	 4.89457728467747E-02 
418	 4.80026042177307E-02 
419	 4.79889556992519E-02 
420	 4.83361719584791E-02 
421	 4.86843448619185E-02 
422	 4.89164211702033E-02 
423	 4.88582821589507E-02 
424	 4.82907453188896E-02 
425	 4.82547646951442E-02 
426	 0.048754464465149 
427	 0.048688167466474 
428	 4.87875852063712E-02 
429	 4.93900658347911E-02 
430	 4.92278183301246E-02 
431	 4.86986222143784E-02 
432	 4.87481533724929E-02 
433	 4.85200180408658E-02 
434	 4.80470369519222E-02 
435	 4.82307023824061E-02 
436	 4.83622501076673E-02 
437	 4.80283056440446E-02 
438	 0.048068793554064 
439	 4.83065043855013E-02 
440	 4.81971589110821E-02 
441	 4.81031485605919E-02 
442	 4.81364747281811E-02 
443	 4.83291863885253E-02 
444	 4.84017288292607E-02 
445	 4.81699315163735E-02 
446	 4.82276074523117E-02 
447	 4.84412338872053E-02 
448	 4.82629719727782E-02 
449	 4.82579063557732E-02 
450	 4.85274505671507E-02 
451	 4.85596556615905E-02 
452	 4.86545945720261E-02 
453	 0.049098175603274 
454	 4.90906751679381E-02 
455	 4.87882933208614E-02 
456	 4.90860752143933E-02 
457	 4.92440297153001E-02 
458	 4.90753732929176E-02 
459	 4.93672569133502E-02 
460	 4.96085957444535E-02 
461	 4.91473355996898E-02 
462	 0.048803011686802 
463	 4.87379733868895E-02 
464	 4.87925725833716E-02 
465	 4.89709876798691E-02 
466	 4.92099385230987E-02 
467	 4.91728369578245E-02 
468	 4.89710824592703E-02 
469	 4.88216059042363E-02 
470	 4.90057554058244E-02 
471	 4.94120856138659E-02 
472	 4.93937284075145E-02 
473	 4.91953078013438E-02 
474	 4.90378990071111E-02 
475	 4.94088148301541E-02 
476	 4.97726671515368E-02 
477	 4.90634867826322E-02 
478	 4.87118249677881E-02 
479	 0.04900107897808 
480	 4.91911993812364E-02 
481	 4.92816463233152E-02 
482	 4.92940627152175E-02 
483	 4.93161783204517E-02 
484	 4.94542786260099E-02 
485	 4.99926348947733E-02 
486	 5.00133291131471E-02 
487	 4.93692881134406E-02 
488	 0.049279730451267 
489	 4.93257476686338E-02 
490	 4.90352072810542E-02 
491	 4.92432857001415E-02 
492	 4.98015668463063E-02 
493	 4.99845724303065E-02 
494	 4.97076130170952E-02 
495	 4.91066347152075E-02 
496	 4.92657602625994E-02 
497	 4.99260012492236E-02 
498	 5.06147391731629E-02 
499	 5.09128861632334E-02 
500	 5.08437053710028E-02 
501	 5.09274473553542E-02 
502	 5.11971549535902E-02 
503	 5.16374385100921E-02 
504	 5.19203192679879E-02 
505	 5.21090817943008E-02 
506	 5.23894994787928E-02 
507	 5.26185300687153E-02 
508	 5.28550023090573E-02 
509	 5.34626721382878E-02 
510	 5.41329219010174E-02 
511	 5.46040240658952E-02 
512	 5.49076657386875E-02 
513	 5.52092571483921E-02 
514	 5.58607930941826E-02 
515	 5.66405606449104E-02 
516	 5.74396860602924E-02 
517	 5.81558644288083E-02 
518	 0.058809821129831 
519	 5.94306531748903E-02 
520	 5.99810712610838E-02 
521	 6.04219751712976E-02 
522	 6.05878218011239E-02 
523	 0.061090579367778 
524	 6.21290601573114E-02 
525	 6.29614630289418E-02 
526	 6.35016734757905E-02 
527	 6.37455148825945E-02 
528	 6.40853167645011E-02 
529	 6.45931169107705E-02 
530	 6.51047538319639E-02 
531	 6.55510073572999E-02 
532	 6.58938660119229E-02 
533	 0.066188361522576 
534	 6.65680600382912E-02 
535	 6.73110228089274E-02 
536	 6.77068163952575E-02 
537	 6.76924189715855E-02 
538	 6.81344859015861E-02 
539	 6.86868501358625E-02 
540	 6.89702421426707E-02 
541	 6.90646031138196E-02 
542	 6.90304046880016E-02 
543	 6.89123657537424E-02 
544	 6.91794662798172E-02 
545	 0.069915469106772 
546	 7.02392375343157E-02 
547	 7.04261411841457E-02 
548	 7.09446437626432E-02 
549	 7.10768898979408E-02 
550	 7.09063309795089E-02 
551	 7.13410548696026E-02 
552	 7.16954304881157E-02 
553	 7.15800953572621E-02 
554	 7.15816003801824E-02 
555	 7.17713214049884E-02 
556	 7.21523969818505E-02 
557	 7.22717873553241E-02 
558	 7.20272108774103E-02 
559	 7.17232634003785E-02 
560	 7.15967561108074E-02 
561	 7.18260013504929E-02 
562	 7.20186983546474E-02 
563	 7.20380147398738E-02 
564	 7.17234439559616E-02 
565	 7.15664516591804E-02 
566	 7.16838038956357E-02 
567	 0.071370168630703 
568	 7.09572222740707E-02 
569	 7.09416528921596E-02 
570	 7.06022683909925E-02 
571	 7.00388113384231E-02 
572	 7.02165802745561E-02 
573	 7.02665979989492E-02 
574	 6.97344473266456E-02 
575	 6.95496850545217E-02 
576	 6.96536833127241E-02 
577	 0.06973203980283 
578	 6.95094861351637E-02 
579	 6.89659251546342E-02 
580	 6.84992110183455E-02 
581	 0.06810255530639 
582	 0.067788247598565 
583	 6.80521771393351E-02 
584	 6.85002702806401E-02 
585	 0.06789978273171 
586	 6.73797118180857E-02 
587	 6.73681009834538E-02 
588	 0.067422975820064 
589	 6.75864394566879E-02 
590	 0.067942765144039 
591	 6.73116397808875E-02 
592	 6.61218479762408E-02 
593	 6.66714255045314E-02 
594	 6.70318268498896E-02 
595	 6.62598413743408E-02 
596	 6.64785301281131E-02 
597	 6.71585076164056E-02 
598	 0.066884689498444 
599	 6.67716784950452E-02 
600	 6.69640596955889E-02 
601	 6.66066877233073E-02 
602	 6.61668118763321E-02 
603	 0.066079434928463 
604	 6.61543126158707E-02 
605	 6.62146221669159E-02 
606	 6.59102449500462E-02 
607	 6.55351625433658E-02 
608	 6.52690543267865E-02 
609	 6.53522084497768E-02 
610	 6.56256564586269E-02 
611	 6.58533802103908E-02 
612	 6.54338485653716E-02 
613	 6.45628078747895E-02 
614	 6.43994757436671E-02 
615	 6.43619749858196E-02 
616	 6.41174134640789E-02 
617	 6.39676350844592E-02 
618	 6.38823338846162E-02 
619	 6.37430585671344E-02 
620	 6.36575981637915E-02 
621	 6.36612737472888E-02 
622	 0.063846212110134 
623	 6.37208036445712E-02 
624	 6.29173522512146E-02 
625	 6.26423560980589E-02 
626	 6.28682930660387E-02 
627	 6.28668060633799E-02 
628	 6.29988132588126E-02 
629	 6.32851799326508E-02 
630	 6.31068604960487E-02 
631	 0.062918002019751 
632	 6.33276791780613E-02 
633	 6.32401184475506E-02 
634	 6.26906546443632E-02 
635	 6.27014548221411E-02 
636	 6.26873169286347E-02 
637	 6.23062227009483E-02 
638	 6.17276032382045E-02 
639	 6.11705519071829E-02 
640	 0.061011194723476 
641	 6.05056531189418E-02 
642	 5.96103505585385E-02 
643	 5.91262546809555E-02 
644	 5.89969574842704E-02 
645	 5.90801860047991E-02 
646	 5.84519937201854E-02 
647	 5.74215790589178E-02 
648	 5.73242674140748E-02 
649	 5.71233365549694E-02 
650	 5.65131502630906E-02 
651	 5.61437848475284E-02 
652	 5.59705774600612E-02 
653	 5.58731039468244E-02 
654	 5.60606614030269E-02 
655	 5.63573985704237E-02 
656	 0.056036367821187 
657	 5.54820297514976E-02 
658	 5.50193492185109E-02 
659	 5.49923756547737E-02 
660	 0.054958809178714 
661	 5.41569239429961E-02 
662	 5.32823360608058E-02 
663	 5.27142233568585E-02 
664	 5.30713585690852E-02 
665	 5.34252543260915E-02 
666	 5.30076788383135E-02 
667	 5.24968135645234E-02 
668	 5.20806907855848E-02 
669	 5.18790407058574E-02 
670	 5.18480481904706E-02 
671	 5.19175838752802E-02 
672	 5.18041151692406E-02 
673	 5.16673334982345E-02 
674	 5.17149301080995E-02 
675	 5.18506814003181E-02 
676	 5.20090419697781E-02 
677	 5.20497676466284E-02 
678	 0.052144563928944 
679	 5.24028144133271E-02 
680	 5.28652502507933E-02 
681	 5.34062974077987E-02 
682	 5.38258320165114E-02 
683	 5.42418898088309E-02 
684	 5.48641026895643E-02 
685	 5.63992570389817E-02 
686	 5.81740358749958E-02 
687	 5.95610214443621E-02 
688	 6.11177750181419E-02 
689	 6.28296292470901E-02 
690	 6.47985290419701E-02 
691	 6.65900254897743E-02 
692	 6.82618677743635E-02 
693	 0.070472772523258 
694	 7.32653023320535E-02 
695	 7.64710471904807E-02 
696	 7.89013340472551E-02 
697	 8.08576488976803E-02 
698	 8.39331177335717E-02 
699	 8.70776509229287E-02 
700	 8.98124382438883E-02 
701	 9.27111546508366E-02 
702	 9.56974585899873E-02 
703	 9.86117973158564E-02 
704	 0.101355928583407 
705	 0.103932610104735 
706	 0.106399576003273 
707	 0.108597212960644 
708	 0.110481894649251 
709	 0.112691780601501 
710	 0.11502006832166 
711	 0.116912765467479 
712	 0.118854532314991 
713	 0.120868683801435 
714	 0.122374202763468 
715	 0.124058825005593 
716	 0.12661324599735 
717	 0.128369557191615 
718	 0.129323507171567 
719	 0.13055920926843 
720	 0.132085776348918 
721	 0.133690246504441 
722	 0.134754528934282 
723	 0.135656993104402 
724	 0.136734749931791 
725	 0.137624819115249 
726	 0.138415619488278 
727	 0.139882951227761 
728	 0.141066777070812 
729	 0.141585797830293 
730	 0.142533790301929 
731	 0.143526504111763 
732	 0.143873692235755 
733	 0.144499874940616 
734	 0.14533188994481 
735	 0.145261764594402 
736	 0.145366025449516 
737	 0.146296538410063 
738	 0.147094852366712 
739	 0.147580422880231 
740	 0.147673319991509 
741	 0.147946598299287 
742	 0.148485007761501 
743	 0.148727957501141 
744	 0.149056580729435 
745	 0.149765573177125 
746	 0.150184249904404 
747	 0.150362088478591 
748	 0.150716408826765 
749	 0.151034198677873 
750	 0.151274264170217 
751	 0.151578540012797 
752	 0.151884734222616 
753	 0.152123811179342 
754	 0.152451734148758 
755	 0.152754434037872 
756	 0.152641933682592 
757	 0.152360589454123 
758	 0.152099572611911 
759	 0.152454302260648 
760	 0.153963931668268 
761	 0.156212937591283 
762	 0.156686170153038 
763	 0.155842377950961 
764	 0.156163232282939 
765	 0.15668135016784 
766	 0.156957153547567 
767	 0.156766561238194 
768	 0.156336897179611 
769	 0.155867035325844 
770	 0.156271839564884 
771	 0.157297749905085 
772	 0.157115673079936 
773	 0.156913876300579 
774	 0.157449967285741 
775	 0.157941906677629 
776	 0.158300890774482 
777	 0.158582475887768 
778	 0.158729647122557 
779	 0.158769655298161 
780	 0.158853540202661 
781	 0.158979687747546 
782	 0.159163094458541 
783	 0.159606797600729 
784	 0.160144339760695 
785	 0.160383086088483 
786	 0.160515031564983 
787	 0.160518163359457 
788	 0.159910602330991 
789	 0.159702494961912 
790	 0.160746480350666 
791	 0.161184486179779 
792	 0.161131542829229 
793	 0.161829626746208 
794	 0.162167660168936 
795	 0.161919449921389 
796	 0.162006788653862 
797	 0.16224612164328 
798	 0.162392822030915 
799	 0.162382463230648 
800	 0.162324999152787 
801	 0.162542022151135 
802	 0.1628492231197 
803	 0.16319359817442 
804	 0.163730312656651 
805	 0.164148908093056 
806	 0.164130146663581 
807	 0.164082356761954 
808	 0.164125363843178 
809	 0.164274351336201 
810	 0.164686974119821 
811	 0.165352370813375 
812	 0.165799072201755 
813	 0.165906831049299 
814	 0.165602886370997 
815	 0.165983255039358 
816	 0.167087981767595 
817	 0.168155140993871 
818	 0.168309674642989 
819	 0.167398639041385 
820	 0.166870490995515 
821	 0.166808190823125 
822	 0.167182955165014 
823	 0.168400446772833 
824	 0.169670382215587 
825	 0.1687368983676 
826	 0.168212900420566 
827	 0.169048535996146 
828	 0.169662860973025 
829	 0.170049865223223 
830	 0.170362454561285 
831	 0.170432423389492 
832	 0.170342459507845 
833	 0.170400555361655 
834	 0.170400401411399 
835	 0.170308836059286 
836	 0.170370773274318 
837	 0.17070356980696 
838	 0.171374099377391 
839	 0.171113491379834 
840	 0.170348139325417 
841	 0.171041051399266 
842	 0.172046808785568 
843	 0.172702297598654 
844	 0.172294045580604 
845	 0.171350741518136 
846	 0.170605184942258 
847	 0.171440272354811 
848	 0.173192520451471 
849	 0.173082897342429 
850	 0.1730147556311 
851	 0.173579795832327 
852	 0.173633245080641 
853	 0.173249097205534 
854	 0.172687797332472 
855	 0.173445001830043 
856	 0.174723384051878 
857	 0.173632887362825 
858	 0.173650986692842 
859	 0.17530645636932 
860	 0.174952386281489 
861	 0.173861042497231 
862	 0.173487849331372 
863	 0.174197011682136 
864	 0.175361907269983 
865	 0.175257998973778 
866	 0.175563858586618 
867	 0.176480049548175 
868	 0.176309930346228 
869	 0.175616581171066 
870	 0.175030111100921 
871	 0.175448938295206 
872	 0.176380209729987 
873	 0.176607525121065 
874	 0.176584729442219 
875	 0.176609276654048 
876	 0.177384863946643 
877	 0.178196633150666 
878	 0.178471137784066 
879	 0.178037374197238 
880	 0.177508053935207 
881	 0.177879146026046 
882	 0.178321051054306 
883	 0.178831231719435 
884	 0.180264021412785 
885	 0.18149878143549 
886	 0.181778228080319 
887	 0.180730446687695 
888	 0.179718522811563 
889	 0.180524648814006 
890	 0.180518854473094 
891	 0.179726668958026 
892	 0.180247650892579 
893	 0.180723348646546 
894	 0.180728956372059 
895	 0.181806113910274 
896	 0.182680722937823 
897	 0.181861637066204 
898	 0.18275443216181 
899	 0.184670292624769 
900	 0.184096217011532 
901	 0.182923288693722 
902	 0.182121661567169 
903	 0.182912523078587 
904	 0.18373529322523 
905	 0.183458628471178 
906	 0.183603409528674 
907	 0.184002395185301 
908	 0.18395949674414 
909	 0.184140344764418 
910	 0.184549103199263 
911	 0.184630391447265 
912	 0.18383223077247 
913	 0.182291142946867 
914	 0.18274694709356 
915	 0.184815309904149 
916	 0.187423716525809 
917	 0.185382975436636 
918	 0.18071977726867 
919	 0.181570900788952 
920	 0.183777150931348 
921	 0.185616683247576 
922	 0.186499003871566 
923	 0.185443860060966 
924	 0.181929098391331 
925	 0.179920387584689 
926	 0.179946891261038 
927	 0.181528847113345 
928	 0.182190613688734 
929	 0.181342868386953 
930	 0.181902786565906 
931	 0.182181335539796 
932	 0.181176407386477 
933	 0.182832062242923 
934	 0.185411031867793 
935	 0.185352796353263 
936	 0.182930391165345 
937	 0.180805009411751 
938	 0.185180246678413 
939	 0.189335389249035 
940	 0.190368857524046 
941	 0.185712267469124 
942	 0.184448279871785 
943	 0.191049969667655 
944	 0.18418769963709 
945	 0.172709102824822 
946	 0.175753445555486 
947	 0.177307468501791 
948	 0.173589870611966 
949	 0.164832587600915 
950	 0.16432625213434 
951	 0.174413702871604 
952	 0.175941052576313 
953	 0.171821212942534 
954	 0.166613526605817 
955	 0.167302615603467 
956	 0.169942154550056 
957	 0.164873263361606 
958	 0.166337837339093 
959	 0.173773093747153 
960	 0.173468818768642 
961	 0.171733412667448 
962	 0.171088596775472 
963	 0.167930925511785 
964	 0.16348106114805 
965	 0.159458850488305 
966	 0.159453262071457 
967	 0.162296032159312 
968	 0.16437705418788 
969	 0.168974303160897 
970	 0.17411319228074 
971	 0.16916320598364 
972	 0.167902717684102 
973	 0.175367519359058 
974	 0.171040508171494 
975	 0.164030139948194 
976	 0.16618482603901 
977	 0.16575465730921 
978	 0.163825368977796 
979	 0.167836941471371 
980	 0.166183331615445 
981	 0.159273074487254 
982	 0.161148316852332 
983	 0.165164351127987 
984	 0.167033464096854 
985	 0.165512791061622 
986	 0.163009985501445 
987	 0.162472988837036 
988	 0.167170965861898 
989	 0.172349388025522 
990	 0.167396005255216 
991	 0.166326634836999 
992	 0.170235913536888 
993	 0.167490272946507 
994	 0.164890946903558 
995	 0.165712591637519 
996	 0.167527708125341 
997	 0.170127738811638 
998	 0.173125053725244 
999	 0.173254057096666 
1000	 0.171306017368246 
1001	 0.169782478498681 
1002	 0.167022132343875 
1003	 0.165524801821414 
1004	 0.175059401703008 
1005	 0.180062568676602 
1006	 0.176118208523819 
1007	 0.17700908986904 
1008	 0.176428068850456 
1009	 0.170335216928084 
1010	 0.171432881255084 
1011	 0.175023015489731 
1012	 0.17265456909043 
1013	 0.172263612126108 
1014	 0.174269595611499 
1015	 0.175346846414124 
1016	 0.178979760315309 
1017	 0.183919041438594 
1018	 0.181179503894191 
1019	 0.17540839956949 
1020	 0.170550874250861 
1021	 0.171495496755527 
1022	 0.175712427653862 
1023	 0.180264252342038 
1024	 0.188211431099649 
1025	 0.193196554722381 
1026	 0.185175245187617 
1027	 0.178505887814495 
1028	 0.178480485891943 
1029	 0.189932604176748 
1030	 0.19484649431816 
1031	 0.19035343132945 
1032	 0.197686313942898 
1033	 0.202787072033196 
1034	 0.195930049107837 
1035	 0.174831060163404 
1036	 0.157737812271822 
1037	 0.162936552134509 
1038	 0.177347316927829 
1039	 0.190285783683995 
1040	 0.188248498537491 
1041	 0.202305382254992 
1042	 0.220713658917516 
1043	 0.181836825861515 
1044	 0.164570973949756 
1045	 0.185956573348507 
1046	 0.186760364690823 
1047	 0.189619647124146 
1048	 0.201532697731226 
1049	 0.176213107609288 
1050	 0.160265304729805 
1051	 0.19596803090212 
1052	 0.20949729298345 
1053	 0.192608914906333 
1054	 0.155276323036708 
1055	 0.164916755870362 
1056	 0.20157046898602 
1057	 0.18961790678691 
1058	 0.172630436528629 
1059	 0.165093166230351 
1060	 0.168014978158327 
1061	 0.181834905268501 
1062	 0.202204301323876 
1063	 0.219202976446701 
1064	 0.205491628757725 
1065	 0.153401099717944 
1066	 0.160243158899179 
1067	 0.193619855796791 
1068	 0.201468484961546 
1069	 0.203063371555286 
1070	 0.202950141727786 
1071	 0.204285376318528 
1072	 0.207193406589619 
1073	 0.199571038838725 
1074	 0.145424871636083 
1075	 0.157389872223778 
