Wavelength	AVEI200122.asd
325	 3.26700786208794E-02 
326	 3.82915214746239E-02 
327	 3.85666646874156E-02 
328	 3.59013781998014E-02 
329	 3.61205382408157E-02 
330	 0.039684639931673 
331	 3.72595909958143E-02 
332	 3.32102974343516E-02 
333	 3.21983524269217E-02 
334	 3.28599717748139E-02 
335	 3.36679917140176E-02 
336	 3.14847530507421E-02 
337	 3.03781874208632E-02 
338	 3.17143181900671E-02 
339	 3.58247679446198E-02 
340	 3.76474785145868E-02 
341	 3.37950677889786E-02 
342	 3.11692839893384E-02 
343	 0.030865280863914 
344	 3.27948000500965E-02 
345	 3.28656328349893E-02 
346	 3.11145461449391E-02 
347	 3.23857769116421E-02 
348	 0.034320218914653 
349	 0.03513014251886 
350	 0.034887498826006 
351	 3.36242911708206E-02 
352	 3.12566073209236E-02 
353	 3.02348429039232E-02 
354	 3.09640269450334E-02 
355	 3.26590062505139E-02 
356	 3.26662870728546E-02 
357	 3.02179737540794E-02 
358	 3.24484357626213E-02 
359	 3.58888912945438E-02 
360	 3.42594783700181E-02 
361	 0.033001463402253 
362	 3.28961715841048E-02 
363	 3.15930098165581E-02 
364	 3.17091864551424E-02 
365	 3.39643238720844E-02 
366	 3.36074064028838E-02 
367	 3.22228842291597E-02 
368	 0.032535605908302 
369	 3.16606889997248E-02 
370	 2.99292807618056E-02 
371	 3.05454604737437E-02 
372	 3.10097856150463E-02 
373	 3.01741411591678E-02 
374	 3.00341590023647E-02 
375	 3.00705549082585E-02 
376	 2.93205308611609E-02 
377	 0.028531294084824 
378	 0.028147474274411 
379	 2.90230323882336E-02 
380	 0.029573413417091 
381	 2.91671980335005E-02 
382	 2.95917531438558E-02 
383	 3.00552913287693E-02 
384	 2.93573707877971E-02 
385	 0.028821548420409 
386	 2.86870704373331E-02 
387	 2.86151541902097E-02 
388	 2.85965342475149E-02 
389	 0.02843972042293 
390	 2.70288041360812E-02 
391	 2.59992344739496E-02 
392	 2.72313962684536E-02 
393	 0.028928075110471 
394	 2.99213328468032E-02 
395	 2.80537507568487E-02 
396	 2.73016600336895E-02 
397	 2.88574661692144E-02 
398	 0.02906098277285 
399	 2.86581700078303E-02 
400	 2.87452905024774E-02 
401	 2.90202159464393E-02 
402	 2.90658067527033E-02 
403	 2.77934822779909E-02 
404	 2.73266222743285E-02 
405	 2.81302659739937E-02 
406	 2.72535254043965E-02 
407	 0.026258035302626 
408	 2.73114249670678E-02 
409	 2.79617619711459E-02 
410	 0.027697055754501 
411	 2.65964588301639E-02 
412	 2.61323192578596E-02 
413	 2.68408236394972E-02 
414	 2.71929396716014E-02 
415	 2.71851425484457E-02 
416	 0.027025523272537 
417	 2.72861433836705E-02 
418	 2.77675386804797E-02 
419	 2.73673044188929E-02 
420	 2.70495563739328E-02 
421	 2.73060132316543E-02 
422	 2.76668163405151E-02 
423	 2.78347003640153E-02 
424	 2.74826024618069E-02 
425	 0.026856967941674 
426	 2.63372571983634E-02 
427	 2.69726442954839E-02 
428	 2.75606963830672E-02 
429	 0.027355872285468 
430	 2.72090210364253E-02 
431	 2.71249967805564E-02 
432	 2.69100451592086E-02 
433	 0.026974888159661 
434	 2.71816981462599E-02 
435	 2.65809949616429E-02 
436	 2.62240183667802E-02 
437	 2.67222820265195E-02 
438	 2.69314911375293E-02 
439	 2.68469868854621E-02 
440	 2.67739549321672E-02 
441	 2.66164059278002E-02 
442	 0.026463239885701 
443	 2.67584832806887E-02 
444	 2.69441591958472E-02 
445	 2.66123251541581E-02 
446	 2.65768597982807E-02 
447	 2.67459162181137E-02 
448	 2.66068811513335E-02 
449	 2.64549833305064E-02 
450	 0.026439378688813 
451	 2.67933892681733E-02 
452	 2.71448014979278E-02 
453	 2.71313478490327E-02 
454	 2.72027252112467E-02 
455	 2.72754845518372E-02 
456	 2.68383593700378E-02 
457	 2.65690900199674E-02 
458	 2.67159540158136E-02 
459	 2.68562189045204E-02 
460	 2.70240204016811E-02 
461	 2.72922852444711E-02 
462	 2.72496594244965E-02 
463	 2.69891895814462E-02 
464	 2.71165896347522E-02 
465	 2.71580685808044E-02 
466	 2.68992180944347E-02 
467	 2.66216205164615E-02 
468	 2.65038902116746E-02 
469	 0.026745524570612 
470	 2.71039566428593E-02 
471	 2.73749334513915E-02 
472	 2.71466079395189E-02 
473	 2.69502125717955E-02 
474	 2.70766872157849E-02 
475	 2.68655761385236E-02 
476	 2.65474523067182E-02 
477	 2.66617975059305E-02 
478	 2.69439722562197E-02 
479	 2.71455551174521E-02 
480	 2.65891450645643E-02 
481	 2.61120847741904E-02 
482	 2.63770983492813E-02 
483	 2.67067302112036E-02 
484	 2.69292896601212E-02 
485	 0.026899851307858 
486	 2.70689971691621E-02 
487	 2.74720411793193E-02 
488	 2.73725952965674E-02 
489	 2.70831059001337E-02 
490	 2.69774345870968E-02 
491	 2.69907726624245E-02 
492	 2.70437206120233E-02 
493	 2.69258170639115E-02 
494	 0.026876703420784 
495	 0.027005565602564 
496	 2.72916941063408E-02 
497	 2.75377627343107E-02 
498	 2.75011018780144E-02 
499	 0.027536468240256 
500	 2.77025030251008E-02 
501	 2.78511627913821E-02 
502	 2.80890597035976E-02 
503	 2.84178783288987E-02 
504	 2.83114039810278E-02 
505	 2.81954238704281E-02 
506	 2.88957119972882E-02 
507	 2.93344836037245E-02 
508	 2.93274034326808E-02 
509	 2.94200685501864E-02 
510	 2.97870781360463E-02 
511	 3.04960667454651E-02 
512	 3.08138536517137E-02 
513	 3.07788468144898E-02 
514	 3.07006091534981E-02 
515	 3.11034197509846E-02 
516	 3.20321876145519E-02 
517	 3.24597419682057E-02 
518	 3.26740503117706E-02 
519	 3.30676153268433E-02 
520	 0.033421776140932 
521	 3.38692281005216E-02 
522	 3.49632460181854E-02 
523	 3.56310706265341E-02 
524	 3.55131576900142E-02 
525	 3.57657656343202E-02 
526	 3.63208423410474E-02 
527	 3.68997221106846E-02 
528	 3.72944363448262E-02 
529	 3.75353635297986E-02 
530	 3.79576483723739E-02 
531	 3.85559686625402E-02 
532	 3.92575776213039E-02 
533	 3.94214148186503E-02 
534	 0.039318326395354 
535	 3.96537038922868E-02 
536	 4.00390591480737E-02 
537	 4.03702295321981E-02 
538	 4.07225220081954E-02 
539	 4.10401524072495E-02 
540	 4.12614479361888E-02 
541	 4.13159737654057E-02 
542	 4.12949180553291E-02 
543	 4.14434111380832E-02 
544	 4.16992649137549E-02 
545	 4.20069547380192E-02 
546	 4.21809581511036E-02 
547	 0.042296313765814 
548	 4.24743520425025E-02 
549	 4.26298539313341E-02 
550	 4.27609313448906E-02 
551	 4.29401091659156E-02 
552	 4.30465429231169E-02 
553	 0.043035973140357 
554	 0.043243726778582 
555	 4.34828219802711E-02 
556	 4.33042234405507E-02 
557	 0.043300294970397 
558	 4.35715169372619E-02 
559	 4.36649565954733E-02 
560	 4.35815282985982E-02 
561	 4.33619982452411E-02 
562	 4.32852207438051E-02 
563	 4.33362790814916E-02 
564	 4.33347076254829E-02 
565	 4.32423695940658E-02 
566	 4.30586099878696E-02 
567	 4.29534823156436E-02 
568	 4.28541545745829E-02 
569	 4.26475095849267E-02 
570	 4.23191364199737E-02 
571	 0.041952718283334 
572	 4.18391286369243E-02 
573	 4.16737166965425E-02 
574	 0.041309942021974 
575	 4.12060582981777E-02 
576	 4.12165416263215E-02 
577	 4.09667172081837E-02 
578	 4.07089905409743E-02 
579	 4.05168368670966E-02 
580	 4.03234996329662E-02 
581	 4.02603769557542E-02 
582	 4.04067414431082E-02 
583	 4.02279785329124E-02 
584	 3.98523011526479E-02 
585	 3.98624590599882E-02 
586	 3.99398659754501E-02 
587	 3.99387803502947E-02 
588	 3.97654292922789E-02 
589	 3.95342592177675E-02 
590	 3.94156609333758E-02 
591	 0.039222388711229 
592	 3.90090011303832E-02 
593	 0.039081464857886 
594	 3.91491599705126E-02 
595	 3.90507602488288E-02 
596	 3.89758363381126E-02 
597	 3.89411796040159E-02 
598	 3.89282974923927E-02 
599	 0.038963250071022 
600	 3.90334612608905E-02 
601	 3.90865696319003E-02 
602	 3.90204671721066E-02 
603	 3.87698080957334E-02 
604	 3.86353428492458E-02 
605	 3.86139647044127E-02 
606	 0.038554232428611 
607	 0.038427917850538 
608	 3.82583730603418E-02 
609	 3.83057181379952E-02 
610	 3.83946463081818E-02 
611	 3.82775779455671E-02 
612	 3.79073126982756E-02 
613	 3.74462470457871E-02 
614	 3.74651240413727E-02 
615	 3.74777570869388E-02 
616	 3.72203926678621E-02 
617	 3.71829380499218E-02 
618	 3.71424733065834E-02 
619	 3.65705865266249E-02 
620	 0.036418180604776 
621	 3.67627390680303E-02 
622	 3.66112029740115E-02 
623	 3.63170815074794E-02 
624	 3.62484841650654E-02 
625	 3.66012889441697E-02 
626	 3.70583896431857E-02 
627	 3.67030421951958E-02 
628	 3.63411999828645E-02 
629	 3.62910500783778E-02 
630	 3.63172122106066E-02 
631	 3.63964783427254E-02 
632	 3.65185167137898E-02 
633	 3.66994308524841E-02 
634	 3.68096568769628E-02 
635	 3.64640720827446E-02 
636	 3.60240029323124E-02 
637	 3.57260810348192E-02 
638	 3.55527203743862E-02 
639	 3.53979760741317E-02 
640	 3.50750549958239E-02 
641	 3.47560121694271E-02 
642	 3.44736425363743E-02 
643	 3.41071633355609E-02 
644	 3.37820496692512E-02 
645	 3.35854567275302E-02 
646	 0.033083724394104 
647	 3.25314916751785E-02 
648	 3.28679266568578E-02 
649	 3.29386342909547E-02 
650	 0.03244063626021 
651	 3.25744353748368E-02 
652	 3.27640049123399E-02 
653	 3.22250322785133E-02 
654	 3.18444427983342E-02 
655	 3.18052165786669E-02 
656	 3.19669125059637E-02 
657	 3.21681425370686E-02 
658	 3.22236965660757E-02 
659	 3.17122404839823E-02 
660	 3.10998905186793E-02 
661	 3.11969126017676E-02 
662	 3.11074786229853E-02 
663	 3.06828056877193E-02 
664	 3.04416747517204E-02 
665	 3.02435195690216E-02 
666	 2.99763399460197E-02 
667	 2.98984939047969E-02 
668	 2.99160857818235E-02 
669	 2.96670352562167E-02 
670	 2.96053905733239E-02 
671	 2.97888089909371E-02 
672	 2.95365163319526E-02 
673	 2.92585180254639E-02 
674	 2.94720699104947E-02 
675	 2.97178959392072E-02 
676	 2.99176639393067E-02 
677	 3.02354309706512E-02 
678	 3.02666798779625E-02 
679	 2.98859335296345E-02 
680	 2.98283479061905E-02 
681	 3.01559054435407E-02 
682	 3.08194070683347E-02 
683	 3.12748964288253E-02 
684	 3.15136450699725E-02 
685	 0.032257961045578 
686	 3.32093119235451E-02 
687	 3.40900402131683E-02 
688	 3.49981375433836E-02 
689	 3.60347979898441E-02 
690	 3.75420930113168E-02 
691	 3.92356749663623E-02 
692	 4.09821889953626E-02 
693	 4.23694310653306E-02 
694	 0.043971286870805 
695	 4.63024835583057E-02 
696	 4.86901045478329E-02 
697	 5.10457441105099E-02 
698	 0.053659883540519 
699	 5.64191309600822E-02 
700	 5.91822454884987E-02 
701	 6.16910159067912E-02 
702	 6.41474038983414E-02 
703	 6.68752484659054E-02 
704	 6.97106979524597E-02 
705	 7.26151520365518E-02 
706	 7.55277120208201E-02 
707	 0.078225289423117 
708	 8.06061524088905E-02 
709	 8.31923050981888E-02 
710	 8.58604207408628E-02 
711	 8.82323313053844E-02 
712	 9.08633053572616E-02 
713	 9.37174838932357E-02 
714	 9.59678365551606E-02 
715	 9.79159239580114E-02 
716	 9.99556863275212E-02 
717	 0.101564192401368 
718	 0.103093165061194 
719	 0.105690422856468 
720	 0.10807768608898 
721	 0.109709405401661 
722	 0.11125704366323 
723	 0.112830980097009 
724	 0.114379559362585 
725	 0.115969765456777 
726	 0.117477043720087 
727	 0.118923716327206 
728	 0.120165244285317 
729	 0.121174939128908 
730	 0.122284611042771 
731	 0.123453953361322 
732	 0.124568525257204 
733	 0.125282582722131 
734	 0.125832509353527 
735	 0.127206464121596 
736	 0.128521960591573 
737	 0.129192984170065 
738	 0.130022467797268 
739	 0.130905567081106 
740	 0.131438598503223 
741	 0.131858637902136 
742	 0.132300699251535 
743	 0.132986533146136 
744	 0.133698898214121 
745	 0.134251584084235 
746	 0.134706813349028 
747	 0.135073955941615 
748	 0.135273840983446 
749	 0.135981013660119 
750	 0.137172672053025 
751	 0.137280143503004 
752	 0.137189346123686 
753	 0.137916680934119 
754	 0.138217768567148 
755	 0.138211459320302 
756	 0.139002053984927 
757	 0.139563915928532 
758	 0.139520813720538 
759	 0.139731246120256 
760	 0.140165712015636 
761	 0.139970583785521 
762	 0.140181318962985 
763	 0.140823920818992 
764	 0.141187522823713 
765	 0.141760350335026 
766	 0.142530962528993 
767	 0.142773184163866 
768	 0.143026034439322 
769	 0.143967047098161 
770	 0.144472949410613 
771	 0.144455126549432 
772	 0.1446441797262 
773	 0.144912120568373 
774	 0.145164044632701 
775	 0.145275176999662 
776	 0.145466101025838 
777	 0.146178289078277 
778	 0.146748183412151 
779	 0.14699195404678 
780	 0.147081177234277 
781	 0.147328986828367 
782	 0.147936540195723 
783	 0.148329475542777 
784	 0.148416269356663 
785	 0.148174124522295 
786	 0.148314714782326 
787	 0.148919900416038 
788	 0.149042630669128 
789	 0.148924855083642 
790	 0.148872896273318 
791	 0.149258299418419 
792	 0.149879724798323 
793	 0.150081270744222 
794	 0.150203916427318 
795	 0.150321903303142 
796	 0.150196301253937 
797	 0.150168738972683 
798	 0.150576312291842 
799	 0.151140310417003 
800	 0.151635711337631 
801	 0.151641841203653 
802	 0.151454259396868 
803	 0.151378637486696 
804	 0.152317175647008 
805	 0.153271863306478 
806	 0.153164301071344 
807	 0.15328994181761 
808	 0.153673993345639 
809	 0.15351328627645 
810	 0.153798814836275 
811	 0.154707468253061 
812	 0.154395094266038 
813	 0.153641841973893 
814	 0.15372319840696 
815	 0.154440671917307 
816	 0.155412857578264 
817	 0.155502589558544 
818	 0.15583175054318 
819	 0.156714270518693 
820	 0.157084154277186 
821	 0.15710103326118 
822	 0.157044082486886 
823	 0.157400601814302 
824	 0.158176921534263 
825	 0.159101210940717 
826	 0.15979732516544 
827	 0.160074112258717 
828	 0.159835047283742 
829	 0.159514802039984 
830	 0.15965598647937 
831	 0.160213150923814 
832	 0.161057389528173 
833	 0.161982914235317 
834	 0.162353249791213 
835	 0.161986165646447 
836	 0.161480597658309 
837	 0.161689364733825 
838	 0.163401211873665 
839	 0.164117080777935 
840	 0.163713906748761 
841	 0.163380571137514 
842	 0.16375185594344 
843	 0.164832297569699 
844	 0.164557729141383 
845	 0.164089608968685 
846	 0.16486515292978 
847	 0.165345976508421 
848	 0.165308499821487 
849	 0.164976395219453 
850	 0.165122689437468 
851	 0.16589328686568 
852	 0.16592801590632 
853	 0.165606024712145 
854	 0.165483371577554 
855	 0.165909902422581 
856	 0.166463583888725 
857	 0.165778655773461 
858	 0.165926761599223 
859	 0.167152232521708 
860	 0.166785074036572 
861	 0.166362865638715 
862	 0.167353984675652 
863	 0.16735025306637 
864	 0.166902729876107 
865	 0.168434849164601 
866	 0.169261163797907 
867	 0.168793288650021 
868	 0.168874638803495 
869	 0.169282019946444 
870	 0.169781063058117 
871	 0.17059546424186 
872	 0.171226879794368 
873	 0.170656750333239 
874	 0.170561011483227 
875	 0.171269687773263 
876	 0.171641225816842 
877	 0.172623308960214 
878	 0.174599675619123 
879	 0.174991045450459 
880	 0.174534371519088 
881	 0.175011777385076 
882	 0.175431400238829 
883	 0.175810541021364 
884	 0.17720319915781 
885	 0.177676975939755 
886	 0.176578446178527 
887	 0.177467294707274 
888	 0.179278685600507 
889	 0.180072737608681 
890	 0.179947332551068 
891	 0.179221661485677 
892	 0.178894338431831 
893	 0.178937707617375 
894	 0.179295776286903 
895	 0.179370950673548 
896	 0.179221308740345 
897	 0.179019295816762 
898	 0.179076413814282 
899	 0.179567596135869 
900	 0.180800608390772 
901	 0.181002663716084 
902	 0.180219322444447 
903	 0.181722049803946 
904	 0.182468691729914 
905	 0.180443365016478 
906	 0.180564129373897 
907	 0.182038568273038 
908	 0.182141701714655 
909	 0.182603427249961 
910	 0.182965983177995 
911	 0.179563650569386 
912	 0.177849307098103 
913	 0.180551551582525 
914	 0.182659275903413 
915	 0.18311670954335 
916	 0.181495497565945 
917	 0.180789999967078 
918	 0.181847452277146 
919	 0.185384721484544 
920	 0.186456457223216 
921	 0.184160972442693 
922	 0.183824900060212 
923	 0.184962481639496 
924	 0.186576322693991 
925	 0.184601151742297 
926	 0.180847994055765 
927	 0.181148324334164 
928	 0.179805989938864 
929	 0.176209819331104 
930	 0.178447330895968 
931	 0.179249818156734 
932	 0.173541817693802 
933	 0.175497176107448 
934	 0.180455012313028 
935	 0.177971670759088 
936	 0.175147681818792 
937	 0.173795471648345 
938	 0.174954749577444 
939	 0.169443399825707 
940	 0.158222941050849 
941	 0.158165408283065 
942	 0.163247550053338 
943	 0.167972659096308 
944	 0.16809008104985 
945	 0.164726093118219 
946	 0.160784092995143 
947	 0.164632656613016 
948	 0.172502548039577 
949	 0.165300322798367 
950	 0.156955643895036 
951	 0.154129819688084 
952	 0.158298286044683 
953	 0.159936696375109 
954	 0.152043454579117 
955	 0.154608250624268 
956	 0.162071400881371 
957	 0.159141259812385 
958	 0.156573944319227 
959	 0.156129500035011 
960	 0.153807105665368 
961	 0.152827005630286 
962	 0.154181955649123 
963	 0.154205706472731 
964	 0.154282790238738 
965	 0.15580912218423 
966	 0.156006543104915 
967	 0.155016204601303 
968	 0.153854838482056 
969	 0.154943451075042 
970	 0.157651223169353 
971	 0.157256442047981 
972	 0.155546986896125 
973	 0.153911460397119 
974	 0.153926750549605 
975	 0.155784241054235 
976	 0.159179094537648 
977	 0.159859727406449 
978	 0.158770990816188 
979	 0.15997363465098 
980	 0.159097110998346 
981	 0.156896076945273 
982	 0.160661380539677 
983	 0.164654163222866 
984	 0.165254249629851 
985	 0.16120784182202 
986	 0.157665383696668 
987	 0.159937884649731 
988	 0.16121116091499 
989	 0.161703218819683 
990	 0.164494467908264 
991	 0.163854276809364 
992	 0.16089141930629 
993	 0.165972530783285 
994	 0.16882984916477 
995	 0.165485448548782 
996	 0.165341676720869 
997	 0.167549970652729 
998	 0.170011335842751 
999	 0.167399398402798 
1000	 0.163406110029704 
1001	 0.165919697596352 
1002	 0.168866253047118 
1003	 0.170174204494584 
1004	 0.168796178347985 
1005	 0.167082737904914 
1006	 0.167061869238395 
1007	 0.172739468968402 
1008	 0.17692847984787 
1009	 0.174692781544141 
1010	 0.175222241517217 
1011	 0.176130981825663 
1012	 0.172791140349372 
1013	 0.174627250761318 
1014	 0.180715157142726 
1015	 0.184479105036873 
1016	 0.181159223755839 
1017	 0.172212411564131 
1018	 0.169835033063891 
1019	 0.174815856793946 
1020	 0.184540550220361 
1021	 0.182592585118969 
1022	 0.1748820785727 
1023	 0.169994252943079 
1024	 0.176169919946592 
1025	 0.18566107290981 
1026	 0.183549494840017 
1027	 0.178585672602158 
1028	 0.17390301810438 
1029	 0.171006081292749 
1030	 0.174157206038583 
1031	 0.182344171230532 
1032	 0.184497469599621 
1033	 0.182672486435791 
1034	 0.180416149386419 
1035	 0.190908652313701 
1036	 0.198253875034967 
1037	 0.186875784027611 
1038	 0.189682031415969 
1039	 0.195815093128819 
1040	 0.178049980498159 
1041	 0.170330177946252 
1042	 0.176991063037757 
1043	 0.184546646854675 
1044	 0.188662242628558 
1045	 0.189693089933915 
1046	 0.202511926837422 
1047	 0.201874759836685 
1048	 0.179738563039517 
1049	 0.183420188184516 
1050	 0.19423431670977 
1051	 0.190325142984791 
1052	 0.182106891037562 
1053	 0.177615110548838 
1054	 0.186577989165293 
1055	 0.190890359849755 
1056	 0.186966528558024 
1057	 0.175604946459088 
1058	 0.179535786925343 
1059	 0.196715303470344 
1060	 0.187677292354377 
1061	 0.184304569495402 
1062	 0.194555358321643 
1063	 0.180043128459508 
1064	 0.164418310231452 
1065	 0.166591893970339 
1066	 0.170632461568802 
1067	 0.17662837924617 
1068	 0.184479076182088 
1069	 0.176246236817317 
1070	 0.165375197490712 
1071	 0.176814103278154 
1072	 0.200165795349708 
1073	 0.21803596010175 
1074	 0.19017418219336 
1075	 0.178484350640806 
