Wavelength	AVEI200130.asd
325	 3.38019179349405E-02 
326	 0.033229302649456 
327	 3.12350444551646E-02 
328	 3.78011718172381E-02 
329	 4.36760861328917E-02 
330	 4.45930159639051E-02 
331	 3.81875400615151E-02 
332	 3.22279023496546E-02 
333	 3.38588657810906E-02 
334	 3.71202346890719E-02 
335	 3.92170160358648E-02 
336	 0.037041214593165 
337	 3.15154501290148E-02 
338	 2.58513727728298E-02 
339	 3.26376890386745E-02 
340	 3.84082964131861E-02 
341	 3.30443485461247E-02 
342	 3.05989359034874E-02 
343	 3.18676914197706E-02 
344	 3.41305150666981E-02 
345	 3.54129227138901E-02 
346	 3.51136115543917E-02 
347	 3.37725457755874E-02 
348	 3.27644265595096E-02 
349	 0.032835536865167 
350	 3.18304271810378E-02 
351	 3.11790558203446E-02 
352	 3.35989798815106E-02 
353	 0.034838488770383 
354	 3.43843679048654E-02 
355	 0.034716821232422 
356	 3.43859627826805E-02 
357	 3.29136400189384E-02 
358	 3.36948550670687E-02 
359	 3.50734949156921E-02 
360	 3.40543992876851E-02 
361	 3.32349460811593E-02 
362	 3.30210189662228E-02 
363	 3.23944125713887E-02 
364	 3.24030263304446E-02 
365	 3.34316372967222E-02 
366	 3.43750910552374E-02 
367	 3.46973062232032E-02 
368	 0.033899398244098 
369	 3.25558286523437E-02 
370	 3.11026714946712E-02 
371	 3.00774408648452E-02 
372	 3.03757306126547E-02 
373	 3.20008240282464E-02 
374	 3.14272881774034E-02 
375	 3.01766507353769E-02 
376	 3.08108859896273E-02 
377	 0.030808101804498 
378	 2.98638550081915E-02 
379	 2.88661393188871E-02 
380	 2.84207163468836E-02 
381	 2.88739477331891E-02 
382	 3.01073736505761E-02 
383	 3.11038082919862E-02 
384	 3.06384885209815E-02 
385	 2.95147105469507E-02 
386	 2.85916363875148E-02 
387	 2.97740052394668E-02 
388	 3.06290649155666E-02 
389	 3.01430889371756E-02 
390	 2.97362216593402E-02 
391	 2.94878696934838E-02 
392	 2.93347154720058E-02 
393	 2.95771556674384E-02 
394	 2.99234564460636E-02 
395	 2.93751994972278E-02 
396	 2.91370305512618E-02 
397	 2.94959100728365E-02 
398	 2.89507386781861E-02 
399	 2.84213334728831E-02 
400	 2.89027130347774E-02 
401	 2.88766437002554E-02 
402	 2.83923120924456E-02 
403	 2.81823192433849E-02 
404	 2.83933173263399E-02 
405	 0.028831185063712 
406	 2.78077063395974E-02 
407	 2.68137120554517E-02 
408	 0.027791713317462 
409	 2.83589781603744E-02 
410	 2.81555717880578E-02 
411	 2.77946633446147E-02 
412	 2.74046213421936E-02 
413	 2.71428535642383E-02 
414	 2.73906480770544E-02 
415	 2.77925440446236E-02 
416	 0.027868393283243 
417	 2.75302080541602E-02 
418	 2.70803849496805E-02 
419	 2.75208263879736E-02 
420	 2.79113967106141E-02 
421	 2.78023037084371E-02 
422	 2.79636344730437E-02 
423	 0.028122242230983 
424	 2.77758089556322E-02 
425	 2.72609088192784E-02 
426	 2.68436017791877E-02 
427	 2.70562960823747E-02 
428	 2.75375465791613E-02 
429	 2.79650705738562E-02 
430	 2.78772492422842E-02 
431	 2.76232891998237E-02 
432	 2.78984831988598E-02 
433	 2.79995292754102E-02 
434	 2.77549613098006E-02 
435	 2.72288684305109E-02 
436	 2.69016101939405E-02 
437	 2.70468296123131E-02 
438	 2.70963624823472E-02 
439	 2.70946871108315E-02 
440	 2.73064542497264E-02 
441	 2.72794649302254E-02 
442	 0.027035902229266 
443	 2.73172333496672E-02 
444	 0.027449543467557 
445	 2.69474016535697E-02 
446	 2.68991969414477E-02 
447	 2.72299730868242E-02 
448	 2.73820489040756E-02 
449	 2.74355557471057E-02 
450	 0.027428383411694 
451	 2.75395022108228E-02 
452	 2.76069578675087E-02 
453	 2.74740025821994E-02 
454	 2.74299077513918E-02 
455	 2.74436673495294E-02 
456	 2.72187426826575E-02 
457	 0.027234822085207 
458	 2.75956719334013E-02 
459	 2.76812389769246E-02 
460	 0.027573258753069 
461	 2.74376762605959E-02 
462	 2.74000145978251E-02 
463	 2.74269723229915E-02 
464	 2.72726355053366E-02 
465	 2.72297073255737E-02 
466	 2.73845972691943E-02 
467	 2.71914368243279E-02 
468	 2.69392258471131E-02 
469	 2.71293860608859E-02 
470	 2.74424505867869E-02 
471	 2.77099246713306E-02 
472	 0.027710426745966 
473	 2.75513785381274E-02 
474	 2.73251553389852E-02 
475	 2.71062247122679E-02 
476	 2.70237680489033E-02 
477	 2.72685340679519E-02 
478	 2.75462729167415E-02 
479	 2.76791968953055E-02 
480	 2.73765477142501E-02 
481	 2.71428193324954E-02 
482	 0.02736787210475 
483	 2.75600620284293E-02 
484	 2.76320463465972E-02 
485	 2.75596797974337E-02 
486	 2.76682096249328E-02 
487	 2.79736838240825E-02 
488	 2.78405242388697E-02 
489	 2.76830314226428E-02 
490	 2.79396132826961E-02 
491	 2.80342943509594E-02 
492	 2.79053676180209E-02 
493	 2.76552627320993E-02 
494	 2.76168455690925E-02 
495	 2.78791560881677E-02 
496	 2.79113134357011E-02 
497	 2.79127300243332E-02 
498	 2.82043277058983E-02 
499	 2.84220452923404E-02 
500	 2.85566361428712E-02 
501	 2.89466612229667E-02 
502	 2.91095433190331E-02 
503	 2.88304003719964E-02 
504	 2.88356674308981E-02 
505	 2.91378596941826E-02 
506	 2.96008195667075E-02 
507	 2.98616722060637E-02 
508	 2.99167771826088E-02 
509	 0.0302399501949 
510	 3.06853829076751E-02 
511	 3.11111984312618E-02 
512	 3.14228605053306E-02 
513	 3.15764692249857E-02 
514	 3.14502147370821E-02 
515	 3.16789316153122E-02 
516	 3.23901776860169E-02 
517	 3.27928669922631E-02 
518	 3.31553835398649E-02 
519	 3.38088973631892E-02 
520	 3.42861944334553E-02 
521	 3.46790373957048E-02 
522	 3.55490854725104E-02 
523	 3.62326466989384E-02 
524	 3.64782442713937E-02 
525	 3.67757154503244E-02 
526	 3.71533531475264E-02 
527	 3.75655690576186E-02 
528	 3.80708225922305E-02 
529	 3.86184473448269E-02 
530	 3.89968117463833E-02 
531	 3.94799079942003E-02 
532	 4.01845226784517E-02 
533	 4.04000532608731E-02 
534	 4.03389830569925E-02 
535	 4.06190120291082E-02 
536	 4.08427259373523E-02 
537	 4.09758109252285E-02 
538	 4.14373516260455E-02 
539	 4.18030078953424E-02 
540	 4.16776814126434E-02 
541	 4.17591820011624E-02 
542	 4.20838226885267E-02 
543	 4.23404484179086E-02 
544	 4.26808502243149E-02 
545	 4.30965961115753E-02 
546	 4.32218013288471E-02 
547	 4.31990339728616E-02 
548	 4.32551904358251E-02 
549	 4.34721958533845E-02 
550	 4.38033367325282E-02 
551	 4.40019293715598E-02 
552	 4.41577262479778E-02 
553	 4.43165667129068E-02 
554	 4.43721833295964E-02 
555	 4.44032446549477E-02 
556	 4.45876832478684E-02 
557	 4.46622651808375E-02 
558	 4.45690332077834E-02 
559	 0.044458129383595 
560	 4.44051488983742E-02 
561	 4.44594624345529E-02 
562	 4.43705455660649E-02 
563	 4.42284782439579E-02 
564	 4.44346050800472E-02 
565	 4.44580976643664E-02 
566	 4.41159581350174E-02 
567	 4.37785217326251E-02 
568	 4.34606541547245E-02 
569	 4.31353312969994E-02 
570	 4.29102063591674E-02 
571	 0.042814922984717 
572	 4.28736496374363E-02 
573	 4.27964710427215E-02 
574	 4.24493341390833E-02 
575	 4.23932494397093E-02 
576	 4.23453351624732E-02 
577	 4.16209682343728E-02 
578	 4.12455956572307E-02 
579	 0.041422725109354 
580	 4.14670810736002E-02 
581	 4.14836096009249E-02 
582	 4.15496145274707E-02 
583	 4.11280863005868E-02 
584	 4.04990753666364E-02 
585	 4.06068349907776E-02 
586	 4.07824102911531E-02 
587	 4.07621440944834E-02 
588	 4.06967937297122E-02 
589	 4.05179901533587E-02 
590	 4.01387672092619E-02 
591	 0.039874224117841 
592	 3.98291858082903E-02 
593	 4.00305793520339E-02 
594	 4.02390794150323E-02 
595	 4.02768165741547E-02 
596	 0.040020551369813 
597	 3.96692848167091E-02 
598	 3.95790769594353E-02 
599	 3.96266260526159E-02 
600	 3.97309416013227E-02 
601	 3.97016919574832E-02 
602	 3.96138581541015E-02 
603	 3.95474201666739E-02 
604	 3.95558444759836E-02 
605	 3.96029042186495E-02 
606	 3.96000332547427E-02 
607	 3.94213842391575E-02 
608	 3.90815089656599E-02 
609	 3.89931413261028E-02 
610	 3.91083460897465E-02 
611	 3.93084127251391E-02 
612	 3.90117489607368E-02 
613	 3.83460916266341E-02 
614	 3.82458075232231E-02 
615	 3.82349211266891E-02 
616	 0.038046074949246 
617	 3.79897632521181E-02 
618	 3.79502760185031E-02 
619	 3.76494041696326E-02 
620	 3.75603707467524E-02 
621	 3.76701834285475E-02 
622	 3.72415786900931E-02 
623	 3.68764369642688E-02 
624	 3.71128687213073E-02 
625	 0.037379856971363 
626	 3.75057046848145E-02 
627	 3.73479232323444E-02 
628	 3.72021908693188E-02 
629	 3.71944767635351E-02 
630	 3.72383798742376E-02 
631	 3.72547488714589E-02 
632	 3.71574639023507E-02 
633	 3.70984900878986E-02 
634	 3.71273722658945E-02 
635	 3.73187359439778E-02 
636	 3.73101723396197E-02 
637	 3.69083551672916E-02 
638	 3.64467193521674E-02 
639	 3.60890857229846E-02 
640	 3.60294103757711E-02 
641	 3.60181150977517E-02 
642	 3.59185622053581E-02 
643	 3.55771431305235E-02 
644	 3.51314522581925E-02 
645	 3.46982379344784E-02 
646	 3.40513244248842E-02 
647	 3.34444693230286E-02 
648	 3.36718283940051E-02 
649	 3.37400164547355E-02 
650	 3.33343431641557E-02 
651	 3.32185260674456E-02 
652	 3.31519577338728E-02 
653	 3.27786495347431E-02 
654	 3.23183756363896E-02 
655	 3.20635886179202E-02 
656	 3.29486664395208E-02 
657	 3.34060768559845E-02 
658	 3.26169693302461E-02 
659	 3.20127352373516E-02 
660	 3.17426502613354E-02 
661	 3.17668767138971E-02 
662	 3.16876726698201E-02 
663	 3.14613989562049E-02 
664	 3.15411468507198E-02 
665	 3.14680746165877E-02 
666	 3.08977426138789E-02 
667	 3.05866787552631E-02 
668	 3.05191272081476E-02 
669	 3.02830282991188E-02 
670	 3.02040876973028E-02 
671	 3.03194535949151E-02 
672	 3.01584521466058E-02 
673	 3.00478311965089E-02 
674	 3.03856759887002E-02 
675	 3.04847276265683E-02 
676	 3.03552853753589E-02 
677	 3.05223336892202E-02 
678	 3.07648607555448E-02 
679	 0.030947998777384 
680	 3.09864348768616E-02 
681	 3.09555435787021E-02 
682	 3.09716083822369E-02 
683	 3.13279893484155E-02 
684	 3.21103496809981E-02 
685	 3.33310049608913E-02 
686	 3.45463317486055E-02 
687	 3.53458214109229E-02 
688	 3.62194197076063E-02 
689	 0.037204776323846 
690	 3.82922355654748E-02 
691	 0.039680500594548 
692	 0.041427924404162 
693	 4.32119418210942E-02 
694	 4.53356369842989E-02 
695	 4.79897902682507E-02 
696	 5.01995227378767E-02 
697	 5.20905804364185E-02 
698	 5.46387414488108E-02 
699	 5.73920614438246E-02 
700	 6.01381996065925E-02 
701	 6.31830126483623E-02 
702	 6.61399261850991E-02 
703	 6.84682956443409E-02 
704	 7.12744634582497E-02 
705	 7.45289411547647E-02 
706	 7.70365614745165E-02 
707	 7.93855612965525E-02 
708	 0.081980327755927 
709	 8.48704572101449E-02 
710	 8.78158960262106E-02 
711	 9.03970636197578E-02 
712	 9.28213407459346E-02 
713	 9.51385783092711E-02 
714	 9.73791966592384E-02 
715	 9.94872004961505E-02 
716	 0.101513964979515 
717	 0.103347421718001 
718	 0.105324017243105 
719	 0.108210642808407 
720	 0.110613112935281 
721	 0.112024108359241 
722	 0.113344118810719 
723	 0.114885335203292 
724	 0.116826302687413 
725	 0.118517193223094 
726	 0.119823842752517 
727	 0.121398544283733 
728	 0.122614793034935 
729	 0.123307175319525 
730	 0.124548720976972 
731	 0.126036805917757 
732	 0.127183477619126 
733	 0.128146769160111 
734	 0.129030402635495 
735	 0.129962973691501 
736	 0.1310082606833 
737	 0.132099711583941 
738	 0.132553076772596 
739	 0.132840221208906 
740	 0.134027479660433 
741	 0.134824510397444 
742	 0.135049632930389 
743	 0.135715788857949 
744	 0.136466743728113 
745	 0.13700007693844 
746	 0.137693218683699 
747	 0.138383666346276 
748	 0.138491106823357 
749	 0.138949456276727 
750	 0.13985914109651 
751	 0.139752745185295 
752	 0.139610496122742 
753	 0.140523879434324 
754	 0.141073476301582 
755	 0.141248924168274 
756	 0.141956226681798 
757	 0.142291285429456 
758	 0.141947410170213 
759	 0.141961822971435 
760	 0.142385831544784 
761	 0.142576024381456 
762	 0.142723226755063 
763	 0.142974662233104 
764	 0.143435893214088 
765	 0.144282369305352 
766	 0.145307810863653 
767	 0.145570729860595 
768	 0.145707508473199 
769	 0.146489635601159 
770	 0.147061081120023 
771	 0.147279340877976 
772	 0.147411996018861 
773	 0.147569771691307 
774	 0.147840171265117 
775	 0.148235726280207 
776	 0.148678643549782 
777	 0.14903348568542 
778	 0.149462943646038 
779	 0.149884089241852 
780	 0.149751720007284 
781	 0.149685269165669 
782	 0.150165901132883 
783	 0.150697863665693 
784	 0.151139346044804 
785	 0.151399202914423 
786	 0.151442886400161 
787	 0.151388641573777 
788	 0.151820099803845 
789	 0.152309278284414 
790	 0.152433246095207 
791	 0.152487474487287 
792	 0.152583609848349 
793	 0.152884693686535 
794	 0.152998239626962 
795	 0.152874630674065 
796	 0.15299480628164 
797	 0.153379462550855 
798	 0.153993941433683 
799	 0.154545272892879 
800	 0.15485668827481 
801	 0.154604982963132 
802	 0.154512352858697 
803	 0.154841998947609 
804	 0.155175229472191 
805	 0.155465215307528 
806	 0.155705926821787 
807	 0.156061988981137 
808	 0.156517472931016 
809	 0.156934511308381 
810	 0.157318425018386 
811	 0.157570750909903 
812	 0.157113757576048 
813	 0.156642088072424 
814	 0.157143194750918 
815	 0.157709763114387 
816	 0.158189675508619 
817	 0.158968452328135 
818	 0.159370917500587 
819	 0.159282696264298 
820	 0.159801553669934 
821	 0.160410089130194 
822	 0.160418396371895 
823	 0.160440569175191 
824	 0.160819688776258 
825	 0.162178836481625 
826	 0.163140745172751 
827	 0.163143145982167 
828	 0.162528372483901 
829	 0.162216604855391 
830	 0.163227738758233 
831	 0.163896067006071 
832	 0.164148437304486 
833	 0.164969952028723 
834	 0.165596183398374 
835	 0.165740169442234 
836	 0.165644069283026 
837	 0.16594902334978 
838	 0.167273103759952 
839	 0.167602037275456 
840	 0.167049728473915 
841	 0.167197001235009 
842	 0.167548620679142 
843	 0.167880435974305 
844	 0.167949833875891 
845	 0.168031916054376 
846	 0.168442222318589 
847	 0.16864993344833 
848	 0.16867072631806 
849	 0.168902845351073 
850	 0.169018023156653 
851	 0.168895880811066 
852	 0.168590858573752 
853	 0.168581253105771 
854	 0.169319865679182 
855	 0.170123524131429 
856	 0.17052056781927 
857	 0.169691060818307 
858	 0.169278556424684 
859	 0.169741113644249 
860	 0.170021051115687 
861	 0.170530288877043 
862	 0.171559942017292 
863	 0.170711991989184 
864	 0.169370082803033 
865	 0.172007545765356 
866	 0.173114517537835 
867	 0.171520426126772 
868	 0.171228641060955 
869	 0.171792490764293 
870	 0.172628495528357 
871	 0.173064820392766 
872	 0.173148863439648 
873	 0.173188905251781 
874	 0.173803663057285 
875	 0.174956157947979 
876	 0.175553666837144 
877	 0.176342084136154 
878	 0.177649108129746 
879	 0.177464032917239 
880	 0.176977157984579 
881	 0.178515796715373 
882	 0.179915083779327 
883	 0.180588822923879 
884	 0.180849921665578 
885	 0.180485025318917 
886	 0.179687046584043 
887	 0.180255146346286 
888	 0.181844836647 
889	 0.183666408548937 
890	 0.183415505947233 
891	 0.181792180072497 
892	 0.182932511206308 
893	 0.184428478960033 
894	 0.184986423649014 
895	 0.183957372109111 
896	 0.183155992556654 
897	 0.184732284307901 
898	 0.185554565893447 
899	 0.185187083837097 
900	 0.184282270079173 
901	 0.18432692462108 
902	 0.185585562772428 
903	 0.186742232319844 
904	 0.186784024879039 
905	 0.185265148443693 
906	 0.185320033951028 
907	 0.186361691317419 
908	 0.18648649738389 
909	 0.186136452170117 
910	 0.185634262332348 
911	 0.185944935132452 
912	 0.185886754652978 
913	 0.184986821865257 
914	 0.184784278077121 
915	 0.185709080810595 
916	 0.187890948514568 
917	 0.186871048302403 
918	 0.184367646416515 
919	 0.187777563119208 
920	 0.189327344788581 
921	 0.187245394444749 
922	 0.187337182168637 
923	 0.187700507166818 
924	 0.186501382993155 
925	 0.185912134154545 
926	 0.185601830297729 
927	 0.184067279918471 
928	 0.18138155845617 
929	 0.1783068902318 
930	 0.178745161166129 
931	 0.178715413179166 
932	 0.175598048606894 
933	 0.17859003569641 
934	 0.183129649724634 
935	 0.180381534144259 
936	 0.178256333792276 
937	 0.178259359071831 
938	 0.179230281562328 
939	 0.178622085676997 
940	 0.176355710581923 
941	 0.176970199955099 
942	 0.175031950876644 
943	 0.167597471588291 
944	 0.165481205431852 
945	 0.167972095160515 
946	 0.171418688806232 
947	 0.172890519341326 
948	 0.172245206491217 
949	 0.173667923215576 
950	 0.168085494162697 
951	 0.155462561483192 
952	 0.157442402204951 
953	 0.161671008919487 
954	 0.156530691757716 
955	 0.155089541553745 
956	 0.156558708332034 
957	 0.155809634496701 
958	 0.158927113961228 
959	 0.163957644224804 
960	 0.160600286551396 
961	 0.15602986790482 
962	 0.154206205871544 
963	 0.154999965919518 
964	 0.156963556913776 
965	 0.158658670103906 
966	 0.158909684430112 
967	 0.158547171246724 
968	 0.159487224814884 
969	 0.162102705911837 
970	 0.165520748753678 
971	 0.166987311952057 
972	 0.164575109284485 
973	 0.158526522788059 
974	 0.156762840105743 
975	 0.158848335355795 
976	 0.162926301581383 
977	 0.163816326002094 
978	 0.162466987299422 
979	 0.163628710862699 
980	 0.161604851519428 
981	 0.157394349055552 
982	 0.160472719077182 
983	 0.163753090873513 
984	 0.163883445658945 
985	 0.166444731891449 
986	 0.167583577350107 
987	 0.163515949546297 
988	 0.166535853717396 
989	 0.172672298586813 
990	 0.169744068246902 
991	 0.165808036775779 
992	 0.164902596728118 
993	 0.173012725545004 
994	 0.177657625573516 
995	 0.1733508119186 
996	 0.168589816883926 
997	 0.168019526989947 
998	 0.174205399662706 
999	 0.172440076678399 
1000	 0.166287753352985 
1001	 0.166199386621299 
1002	 0.171795366907138 
1003	 0.179323846159554 
1004	 0.177268989715275 
1005	 0.175236877779551 
1006	 0.177523906668926 
1007	 0.184387905457909 
1008	 0.186657063054223 
1009	 0.178898168644553 
1010	 0.178116292754217 
1011	 0.179965442247296 
1012	 0.1755890430274 
1013	 0.178727916126007 
1014	 0.185689749854019 
1015	 0.180518887476574 
1016	 0.176539495169546 
1017	 0.177038035649871 
1018	 0.176608961998628 
1019	 0.179347370031171 
1020	 0.186357565945567 
1021	 0.192029679254491 
1022	 0.188352151634144 
1023	 0.171930356711418 
1024	 0.185114762060631 
1025	 0.206408593417593 
1026	 0.189743269215744 
1027	 0.181697658806832 
1028	 0.188901219552306 
1029	 0.196535346101165 
1030	 0.192238561910807 
1031	 0.177425982005036 
1032	 0.181893600994837 
1033	 0.191954785440315 
1034	 0.197432805523612 
1035	 0.197350662674524 
1036	 0.197730631565821 
1037	 0.20392647527185 
1038	 0.199122252230126 
1039	 0.189650708030327 
1040	 0.190592659351533 
1041	 0.194460465669069 
1042	 0.198191471341917 
1043	 0.198347690189346 
1044	 0.192540904537823 
1045	 0.184767192308755 
1046	 0.195433795450976 
1047	 0.20219176843638 
1048	 0.194454944173192 
1049	 0.193322059221334 
1050	 0.19574882322874 
1051	 0.196381483297954 
1052	 0.189525864575148 
1053	 0.185458549930121 
1054	 0.200152506610491 
1055	 0.194093821964362 
1056	 0.17585021883258 
1057	 0.188693702996039 
1058	 0.198173836220102 
1059	 0.195972313510521 
1060	 0.189366219174633 
1061	 0.186124409513324 
1062	 0.188033738305483 
1063	 0.182167718957423 
1064	 0.183014204295141 
1065	 0.196106495183893 
1066	 0.183938390446201 
1067	 0.169891740084395 
1068	 0.182873936506687 
1069	 0.188292012715299 
1070	 0.179152934638386 
1071	 0.156004605593964 
1072	 0.147842387453036 
1073	 0.15765789344726 
1074	 0.172957501651817 
1075	 0.194591982328783 
