Wavelength	AVEI200024.asd
325	 3.92733228717258E-02 
326	 3.42426460932196E-02 
327	 3.15717792576747E-02 
328	 3.29922045805429E-02 
329	 3.37403881217389E-02 
330	 3.22900753444562E-02 
331	 3.13550629108956E-02 
332	 3.05130194075028E-02 
333	 2.93863865035937E-02 
334	 3.32629863861053E-02 
335	 3.84507564615361E-02 
336	 3.42732145365706E-02 
337	 3.24356933163089E-02 
338	 3.48337871353867E-02 
339	 0.032007787545549 
340	 0.029784365678712 
341	 3.26754632232471E-02 
342	 3.24525210265927E-02 
343	 3.02725440119469E-02 
344	 3.07217158945517E-02 
345	 3.09613852465843E-02 
346	 3.05304109385657E-02 
347	 3.07534503467008E-02 
348	 3.01448366045554E-02 
349	 2.81583655168824E-02 
350	 2.93621892147729E-02 
351	 3.11406975249779E-02 
352	 0.028485594636802 
353	 2.76073977331032E-02 
354	 2.91067016129224E-02 
355	 2.91958178693387E-02 
356	 2.93768086259768E-02 
357	 3.03447218840706E-02 
358	 3.01266056858568E-02 
359	 2.90354084930329E-02 
360	 2.78568514158957E-02 
361	 2.74610188927185E-02 
362	 2.79518709987001E-02 
363	 2.89451399204877E-02 
364	 2.90374767295211E-02 
365	 2.77831331257106E-02 
366	 2.75785045116623E-02 
367	 2.78932338033576E-02 
368	 2.76968222272527E-02 
369	 2.69989915508204E-02 
370	 2.65105142441443E-02 
371	 2.86727620338778E-02 
372	 3.02259378115914E-02 
373	 2.94170124946656E-02 
374	 2.74249715886447E-02 
375	 2.60273007226308E-02 
376	 2.73383590645681E-02 
377	 2.88712524109357E-02 
378	 2.95513671389809E-02 
379	 2.81936646602015E-02 
380	 2.68639422862926E-02 
381	 2.67823683988489E-02 
382	 2.79525344295351E-02 
383	 2.88371499444808E-02 
384	 2.75153353513796E-02 
385	 2.73843283153304E-02 
386	 2.85270476968503E-02 
387	 2.85178731229385E-02 
388	 2.81883339993949E-02 
389	 2.80438860622967E-02 
390	 2.88192371296468E-02 
391	 2.93806700604033E-02 
392	 2.84145280556764E-02 
393	 2.77961510392896E-02 
394	 2.78337400357602E-02 
395	 2.81912507345872E-02 
396	 2.82627548771065E-02 
397	 2.79422292097674E-02 
398	 2.83662068763379E-02 
399	 2.86971836160924E-02 
400	 2.80491778196319E-02 
401	 2.74596951672422E-02 
402	 2.71673308014081E-02 
403	 0.027237797564387 
404	 2.73078799451958E-02 
405	 2.72857921220034E-02 
406	 2.76682088705884E-02 
407	 2.80442369899154E-02 
408	 2.78807251715898E-02 
409	 2.75564040778466E-02 
410	 0.027268452065295 
411	 2.73117586400968E-02 
412	 2.72396921824572E-02 
413	 0.026952256360703 
414	 2.72611848908589E-02 
415	 2.77443281294106E-02 
416	 2.77824232291369E-02 
417	 2.73045614790776E-02 
418	 2.66979902504754E-02 
419	 2.71794001343599E-02 
420	 2.78017768608796E-02 
421	 2.79686339256016E-02 
422	 2.74164969549125E-02 
423	 2.67919773379847E-02 
424	 0.027048808782563 
425	 2.74732559720054E-02 
426	 2.77399409766019E-02 
427	 2.73528165994901E-02 
428	 2.71865255277959E-02 
429	 2.76975393168547E-02 
430	 0.02758829827407 
431	 2.72730320112503E-02 
432	 2.77350023100466E-02 
433	 2.79961179967863E-02 
434	 2.78334993753497E-02 
435	 2.74290042956899E-02 
436	 2.72268723140548E-02 
437	 2.74910004180096E-02 
438	 2.78462094177359E-02 
439	 2.80693126415265E-02 
440	 2.78554111072858E-02 
441	 2.77819958371757E-02 
442	 2.79262774063883E-02 
443	 2.77721122553324E-02 
444	 2.76251714717411E-02 
445	 2.77404864706814E-02 
446	 2.79843645526046E-02 
447	 2.81934278962969E-02 
448	 2.80643996958815E-02 
449	 2.79035541773592E-02 
450	 2.78747051493622E-02 
451	 2.81869560304023E-02 
452	 2.85172755039327E-02 
453	 2.85555908993409E-02 
454	 2.88224108334885E-02 
455	 2.91439708357313E-02 
456	 2.87186234767285E-02 
457	 2.85364118237599E-02 
458	 0.02893758321999 
459	 2.92960759698332E-02 
460	 2.93902122155155E-02 
461	 2.90446198441132E-02 
462	 2.89807716109086E-02 
463	 2.91722615774733E-02 
464	 2.89395377185388E-02 
465	 0.028803442208588 
466	 2.89989488670271E-02 
467	 2.91905904756414E-02 
468	 2.92254948394035E-02 
469	 2.89374885657901E-02 
470	 0.029137053766062 
471	 2.97241231018606E-02 
472	 2.95431532728821E-02 
473	 2.93053636965796E-02 
474	 2.94621818145725E-02 
475	 2.97397259096132E-02 
476	 2.99374829464142E-02 
477	 2.97662417916083E-02 
478	 2.97071709146903E-02 
479	 2.98180766199156E-02 
480	 2.96823778403493E-02 
481	 2.95093876592144E-02 
482	 2.94932215710346E-02 
483	 2.97756028976017E-02 
484	 3.01351847161743E-02 
485	 2.99499519156531E-02 
486	 3.00535700629906E-02 
487	 3.05969841874096E-02 
488	 3.06708047512728E-02 
489	 3.05541504691384E-02 
490	 3.05906016058226E-02 
491	 3.04912403903177E-02 
492	 3.03712929078845E-02 
493	 3.07183823925778E-02 
494	 3.07666589878996E-02 
495	 3.03540680966375E-02 
496	 3.07677318876027E-02 
497	 3.12445619759782E-02 
498	 3.06603108498965E-02 
499	 3.04976860027365E-02 
500	 3.09446338422511E-02 
501	 3.13540431360029E-02 
502	 3.14999436599324E-02 
503	 3.13178922281499E-02 
504	 3.16009534587424E-02 
505	 3.19836381066158E-02 
506	 3.16643548222874E-02 
507	 3.16634229889819E-02 
508	 3.20932694514744E-02 
509	 3.21624839993064E-02 
510	 0.032167300014677 
511	 3.23598185352648E-02 
512	 3.27057242883702E-02 
513	 3.29650917870009E-02 
514	 3.25485170599565E-02 
515	 3.23431020617571E-02 
516	 3.26704568887509E-02 
517	 0.033308029136582 
518	 0.033731925005443 
519	 3.34321920781915E-02 
520	 3.31432462327264E-02 
521	 3.31468165714498E-02 
522	 3.37641444323936E-02 
523	 3.41406379110528E-02 
524	 3.39862962066921E-02 
525	 0.034289488721811 
526	 3.47648136703869E-02 
527	 3.48648395408463E-02 
528	 3.49453290730656E-02 
529	 3.51001477378626E-02 
530	 3.53287709734247E-02 
531	 3.55857695251177E-02 
532	 3.58407554889319E-02 
533	 3.61417339491244E-02 
534	 3.63813232348078E-02 
535	 3.63398302040082E-02 
536	 3.62882181239967E-02 
537	 3.63505119056671E-02 
538	 3.66269566413696E-02 
539	 3.68943644827524E-02 
540	 3.69434123335152E-02 
541	 0.037056676503567 
542	 3.72294578334676E-02 
543	 3.72853951410965E-02 
544	 3.73874137895686E-02 
545	 3.76008234161517E-02 
546	 0.037915506908003 
547	 3.80731612243747E-02 
548	 3.77482340761184E-02 
549	 3.77814776922352E-02 
550	 3.81869101696957E-02 
551	 3.81903298557954E-02 
552	 3.83446245035882E-02 
553	 3.89098318882521E-02 
554	 3.89798367549357E-02 
555	 3.88146060492898E-02 
556	 3.91361264674001E-02 
557	 3.94210062150806E-02 
558	 3.94845888043162E-02 
559	 3.92929856455747E-02 
560	 0.039021676563909 
561	 3.88720867807187E-02 
562	 3.92891245499039E-02 
563	 3.99746432165881E-02 
564	 3.99356425220609E-02 
565	 3.99742887776694E-02 
566	 4.03414009031892E-02 
567	 4.05222480543069E-02 
568	 4.04796490928252E-02 
569	 4.02301047418759E-02 
570	 4.00274704247352E-02 
571	 3.99363480956073E-02 
572	 3.98562088560843E-02 
573	 3.99085187873657E-02 
574	 4.01444145625465E-02 
575	 4.03470123171083E-02 
576	 4.05218579835121E-02 
577	 4.07521606953442E-02 
578	 4.08741400198528E-02 
579	 4.08694238187969E-02 
580	 4.08902802339998E-02 
581	 4.09861280094409E-02 
582	 0.041177161090516 
583	 4.11924302970229E-02 
584	 4.11148346009924E-02 
585	 4.12836426266916E-02 
586	 4.15138320145082E-02 
587	 4.16756976435359E-02 
588	 4.14606520754575E-02 
589	 4.11660233699148E-02 
590	 4.12236126810623E-02 
591	 4.12714630954989E-02 
592	 4.13212126681765E-02 
593	 4.17158568619464E-02 
594	 4.20677169280505E-02 
595	 4.21497748648874E-02 
596	 4.21295650327012E-02 
597	 4.21326944754923E-02 
598	 4.23441315249138E-02 
599	 4.24154709000055E-02 
600	 4.23408880205591E-02 
601	 4.26039818586925E-02 
602	 4.28384950478615E-02 
603	 4.27490139873206E-02 
604	 4.30955970354815E-02 
605	 4.36068252693094E-02 
606	 4.32088200751833E-02 
607	 4.30442079257095E-02 
608	 4.34450446850304E-02 
609	 4.34455133302736E-02 
610	 0.04321279455801 
611	 4.30673071808198E-02 
612	 4.32040056928835E-02 
613	 4.35408139564957E-02 
614	 0.043603842844864 
615	 0.043648351897397 
616	 4.38257024915865E-02 
617	 4.40933092354224E-02 
618	 4.42223740601567E-02 
619	 4.38131726663583E-02 
620	 0.043648286871935 
621	 4.38791925401532E-02 
622	 4.39941670770746E-02 
623	 0.044107512924964 
624	 4.43153442212994E-02 
625	 4.42918431227652E-02 
626	 4.41740180828269E-02 
627	 4.44883502353261E-02 
628	 4.47377148718962E-02 
629	 4.47355839917381E-02 
630	 4.46685278393246E-02 
631	 4.46305519799403E-02 
632	 4.47158747438614E-02 
633	 4.51548522707579E-02 
634	 0.045742196884895 
635	 4.56408415572868E-02 
636	 4.56296022276329E-02 
637	 0.046059628820895 
638	 4.57321403056849E-02 
639	 4.52108526628468E-02 
640	 4.57751130579061E-02 
641	 0.046154269316759 
642	 0.046075873493966 
643	 4.62307458547587E-02 
644	 4.63011965108166E-02 
645	 4.60320064015826E-02 
646	 4.61253955880181E-02 
647	 0.04646521199662 
648	 4.63061009436721E-02 
649	 4.65799652780979E-02 
650	 4.73862854410138E-02 
651	 4.71742631230888E-02 
652	 4.64605164577742E-02 
653	 4.60107205778666E-02 
654	 4.58386757276989E-02 
655	 0.046020588568248 
656	 4.67894819330754E-02 
657	 4.70390466433334E-02 
658	 4.62573031531819E-02 
659	 4.58739806707133E-02 
660	 4.59021491913251E-02 
661	 4.61051314149085E-02 
662	 4.60809708271933E-02 
663	 4.57762606245314E-02 
664	 4.55611881235607E-02 
665	 4.55369817859788E-02 
666	 4.57462032746565E-02 
667	 4.57851440488702E-02 
668	 4.55843461942096E-02 
669	 4.51064277925338E-02 
670	 4.49463667983864E-02 
671	 4.52278326932016E-02 
672	 4.51607219590707E-02 
673	 4.50353400322278E-02 
674	 0.045246784498044 
675	 4.53687403948988E-02 
676	 0.04540753852258 
677	 4.56551463558623E-02 
678	 4.60624171890129E-02 
679	 4.65484275646012E-02 
680	 4.67934246441758E-02 
681	 4.67467416443623E-02 
682	 4.63579778687495E-02 
683	 4.67264423841931E-02 
684	 4.79147239580783E-02 
685	 4.88372047203874E-02 
686	 4.95432404200172E-02 
687	 5.00922245663857E-02 
688	 5.09592888907352E-02 
689	 5.20097345422711E-02 
690	 5.29168114962047E-02 
691	 0.053713094581749 
692	 5.44857532062167E-02 
693	 5.54782508922812E-02 
694	 5.66065697562919E-02 
695	 0.057715311892362 
696	 5.89171429188705E-02 
697	 6.01892004126303E-02 
698	 6.15418610767546E-02 
699	 6.26799488645187E-02 
700	 6.35231406432418E-02 
701	 6.47596508319069E-02 
702	 6.61726969253155E-02 
703	 6.73674873570917E-02 
704	 6.82751104696793E-02 
705	 6.90600012871788E-02 
706	 7.03328123094136E-02 
707	 7.14683119907264E-02 
708	 7.21244865285356E-02 
709	 0.073108074865398 
710	 7.42518045994336E-02 
711	 7.50312386007562E-02 
712	 7.59028867833384E-02 
713	 7.69400771585052E-02 
714	 7.79386326499227E-02 
715	 7.85140677830291E-02 
716	 7.83870221658977E-02 
717	 7.89246836546252E-02 
718	 0.080236477896458 
719	 8.11879467723599E-02 
720	 8.21071222502929E-02 
721	 0.082992605123059 
722	 0.083763322974611 
723	 8.44651182255813E-02 
724	 8.50793149924976E-02 
725	 8.56787894861829E-02 
726	 8.62638157777304E-02 
727	 8.70039648999479E-02 
728	 8.73498756917288E-02 
729	 8.71670600071156E-02 
730	 8.74691926746027E-02 
731	 8.82822202854163E-02 
732	 8.94440914229251E-02 
733	 9.01323119533882E-02 
734	 9.03641053432875E-02 
735	 9.08141793663965E-02 
736	 0.09142389151601 
737	 9.21378029279526E-02 
738	 9.29632290496283E-02 
739	 9.37016098431331E-02 
740	 9.39933526630996E-02 
741	 0.094372705729142 
742	 9.49826991478038E-02 
743	 0.095648528864916 
744	 9.62714435628268E-02 
745	 9.67765138311485E-02 
746	 9.72023335424588E-02 
747	 9.75761969240984E-02 
748	 9.79541460875675E-02 
749	 9.82501427745628E-02 
750	 9.85037750085635E-02 
751	 9.90528030362502E-02 
752	 9.97114957595026E-02 
753	 0.100245617011176 
754	 0.100390094232089 
755	 0.100401066074947 
756	 0.101182986175348 
757	 0.10189409338414 
758	 0.10217232759611 
759	 0.102020072153318 
760	 0.101898797600711 
761	 0.10330935730973 
762	 0.104000957417493 
763	 0.103838962050544 
764	 0.104448212183156 
765	 0.105183392887531 
766	 0.105754030178259 
767	 0.106129070228628 
768	 0.106443827919162 
769	 0.106828806722647 
770	 0.107320149837751 
771	 0.107882286354578 
772	 0.108358715929115 
773	 0.108780744122036 
774	 0.109214836969329 
775	 0.110132709844897 
776	 0.111002721163379 
777	 0.110765363453555 
778	 0.110627244185517 
779	 0.110969608640342 
780	 0.111622433900005 
781	 0.112371319821346 
782	 0.113032431051612 
783	 0.113622876921711 
784	 0.114060644567006 
785	 0.114155118453855 
786	 0.114407017899879 
787	 0.114976878463357 
788	 0.115736165874263 
789	 0.116125772247716 
790	 0.115725531150731 
791	 0.116088030748704 
792	 0.117010128361186 
793	 0.117250632264686 
794	 0.117538632101962 
795	 0.118057903460485 
796	 0.118469644872951 
797	 0.118840587507476 
798	 0.119248685993145 
799	 0.119504919286697 
800	 0.119748096394286 
801	 0.120461583694392 
802	 0.12101450125496 
803	 0.121251676153212 
804	 0.121853058109659 
805	 0.122488526775697 
806	 0.122779525507774 
807	 0.123312595463449 
808	 0.123910463456287 
809	 0.123697455461587 
810	 0.123485630661352 
811	 0.123637395429784 
812	 0.123859335079501 
813	 0.124333521037226 
814	 0.125278440956702 
815	 0.125133830788394 
816	 0.124324211541493 
817	 0.125528010241655 
818	 0.12705053085737 
819	 0.12804523606795 
820	 0.128559577999701 
821	 0.128650707721767 
822	 0.128407160526396 
823	 0.129234510643945 
824	 0.130852031788935 
825	 0.131661030299532 
826	 0.131956614734601 
827	 0.131989142177913 
828	 0.132635423012248 
829	 0.133171702519085 
830	 0.132649946821947 
831	 0.132450064531311 
832	 0.132888447138734 
833	 0.133898327605962 
834	 0.135002689269261 
835	 0.135798770300316 
836	 0.135541032487621 
837	 0.13524934868418 
838	 0.136099259417886 
839	 0.137224026753499 
840	 0.138115753526425 
841	 0.137870762771611 
842	 0.13783314576004 
843	 0.138505434357954 
844	 0.13904701580907 
845	 0.139483041643532 
846	 0.139900806621688 
847	 0.13979878655317 
848	 0.139481043789615 
849	 0.140043413188527 
850	 0.140892023095371 
851	 0.141624443703825 
852	 0.141438383775657 
853	 0.14119536308352 
854	 0.14181691070236 
855	 0.141566433868984 
856	 0.140996396648545 
857	 0.14230102681717 
858	 0.14374035480816 
859	 0.144607722837354 
860	 0.144752629055534 
861	 0.144308867723676 
862	 0.143499889110622 
863	 0.143294495502989 
864	 0.143667677451043 
865	 0.144001023509435 
866	 0.144666329503047 
867	 0.145656022041084 
868	 0.146535256037809 
869	 0.147182882694153 
870	 0.147559007257545 
871	 0.148046991414781 
872	 0.148730299746447 
873	 0.149643441762255 
874	 0.150297889316044 
875	 0.150627267051027 
876	 0.151013596760581 
877	 0.151732894215067 
878	 0.152825218139535 
879	 0.152940479083063 
880	 0.152693083902031 
881	 0.153356011435414 
882	 0.154558869376663 
883	 0.155828854469442 
884	 0.155827718695563 
885	 0.156101627722989 
886	 0.15733280350045 
887	 0.157547074922307 
888	 0.157824726239612 
889	 0.159804035862854 
890	 0.160233419165139 
891	 0.159189368638927 
892	 0.159559102589206 
893	 0.159806352843615 
894	 0.159225436445953 
895	 0.157781422818729 
896	 0.157341000948579 
897	 0.159898709521797 
898	 0.160617466712077 
899	 0.160178637024271 
900	 0.163368746011907 
901	 0.164268228180462 
902	 0.162021155577638 
903	 0.161971568213223 
904	 0.162504997318165 
905	 0.162295141364069 
906	 0.1622469744444 
907	 0.162717606937508 
908	 0.164133438777807 
909	 0.165544128241328 
910	 0.166333442463882 
911	 0.165469634632308 
912	 0.1652503236539 
913	 0.166623590396571 
914	 0.165987379492343 
915	 0.165034139550104 
916	 0.166164727248776 
917	 0.167461758518319 
918	 0.168164789231302 
919	 0.1673797366659 
920	 0.166804628882211 
921	 0.167014830631231 
922	 0.167377062430163 
923	 0.167668158611244 
924	 0.167725113620758 
925	 0.168067831570012 
926	 0.167815284615676 
927	 0.16471374791042 
928	 0.163540176310272 
929	 0.165436966160219 
930	 0.166045323991006 
931	 0.163774585187161 
932	 0.158125730610492 
933	 0.158369788692345 
934	 0.161480938117652 
935	 0.160248161530674 
936	 0.162144714835999 
937	 0.165615833637866 
938	 0.162739832868468 
939	 0.157275825196578 
940	 0.152599225446852 
941	 0.156927301776724 
942	 0.161209044009437 
943	 0.159120161761607 
944	 0.158854099622727 
945	 0.158438811037377 
946	 0.153130025100334 
947	 0.154147456469664 
948	 0.159917550216093 
949	 0.156289693028313 
950	 0.149905230829944 
951	 0.145470188070877 
952	 0.152312147236637 
953	 0.159778696409755 
954	 0.158425816662738 
955	 0.154338574204224 
956	 0.150354550322219 
957	 0.149261029526785 
958	 0.153450836554205 
959	 0.15867795720178 
960	 0.149148354677173 
961	 0.144128256683744 
962	 0.150568534759301 
963	 0.15313116512816 
964	 0.153358062329597 
965	 0.153669452405469 
966	 0.150388565531592 
967	 0.147929254552799 
968	 0.155710631952019 
969	 0.158129925932851 
970	 0.153333013486683 
971	 0.15189690476171 
972	 0.149560180058047 
973	 0.145946947257051 
974	 0.154290736669838 
975	 0.162977877753957 
976	 0.158880575353451 
977	 0.154819001015733 
978	 0.153352855107943 
979	 0.154398614431748 
980	 0.152867401187473 
981	 0.149784168898133 
982	 0.155378014155786 
983	 0.159345816149694 
984	 0.157209284370378 
985	 0.158599674006657 
986	 0.159819704143004 
987	 0.156650953692497 
988	 0.157339491402015 
989	 0.160859711078421 
990	 0.162391214965276 
991	 0.161873174885996 
992	 0.16049250869343 
993	 0.162852776398477 
994	 0.16572172384343 
995	 0.166973051073955 
996	 0.164836974982194 
997	 0.165306719090747 
998	 0.173110258597693 
999	 0.172773312841449 
1000	 0.16761092441455 
1001	 0.168006324518445 
1002	 0.174272869645283 
1003	 0.181992108677855 
1004	 0.176130042613745 
1005	 0.171608522124366 
1006	 0.173500576192896 
1007	 0.172611043949788 
1008	 0.174717551830629 
1009	 0.18250289990832 
1010	 0.18092166012732 
1011	 0.172466576861026 
1012	 0.163912005600027 
1013	 0.17048440121564 
1014	 0.18412180739275 
1015	 0.176385878111691 
1016	 0.173785999914523 
1017	 0.180376782638301 
1018	 0.177250801448209 
1019	 0.173685490663378 
1020	 0.175582959003484 
1021	 0.184321417928648 
1022	 0.188344763165588 
1023	 0.178300415985999 
1024	 0.177970165631691 
1025	 0.184298538607789 
1026	 0.185289190980227 
1027	 0.177519317310961 
1028	 0.166673880924061 
1029	 0.174282356727342 
1030	 0.180044509338909 
1031	 0.17821225283387 
1032	 0.176369837813973 
1033	 0.179856404432207 
1034	 0.189575085197715 
1035	 0.188966423341495 
1036	 0.185196005429651 
1037	 0.187661286935727 
1038	 0.193902591439799 
1039	 0.197629733358776 
1040	 0.190167583274437 
1041	 0.188294168464647 
1042	 0.191624519199534 
1043	 0.184147787033935 
1044	 0.179061132098273 
1045	 0.181394643964276 
1046	 0.192118162298914 
1047	 0.194630116504586 
1048	 0.182879909620274 
1049	 0.188228815291066 
1050	 0.199747566738326 
1051	 0.203550196158374 
1052	 0.199207851315915 
1053	 0.200706011773504 
1054	 0.226914486440162 
1055	 0.206265853714841 
1056	 0.157406814695732 
1057	 0.171536006092745 
1058	 0.190564040827966 
1059	 0.197722855240869 
1060	 0.194244772712819 
1061	 0.190767870416969 
1062	 0.191788695413635 
1063	 0.188910160746821 
1064	 0.194528791024279 
1065	 0.214376638607334 
1066	 0.222524982999153 
1067	 0.226125772463445 
1068	 0.233270007619962 
1069	 0.210253619938597 
1070	 0.182401001394274 
1071	 0.205383106547094 
1072	 0.19268921445055 
1073	 0.154968772463872 
1074	 0.177671906236229 
1075	 0.193151675596368 
