Wavelength	AVEI200340.asd
325	 5.67087928605331E-02 
326	 4.15994497572915E-02 
327	 1.77829443500551E-02 
328	 0.035641903581821 
329	 4.69023828060659E-02 
330	 3.71900565353988E-02 
331	 2.84466040522246E-02 
332	 2.65439519108967E-02 
333	 3.44074364196564E-02 
334	 3.41284883235517E-02 
335	 2.88704183195208E-02 
336	 3.40854387798797E-02 
337	 3.98201894487549E-02 
338	 4.22663194238371E-02 
339	 3.79509983797468E-02 
340	 3.44168890433002E-02 
341	 3.74499612151778E-02 
342	 3.91096286497159E-02 
343	 3.86045333255076E-02 
344	 3.67809085584885E-02 
345	 0.034958087389542 
346	 0.033636510331637 
347	 3.22172697018687E-02 
348	 3.26287936112476E-02 
349	 3.53585771540625E-02 
350	 3.34954979247962E-02 
351	 2.98276670367561E-02 
352	 2.98436894922081E-02 
353	 3.19132854437589E-02 
354	 3.45164822917477E-02 
355	 3.35467780717535E-02 
356	 3.33146706593676E-02 
357	 0.035914161037451 
358	 3.60500782225313E-02 
359	 3.35601118810958E-02 
360	 2.92229533821876E-02 
361	 2.73239051480774E-02 
362	 2.85393957473369E-02 
363	 3.08964110432366E-02 
364	 0.033483358468611 
365	 3.53567822475459E-02 
366	 3.42780656894104E-02 
367	 3.18945586064168E-02 
368	 3.06022471692945E-02 
369	 3.34846892924595E-02 
370	 3.86197384163366E-02 
371	 3.65034502088007E-02 
372	 3.71747968837641E-02 
373	 4.40345717273076E-02 
374	 3.93337400447003E-02 
375	 3.17145429224062E-02 
376	 3.51556137907486E-02 
377	 3.55787918390758E-02 
378	 3.22355874377544E-02 
379	 3.34401784054816E-02 
380	 3.45931712628235E-02 
381	 3.36498460386591E-02 
382	 3.29063734720834E-02 
383	 3.28397620536087E-02 
384	 3.37274559979937E-02 
385	 0.032953635119007 
386	 3.10865113240307E-02 
387	 3.16706196899228E-02 
388	 3.19571201036416E-02 
389	 3.11297928258891E-02 
390	 3.18455688342079E-02 
391	 3.30538448498591E-02 
392	 0.033293152411833 
393	 3.28924396684738E-02 
394	 3.18321271108893E-02 
395	 2.97484303569238E-02 
396	 2.86577888385009E-02 
397	 2.92165136458589E-02 
398	 3.04359705462589E-02 
399	 3.00517060861711E-02 
400	 0.026226196699931 
401	 2.62314850147198E-02 
402	 2.92135939737735E-02 
403	 2.99659492932824E-02 
404	 3.00431941693494E-02 
405	 3.00091440789031E-02 
406	 2.96415904506358E-02 
407	 2.90595441838151E-02 
408	 2.84179200207032E-02 
409	 2.93978230209049E-02 
410	 3.12224175574214E-02 
411	 3.06095409985606E-02 
412	 3.05153942586428E-02 
413	 3.17903006177064E-02 
414	 3.02168751817716E-02 
415	 2.84630775152071E-02 
416	 0.030402834555259 
417	 0.03116716952181 
418	 3.04523552619658E-02 
419	 3.11684357513848E-02 
420	 3.15019482229845E-02 
421	 3.05761623630594E-02 
422	 2.93375378338522E-02 
423	 2.87573245519455E-02 
424	 3.00377078344819E-02 
425	 0.030923766820201 
426	 3.09494910589598E-02 
427	 3.08728899809015E-02 
428	 3.06768949033207E-02 
429	 3.04018572539163E-02 
430	 3.02927619934764E-02 
431	 3.02836236609579E-02 
432	 0.030204834584096 
433	 0.030168646601109 
434	 3.01178209371123E-02 
435	 0.029745888169965 
436	 2.94349829693448E-02 
437	 2.94410582669308E-02 
438	 0.02953941735665 
439	 2.97355779658435E-02 
440	 3.01399703232416E-02 
441	 3.02194938471773E-02 
442	 2.99882407782351E-02 
443	 3.02772993011655E-02 
444	 3.05264465644522E-02 
445	 3.03290117849686E-02 
446	 3.06490479004675E-02 
447	 0.03133138724349 
448	 3.17805770027708E-02 
449	 3.15550533785661E-02 
450	 3.07339451386174E-02 
451	 3.05900294852119E-02 
452	 3.06640163173679E-02 
453	 3.04705257409128E-02 
454	 3.11619549823967E-02 
455	 3.22038286454206E-02 
456	 3.15737551178113E-02 
457	 3.08263622077356E-02 
458	 3.06403021027439E-02 
459	 0.030907654725615 
460	 3.13009826537055E-02 
461	 3.14390954622463E-02 
462	 3.15666752086474E-02 
463	 3.17261692118907E-02 
464	 3.18860516309835E-02 
465	 3.21192550310708E-02 
466	 3.23617220396214E-02 
467	 3.19901317575626E-02 
468	 3.12270104505669E-02 
469	 3.04829604290889E-02 
470	 3.07548443446165E-02 
471	 3.18096801873585E-02 
472	 3.17586854661309E-02 
473	 3.19651496879184E-02 
474	 3.31016881389904E-02 
475	 3.33174143906394E-02 
476	 3.26930892270999E-02 
477	 3.17461158489206E-02 
478	 3.16191890958222E-02 
479	 3.24429425843831E-02 
480	 3.31171138524695E-02 
481	 0.033362035474886 
482	 3.29753980977347E-02 
483	 3.20225007921737E-02 
484	 3.12185918914846E-02 
485	 3.22477654057543E-02 
486	 3.28426775754199E-02 
487	 0.032372017282434 
488	 3.24558576479577E-02 
489	 3.27307440158581E-02 
490	 3.27160996887637E-02 
491	 3.19717056920116E-02 
492	 3.12203126321997E-02 
493	 0.032788326123625 
494	 3.36492145097184E-02 
495	 3.27515552385485E-02 
496	 3.25858226157382E-02 
497	 0.032881661523846 
498	 3.29805920548117E-02 
499	 3.30793685171291E-02 
500	 3.33483599339499E-02 
501	 3.42756619429872E-02 
502	 3.51259799302585E-02 
503	 3.53718827608105E-02 
504	 3.48855532708811E-02 
505	 3.40390397966194E-02 
506	 3.34280459832836E-02 
507	 3.28748927426078E-02 
508	 3.26535721136434E-02 
509	 3.40407752825264E-02 
510	 3.49524451856603E-02 
511	 3.39192248851936E-02 
512	 3.42713075887689E-02 
513	 3.55806287368152E-02 
514	 3.55002700188589E-02 
515	 3.54946198462826E-02 
516	 3.60281637343456E-02 
517	 3.68856150523128E-02 
518	 3.71942050127488E-02 
519	 3.61671598683876E-02 
520	 3.66678727075226E-02 
521	 3.81443645518615E-02 
522	 3.74230004844913E-02 
523	 3.71824575771944E-02 
524	 0.038327093512046 
525	 3.81728600016678E-02 
526	 3.74600313099982E-02 
527	 3.76219508925007E-02 
528	 3.78517710852724E-02 
529	 3.81046546162659E-02 
530	 3.89416500923346E-02 
531	 3.96528562747084E-02 
532	 3.97906407636978E-02 
533	 3.99238555349952E-02 
534	 3.99745653771655E-02 
535	 3.95200599072093E-02 
536	 3.98556160387775E-02 
537	 4.10929552152225E-02 
538	 4.17140270760221E-02 
539	 4.17320816694349E-02 
540	 4.12863464101585E-02 
541	 4.12115553113444E-02 
542	 4.14572413192899E-02 
543	 4.12966304787655E-02 
544	 4.14430497767337E-02 
545	 4.20318552514782E-02 
546	 4.19804507107671E-02 
547	 0.041778410501353 
548	 4.21892158554581E-02 
549	 4.21687357652718E-02 
550	 4.17851879569448E-02 
551	 4.21215464353183E-02 
552	 4.27202075522692E-02 
553	 4.32012801229182E-02 
554	 0.042978437717439 
555	 4.25338587123912E-02 
556	 4.29104868553314E-02 
557	 4.33890329228629E-02 
558	 4.37533163068072E-02 
559	 4.41208881968687E-02 
560	 4.44760971418537E-02 
561	 4.47532983127521E-02 
562	 0.044113737224724 
563	 4.32439192543567E-02 
564	 4.44245872269244E-02 
565	 4.50341347601771E-02 
566	 4.42115292354759E-02 
567	 4.38849271863566E-02 
568	 4.39958212485964E-02 
569	 4.42368958928143E-02 
570	 4.44626956674828E-02 
571	 4.45338200526166E-02 
572	 4.41698503197128E-02 
573	 4.40529975876344E-02 
574	 4.44876898851787E-02 
575	 4.42075836159671E-02 
576	 4.36247174864659E-02 
577	 4.37957064374626E-02 
578	 4.41427479160005E-02 
579	 0.044545706078554 
580	 4.54197358312729E-02 
581	 4.56574516203037E-02 
582	 4.44329677667822E-02 
583	 4.41823233330011E-02 
584	 4.47806531846266E-02 
585	 4.46491707646733E-02 
586	 4.46551628924559E-02 
587	 4.50162212095005E-02 
588	 4.50378293450974E-02 
589	 4.49214165691713E-02 
590	 4.50124435283908E-02 
591	 4.52609952122924E-02 
592	 4.54676346845093E-02 
593	 4.49476227653593E-02 
594	 4.49410853490041E-02 
595	 4.59402790392691E-02 
596	 0.04547869111559 
597	 4.46713527198983E-02 
598	 4.61370517013533E-02 
599	 4.64482624479429E-02 
600	 4.50942833313546E-02 
601	 4.46406379264786E-02 
602	 4.49415662749251E-02 
603	 4.57066405849979E-02 
604	 4.59972229732584E-02 
605	 4.59714340861492E-02 
606	 4.66321775232063E-02 
607	 4.68714384742946E-02 
608	 4.64167776510632E-02 
609	 4.65140540645177E-02 
610	 4.67584430672212E-02 
611	 4.65057106714572E-02 
612	 4.61448612733629E-02 
613	 4.59792019982074E-02 
614	 4.68049657751395E-02 
615	 4.70004364444327E-02 
616	 0.045809291442455 
617	 4.57589723942344E-02 
618	 4.65774455417022E-02 
619	 4.72345854651378E-02 
620	 4.72434440218099E-02 
621	 4.65534929089619E-02 
622	 4.58423628087213E-02 
623	 4.53720186001802E-02 
624	 4.53872254973633E-02 
625	 0.04616009074233 
626	 0.047199417978789 
627	 4.72074641288785E-02 
628	 4.70822619272704E-02 
629	 0.047176740640963 
630	 4.73490893873575E-02 
631	 0.047514894988312 
632	 4.75796676915439E-02 
633	 4.78321583522708E-02 
634	 4.80530415617268E-02 
635	 4.73198730714753E-02 
636	 4.65051722714904E-02 
637	 0.046233158413387 
638	 4.68749415251954E-02 
639	 4.78690145124481E-02 
640	 4.81983137838149E-02 
641	 4.78860851179533E-02 
642	 4.71775008655799E-02 
643	 4.71694296059361E-02 
644	 4.72937619051352E-02 
645	 4.70596907902679E-02 
646	 4.73779922420423E-02 
647	 4.79390289714469E-02 
648	 4.75806602474463E-02 
649	 0.046739664789934 
650	 4.58321469447384E-02 
651	 4.60405035905884E-02 
652	 4.66356524026394E-02 
653	 4.66392268926189E-02 
654	 4.70962572728391E-02 
655	 4.75744037041193E-02 
656	 4.55446145373851E-02 
657	 4.43213571908952E-02 
658	 4.55933503593435E-02 
659	 4.61050626864634E-02 
660	 4.57853724333778E-02 
661	 4.51034213006308E-02 
662	 4.46100525978137E-02 
663	 4.45390078719015E-02 
664	 4.48444190731677E-02 
665	 4.53848788432196E-02 
666	 4.59820150392786E-02 
667	 4.60882382696074E-02 
668	 4.57010789068857E-02 
669	 0.044959705170409 
670	 4.47380240533378E-02 
671	 4.52352145213118E-02 
672	 0.045445802655888 
673	 4.50186036121434E-02 
674	 4.37163322879489E-02 
675	 4.39634947802109E-02 
676	 4.53359649175336E-02 
677	 4.46840666448339E-02 
678	 4.41755342356587E-02 
679	 4.49425562444951E-02 
680	 4.62420188355579E-02 
681	 4.74123457357119E-02 
682	 4.75959880878925E-02 
683	 4.72120853999524E-02 
684	 4.69363045890107E-02 
685	 4.89310634494248E-02 
686	 5.09751950022752E-02 
687	 5.10378411386191E-02 
688	 5.09501373518403E-02 
689	 0.051394978156238 
690	 5.30296112028387E-02 
691	 0.054491303275751 
692	 0.055591804678241 
693	 5.76640405893903E-02 
694	 5.99034792522276E-02 
695	 6.13170165730143E-02 
696	 6.25274455205769E-02 
697	 6.38465257543945E-02 
698	 6.57401808232917E-02 
699	 6.80304493110347E-02 
700	 0.070356463510602 
701	 7.12186763442391E-02 
702	 0.071638359835765 
703	 7.32553180506462E-02 
704	 0.07426696185203 
705	 7.48235371527866E-02 
706	 0.076971087172702 
707	 7.87156787314628E-02 
708	 7.89776149496279E-02 
709	 8.02377449812643E-02 
710	 8.23724790753535E-02 
711	 8.46271021211914E-02 
712	 8.55795441981072E-02 
713	 0.085348977420769 
714	 8.68198239388918E-02 
715	 8.85643090386616E-02 
716	 8.92488544308665E-02 
717	 8.97839611806729E-02 
718	 9.03647859647755E-02 
719	 9.07463973091608E-02 
720	 9.22910453334992E-02 
721	 9.46385260563086E-02 
722	 9.46805149953668E-02 
723	 9.44917303871563E-02 
724	 9.64629251008642E-02 
725	 9.76917144045674E-02 
726	 9.75907602523214E-02 
727	 9.68306070675331E-02 
728	 9.64900170553338E-02 
729	 9.73012853688915E-02 
730	 9.96700431515041E-02 
731	 0.101818847048881 
732	 0.101391336214488 
733	 0.101418230522354 
734	 0.102493201653161 
735	 0.104100962472331 
736	 0.105434088403425 
737	 0.105967099123696 
738	 0.106925447622682 
739	 0.10775448421928 
740	 0.106990297023571 
741	 0.107364872422537 
742	 0.109280435854202 
743	 0.110586269946031 
744	 0.111513263302065 
745	 0.112255639340192 
746	 0.112006306025478 
747	 0.111210922317425 
748	 0.11105462656796 
749	 0.11163636265447 
750	 0.112891526537069 
751	 0.114022519095572 
752	 0.114819511372854 
753	 0.115155100750169 
754	 0.115434052708232 
755	 0.115788816923988 
756	 0.116497232142998 
757	 0.115974370628808 
758	 0.113878935564075 
759	 0.114567856876968 
760	 0.118318367474754 
761	 0.120128179946791 
762	 0.120023410555739 
763	 0.119358063004301 
764	 0.120168327073061 
765	 0.121521776580731 
766	 0.122729369326433 
767	 0.122788013628472 
768	 0.122473878862474 
769	 0.122603333264279 
770	 0.124038060055192 
771	 0.126154648761213 
772	 0.125889779535333 
773	 0.125521790581015 
774	 0.126488693474814 
775	 0.127132835660272 
776	 0.127484470857802 
777	 0.128018126565659 
778	 0.128476072774839 
779	 0.128840792621898 
780	 0.129282929102172 
781	 0.129893663664636 
782	 0.130763847079035 
783	 0.132128521568791 
784	 0.133503606865482 
785	 0.133850059789241 
786	 0.133820084647641 
787	 0.133818491839141 
788	 0.134565715229611 
789	 0.135508581163218 
790	 0.1360381103492 
791	 0.135691814226132 
792	 0.135215701049973 
793	 0.136629675936219 
794	 0.137888718969703 
795	 0.138451341603951 
796	 0.139721053778665 
797	 0.140682059093386 
798	 0.140327409739013 
799	 0.140104034093182 
800	 0.140397361590311 
801	 0.141333943134577 
802	 0.142657489826264 
803	 0.143932719380468 
804	 0.143631742954287 
805	 0.143291619444281 
806	 0.144585834307937 
807	 0.145132683748999 
808	 0.144820610631141 
809	 0.144592819707381 
810	 0.145211749651485 
811	 0.146788140594029 
812	 0.147403241745611 
813	 0.147250309663211 
814	 0.146866548277735 
815	 0.148420784807002 
816	 0.15119992817476 
817	 0.150969874266366 
818	 0.15064727086792 
819	 0.151436677021466 
820	 0.152245587213743 
821	 0.152984675551107 
822	 0.15366110675676 
823	 0.155409727446411 
824	 0.15723448947923 
825	 0.155687884979272 
826	 0.155468375337116 
827	 0.157926814019735 
828	 0.158038053316876 
829	 0.157457092019132 
830	 0.15870461642512 
831	 0.159148507812699 
832	 0.159196265379906 
833	 0.16169102987493 
834	 0.163763309201043 
835	 0.164281337987182 
836	 0.164611712879764 
837	 0.164699211435336 
838	 0.164412096275902 
839	 0.165402439352483 
840	 0.167188372828741 
841	 0.167525798332517 
842	 0.166897493962366 
843	 0.165904586119578 
844	 0.166907515961656 
845	 0.168130826488737 
846	 0.167498266520049 
847	 0.168260635699712 
848	 0.170249295419874 
849	 0.171070622400914 
850	 0.171564600223765 
851	 0.172025453422013 
852	 0.172499788099975 
853	 0.172555776431167 
854	 0.171870995969334 
855	 0.173101582167909 
856	 0.175516965750795 
857	 0.176022861312402 
858	 0.176240228071807 
859	 0.176697424797145 
860	 0.177398508503014 
861	 0.1776825654018 
862	 0.177023008379797 
863	 0.176994759361654 
864	 0.17777572231474 
865	 0.17915411497124 
866	 0.179385255016335 
867	 0.178560841824734 
868	 0.180304414996627 
869	 0.182482236414139 
870	 0.183158245178917 
871	 0.182177762433344 
872	 0.181030919807871 
873	 0.182558006963641 
874	 0.184548981312133 
875	 0.186115651348363 
876	 0.186695090719038 
877	 0.186954953133458 
878	 0.187810181448971 
879	 0.192948880320045 
880	 0.19743427664702 
881	 0.192758207997677 
882	 0.189991144264681 
883	 0.191713828725567 
884	 0.19555391832058 
885	 0.197483239640281 
886	 0.195756207533299 
887	 0.196431838084851 
888	 0.197200642042933 
889	 0.194244399166082 
890	 0.19387212736824 
891	 0.195908225129729 
892	 0.194783913542673 
893	 0.194663147086003 
894	 0.196773408352569 
895	 0.196060407380561 
896	 0.193838481141475 
897	 0.192640066514814 
898	 0.198261793926967 
899	 0.206200460453375 
900	 0.201509077988941 
901	 0.20199043415931 
902	 0.209753278038597 
903	 0.207400017058349 
904	 0.201785041888866 
905	 0.199074649214326 
906	 0.200862524226131 
907	 0.204862246277454 
908	 0.206217878544226 
909	 0.206922122308589 
910	 0.207427577438364 
911	 0.206979886077799 
912	 0.20991403323602 
913	 0.217335762467847 
914	 0.219162341686756 
915	 0.216888246215615 
916	 0.214131035230971 
917	 0.216163777872324 
918	 0.220701067655822 
919	 0.218550752056632 
920	 0.217626903346816 
921	 0.218174953913144 
922	 0.206260228631016 
923	 0.1979432186303 
924	 0.206813432974606 
925	 0.215881388432257 
926	 0.220337372067628 
927	 0.21626424964709 
928	 0.212210890664045 
929	 0.211893994709854 
930	 0.215524420970513 
931	 0.22093241341064 
932	 0.224307113932084 
933	 0.212496747757957 
934	 0.19744854508089 
935	 0.20135816430004 
936	 0.203740911112658 
937	 0.203550138001008 
938	 0.212475000192412 
939	 0.216315469880119 
940	 0.211879847732674 
941	 0.205648960089032 
942	 0.201390468746821 
943	 0.201595870379791 
944	 0.205927153825638 
945	 0.213170144217434 
946	 0.220543558607146 
947	 0.217907810245105 
948	 0.206604963904227 
949	 0.199158360765121 
950	 0.195872977386666 
951	 0.197323004064161 
952	 0.204652728542064 
953	 0.211480905814634 
954	 0.211635944764757 
955	 0.206285121213091 
956	 0.200932187914369 
957	 0.20398611965272 
958	 0.20646834865331 
959	 0.206906181395827 
960	 0.208804754600725 
961	 0.214902490708847 
962	 0.222686360807919 
963	 0.212530322597167 
964	 0.20142524736346 
965	 0.205437022626435 
966	 0.207938173449084 
967	 0.207316920855526 
968	 0.206048581592128 
969	 0.207109452621548 
970	 0.210401156999403 
971	 0.211467630038077 
972	 0.214708443694503 
973	 0.220832772489446 
974	 0.216735622697407 
975	 0.21313983239877 
976	 0.222419359184887 
977	 0.225816024751759 
978	 0.224680464101848 
979	 0.230354725345642 
980	 0.225841414001524 
981	 0.212127161816742 
982	 0.212121683080849 
983	 0.217674011945609 
984	 0.223403946259874 
985	 0.228178825839725 
986	 0.227664371910702 
987	 0.218945615078693 
988	 0.21811826480516 
989	 0.223215599157682 
990	 0.224362293873545 
991	 0.221591916659747 
992	 0.218502219169825 
993	 0.229285720529632 
994	 0.237500128860223 
995	 0.235681180854714 
996	 0.231943303443325 
997	 0.224781068108783 
998	 0.213764221455922 
999	 0.220318484752893 
1000	 0.232832426230938 
1001	 0.22587776447993 
1002	 0.225799612851281 
1003	 0.233756736742502 
1004	 0.230838020952946 
1005	 0.225977824579911 
1006	 0.223303936300187 
1007	 0.224490724461515 
1008	 0.223863407173229 
1009	 0.219121937717519 
1010	 0.231676261043691 
1011	 0.238340559590625 
1012	 0.204973400358139 
1013	 0.204608437857474 
1014	 0.231220625262768 
1015	 0.230527449939376 
1016	 0.237027310855938 
1017	 0.252538549267865 
1018	 0.243522381182633 
1019	 0.235376204365436 
1020	 0.240752198015532 
1021	 0.241981126814179 
1022	 0.242854296425303 
1023	 0.247389894292576 
1024	 0.243616285441854 
1025	 0.232860754977629 
1026	 0.222491633761248 
1027	 0.223640703892259 
1028	 0.233410435254975 
1029	 0.239264155647636 
1030	 0.228693455073992 
1031	 0.206236283203483 
1032	 0.212912984298864 
1033	 0.228229812732396 
1034	 0.237889958196072 
1035	 0.23947123987315 
1036	 0.242514361242438 
1037	 0.256085953288693 
1038	 0.263539163501374 
1039	 0.261003099720957 
1040	 0.246511930620978 
1041	 0.230434316429286 
1042	 0.222832982722514 
1043	 0.241727428095398 
1044	 0.259282138456087 
1045	 0.265669643383012 
1046	 0.274237475551702 
1047	 0.268266370219064 
1048	 0.248226209729921 
1049	 0.265520201462527 
1050	 0.280136058526517 
1051	 0.245916761256148 
1052	 0.206410372514739 
1053	 0.196954903720153 
1054	 0.264403921856113 
1055	 0.295633203503559 
1056	 0.274907860605942 
1057	 0.241508355635177 
1058	 0.233006320596234 
1059	 0.248510354403436 
1060	 0.224804892125102 
1061	 0.238106083879784 
1062	 0.299765353729779 
1063	 0.276327917508784 
1064	 0.256220587060142 
1065	 0.289557005907204 
1066	 0.235022583115331 
1067	 0.165062823970514 
1068	 0.17323601280489 
1069	 0.202015587071691 
1070	 0.21551617994381 
1071	 0.181421971592988 
1072	 0.217725805623453 
1073	 0.279968543395005 
1074	 0.208261155976285 
1075	 0.215772424056777 
