Wavelength	AVEI200118.asd
325	 0.032543492392782 
326	 2.88335504129934E-02 
327	 2.46658919312501E-02 
328	 2.85418253645672E-02 
329	 3.12927822934569E-02 
330	 3.02317833901229E-02 
331	 3.06138729672853E-02 
332	 3.09078640051243E-02 
333	 2.95103550642021E-02 
334	 3.04202413636467E-02 
335	 3.22728094247793E-02 
336	 3.08824022388438E-02 
337	 2.64732204261795E-02 
338	 2.17728669882253E-02 
339	 2.83694640452924E-02 
340	 3.53038252003048E-02 
341	 3.40013748127212E-02 
342	 3.25281357891161E-02 
343	 0.031759543553519 
344	 3.07496332427006E-02 
345	 0.030637832995581 
346	 3.09973052847738E-02 
347	 2.87179564905071E-02 
348	 2.81988436639801E-02 
349	 3.16118593206796E-02 
350	 3.11021169042807E-02 
351	 2.86045271035943E-02 
352	 2.85902616088185E-02 
353	 3.05288519429451E-02 
354	 3.30664989683762E-02 
355	 3.19027121671374E-02 
356	 3.01686393029777E-02 
357	 2.99460026202929E-02 
358	 3.16687505393678E-02 
359	 3.30899702593047E-02 
360	 3.08903588226966E-02 
361	 2.97565403246306E-02 
362	 3.01843602360469E-02 
363	 2.95084098594218E-02 
364	 2.93830245049039E-02 
365	 0.030518863567385 
366	 3.18938700683114E-02 
367	 3.20766369838131E-02 
368	 2.93874394375893E-02 
369	 2.79292217290138E-02 
370	 2.83874634360589E-02 
371	 2.95259147161968E-02 
372	 3.03493613504713E-02 
373	 3.01619371965307E-02 
374	 2.85743036109388E-02 
375	 2.73480071443642E-02 
376	 2.88003897429618E-02 
377	 2.92800848555113E-02 
378	 2.83275796901403E-02 
379	 2.74422571449077E-02 
380	 2.71689494763423E-02 
381	 2.77747940400755E-02 
382	 2.88108558063093E-02 
383	 2.93816022493421E-02 
384	 2.84623781972841E-02 
385	 2.77068108104327E-02 
386	 2.77578196821783E-02 
387	 2.94043537536308E-02 
388	 2.94538180429589E-02 
389	 0.027111153832984 
390	 2.70372173195397E-02 
391	 2.79492227018688E-02 
392	 2.79028664147712E-02 
393	 2.76258083874671E-02 
394	 2.75194743088769E-02 
395	 2.84863539107377E-02 
396	 2.86855493678888E-02 
397	 2.76258840861869E-02 
398	 2.71414046409957E-02 
399	 2.73287821320659E-02 
400	 2.80379194220269E-02 
401	 2.80970202670313E-02 
402	 2.75516776430415E-02 
403	 2.69475212694278E-02 
404	 2.69463331428562E-02 
405	 2.75437411711569E-02 
406	 2.68790759764064E-02 
407	 2.59049082144556E-02 
408	 2.59664902448194E-02 
409	 2.65910485541653E-02 
410	 2.72423138199938E-02 
411	 2.67120864728326E-02 
412	 2.62484435648184E-02 
413	 2.63988876111079E-02 
414	 2.65598086127984E-02 
415	 2.65237937294831E-02 
416	 2.61090281636405E-02 
417	 2.61019452523447E-02 
418	 2.64748264179531E-02 
419	 2.65489745106746E-02 
420	 2.65075037513827E-02 
421	 2.64617731233929E-02 
422	 2.65001780558793E-02 
423	 2.65699567965071E-02 
424	 2.65808956871354E-02 
425	 2.64490344283669E-02 
426	 2.62893116560155E-02 
427	 2.66232510711246E-02 
428	 2.67628675789938E-02 
429	 2.63833216561435E-02 
430	 2.67519398516001E-02 
431	 2.73130608817436E-02 
432	 2.68748646847224E-02 
433	 0.026598424307052 
434	 2.66342550774289E-02 
435	 2.62806092022138E-02 
436	 2.60177830444313E-02 
437	 2.61197890327977E-02 
438	 0.025974256122343 
439	 0.025789132400108 
440	 2.61210004051756E-02 
441	 2.62772853392831E-02 
442	 0.026165623190611 
443	 2.63694007754059E-02 
444	 2.65348358767118E-02 
445	 2.63883402297879E-02 
446	 2.63409038946101E-02 
447	 2.63873508073953E-02 
448	 0.026355936353626 
449	 2.63457592196619E-02 
450	 2.63818374773009E-02 
451	 0.026405814583165 
452	 2.65123584941405E-02 
453	 2.67847935263389E-02 
454	 2.70149277394451E-02 
455	 2.70826824650437E-02 
456	 0.026754811315657 
457	 0.026623323477727 
458	 2.68767037189751E-02 
459	 2.69923476052354E-02 
460	 2.69223798516495E-02 
461	 2.66741095447148E-02 
462	 2.65466723021061E-02 
463	 2.65741878311443E-02 
464	 2.66122251151353E-02 
465	 2.66219977731434E-02 
466	 2.65771483257071E-02 
467	 2.64858853612304E-02 
468	 2.64545148397206E-02 
469	 2.66329639707918E-02 
470	 2.66342861305322E-02 
471	 2.65005974643123E-02 
472	 2.67773684971371E-02 
473	 0.027008524164232 
474	 0.026924792607566 
475	 2.69236991019401E-02 
476	 0.026884206672032 
477	 2.64659018803567E-02 
478	 0.026536895512181 
479	 2.70804850522274E-02 
480	 2.69275598001095E-02 
481	 2.65456751863275E-02 
482	 2.63711922921586E-02 
483	 2.66258331766477E-02 
484	 2.70592836047716E-02 
485	 2.69458296399001E-02 
486	 2.70248963059954E-02 
487	 2.74341206850796E-02 
488	 2.74438403401149E-02 
489	 2.73041617942217E-02 
490	 2.73084858793042E-02 
491	 2.70695999092924E-02 
492	 2.67177950250729E-02 
493	 2.67678642309321E-02 
494	 2.68634503752715E-02 
495	 0.026885603646636 
496	 2.71198669489052E-02 
497	 2.73603444027058E-02 
498	 2.73174392579669E-02 
499	 2.73973095397399E-02 
500	 2.76451035830393E-02 
501	 2.78706349401764E-02 
502	 2.79880970149473E-02 
503	 2.79669890590096E-02 
504	 2.79614083168425E-02 
505	 2.82151022239116E-02 
506	 2.91215765611384E-02 
507	 0.02950420388811 
508	 2.92605065698409E-02 
509	 2.94459746195057E-02 
510	 2.98899631287942E-02 
511	 0.030408994536279 
512	 3.08259196435014E-02 
513	 3.09810906390529E-02 
514	 0.03048556834778 
515	 0.030574075513212 
516	 3.15537910668117E-02 
517	 0.032305581782901 
518	 3.27046748677935E-02 
519	 3.27362408849517E-02 
520	 3.28880634139784E-02 
521	 3.33664142885091E-02 
522	 3.44556250803572E-02 
523	 3.52773493213528E-02 
524	 3.54645461304755E-02 
525	 3.55465189514918E-02 
526	 3.58219390611574E-02 
527	 3.66163564172335E-02 
528	 0.0372416217458 
529	 3.75577608453563E-02 
530	 3.78043290321297E-02 
531	 3.80942121550209E-02 
532	 3.84944661235883E-02 
533	 3.88648901391423E-02 
534	 3.91261811417723E-02 
535	 3.91484968202694E-02 
536	 3.93186273927927E-02 
537	 3.96930194667629E-02 
538	 3.98616399754248E-02 
539	 4.00220678487953E-02 
540	 4.03746070976366E-02 
541	 4.07669446889797E-02 
542	 4.10543772696466E-02 
543	 4.08997260318746E-02 
544	 0.040999161954248 
545	 0.041534472698703 
546	 0.041593647325086 
547	 0.041534253506258 
548	 4.19255258539985E-02 
549	 4.20839153949712E-02 
550	 4.20004952126567E-02 
551	 4.22365443894148E-02 
552	 4.24719089088401E-02 
553	 4.25288837221692E-02 
554	 4.27396341829226E-02 
555	 4.29499370211096E-02 
556	 4.27760984206622E-02 
557	 4.27961979984641E-02 
558	 4.30693129420686E-02 
559	 4.29567755847158E-02 
560	 4.27296306982258E-02 
561	 4.26640196105677E-02 
562	 4.26803455682183E-02 
563	 4.27067870298326E-02 
564	 4.25754553131549E-02 
565	 4.25117454888578E-02 
566	 0.042561186153867 
567	 4.24268701048225E-02 
568	 4.21353274202185E-02 
569	 4.17583393007624E-02 
570	 4.15440581067893E-02 
571	 4.14786932797632E-02 
572	 4.12374957997124E-02 
573	 4.10777698664359E-02 
574	 4.11306900412002E-02 
575	 4.11523898529237E-02 
576	 4.10473275686272E-02 
577	 4.07002992608753E-02 
578	 4.04881295809913E-02 
579	 4.04574552265663E-02 
580	 4.01624923821263E-02 
581	 4.00158558429097E-02 
582	 4.03372197298539E-02 
583	 4.02464133292603E-02 
584	 3.98323779113522E-02 
585	 3.97257742908011E-02 
586	 3.97806590877695E-02 
587	 3.98939438149188E-02 
588	 3.96883764012622E-02 
589	 3.94191722063525E-02 
590	 3.94707727563102E-02 
591	 0.039254947644345 
592	 3.88617315006918E-02 
593	 3.90405079136207E-02 
594	 3.92246514199581E-02 
595	 0.039085017721073 
596	 3.88440844586375E-02 
597	 3.86236002888712E-02 
598	 3.85776273451134E-02 
599	 3.85640802390547E-02 
600	 3.85474450490591E-02 
601	 3.85626178535323E-02 
602	 3.86422400783552E-02 
603	 3.88072706320952E-02 
604	 3.90168622842972E-02 
605	 3.91311100122406E-02 
606	 3.88447375559862E-02 
607	 3.84311696955217E-02 
608	 3.80652958103481E-02 
609	 3.80146051930922E-02 
610	 3.80489971148462E-02 
611	 3.78482573787516E-02 
612	 3.77558495921187E-02 
613	 3.77924045098948E-02 
614	 3.77473708766885E-02 
615	 0.037707931570104 
616	 3.77103333484009E-02 
617	 3.76750359311434E-02 
618	 3.74465465874353E-02 
619	 3.67470721987773E-02 
620	 3.64131310935035E-02 
621	 3.65329915561142E-02 
622	 3.62227045637189E-02 
623	 3.59620320294641E-02 
624	 3.61887539298277E-02 
625	 3.64836856432049E-02 
626	 3.66656922569922E-02 
627	 3.64838628183086E-02 
628	 3.63632658818607E-02 
629	 0.03645065707279 
630	 3.64512765855097E-02 
631	 3.63934228373009E-02 
632	 3.63449828773215E-02 
633	 3.66266302536135E-02 
634	 0.037059284692744 
635	 3.68450611944997E-02 
636	 0.036487827978077 
637	 3.62883894756249E-02 
638	 3.60859167235822E-02 
639	 3.58194914653984E-02 
640	 3.53956112800618E-02 
641	 3.51433013792777E-02 
642	 3.50641477956391E-02 
643	 3.46944981852855E-02 
644	 3.41627856091073E-02 
645	 3.36201890725765E-02 
646	 3.33785455331882E-02 
647	 3.33866384078097E-02 
648	 3.33481180524079E-02 
649	 3.32409454333434E-02 
650	 3.30791753482962E-02 
651	 0.033117866303484 
652	 3.31456670684638E-02 
653	 3.28904320546396E-02 
654	 3.24230792993479E-02 
655	 3.19742603033629E-02 
656	 3.23537749665964E-02 
657	 3.25750869217723E-02 
658	 3.21220503039246E-02 
659	 0.031934999043124 
660	 3.18543453587845E-02 
661	 3.14390100293291E-02 
662	 3.11842944979552E-02 
663	 3.11700179919923E-02 
664	 3.11018469227081E-02 
665	 3.09910588892993E-02 
666	 0.030852439625644 
667	 3.07032860203016E-02 
668	 3.04929016145287E-02 
669	 2.99887598273768E-02 
670	 3.00239232917589E-02 
671	 3.06275698165797E-02 
672	 3.00279512428398E-02 
673	 2.93015036616482E-02 
674	 2.98072774820207E-02 
675	 3.02725461360494E-02 
676	 3.04013661905746E-02 
677	 3.01680357124541E-02 
678	 3.02159585422234E-02 
679	 3.08143131731801E-02 
680	 0.031081452948596 
681	 3.11629453281847E-02 
682	 3.14612654086803E-02 
683	 3.17938375151041E-02 
684	 0.032217306590522 
685	 3.31520030453521E-02 
686	 3.41727336773237E-02 
687	 3.49050300489127E-02 
688	 3.58753825826378E-02 
689	 3.70578671046845E-02 
690	 3.83291847666902E-02 
691	 3.98206924790037E-02 
692	 4.15567509490629E-02 
693	 4.32442998978201E-02 
694	 0.045047710685437 
695	 0.047071799320267 
696	 4.93829507023724E-02 
697	 5.18290777763457E-02 
698	 5.40504947229761E-02 
699	 5.66330097652679E-02 
700	 5.97328500901581E-02 
701	 6.26467837648728E-02 
702	 6.52395851370684E-02 
703	 6.74704788544239E-02 
704	 7.00385030341004E-02 
705	 7.30054919939302E-02 
706	 0.075814909149739 
707	 7.84650871322159E-02 
708	 8.09450470483482E-02 
709	 8.32612608752097E-02 
710	 8.55849485179168E-02 
711	 8.82336667200161E-02 
712	 9.08463806901638E-02 
713	 9.32469652475937E-02 
714	 0.095344577279404 
715	 9.71743609703125E-02 
716	 9.88856557301733E-02 
717	 0.100774177708568 
718	 0.102987381199424 
719	 0.105279503678972 
720	 0.107274378480833 
721	 0.108781759061011 
722	 0.1102053984982 
723	 0.111721154701897 
724	 0.113374461647711 
725	 0.114765755192069 
726	 0.115864843142618 
727	 0.117281054743379 
728	 0.118668450375551 
729	 0.119855672754546 
730	 0.120928742960417 
731	 0.121911221037017 
732	 0.122817170050581 
733	 0.123734998878876 
734	 0.124657453029452 
735	 0.125382840884657 
736	 0.126181503743985 
737	 0.127166467548643 
738	 0.12791365736656 
739	 0.128524376460365 
740	 0.129332086277269 
741	 0.129662251964345 
742	 0.129584192576768 
743	 0.130229305467816 
744	 0.131150831965377 
745	 0.131924597520175 
746	 0.13243956579017 
747	 0.132792813025602 
748	 0.133300875866172 
749	 0.133803179650046 
750	 0.134191660345234 
751	 0.134169580173564 
752	 0.13422503812463 
753	 0.134862286986942 
754	 0.1352240475349 
755	 0.135400116229757 
756	 0.136230042929628 
757	 0.136801628796072 
758	 0.136785302884279 
759	 0.136960702593876 
760	 0.137522433455305 
761	 0.13814097635005 
762	 0.138514571249115 
763	 0.13872017662957 
764	 0.139119215825665 
765	 0.139790265740145 
766	 0.140552254786843 
767	 0.140653295600817 
768	 0.140551122543868 
769	 0.140771268781319 
770	 0.141157850142129 
771	 0.14163523065391 
772	 0.142084344129755 
773	 0.142267746749999 
774	 0.142135342090213 
775	 0.142723943883595 
776	 0.143631474648799 
777	 0.14388621683791 
778	 0.144019438561675 
779	 0.144152261493647 
780	 0.144120300965364 
781	 0.144188700090708 
782	 0.144558511226309 
783	 0.145011375254037 
784	 0.145402946056929 
785	 0.145508224585527 
786	 0.145714171382135 
787	 0.146101551041191 
788	 0.146352119021282 
789	 0.146532475925161 
790	 0.146739222081739 
791	 0.14727116695201 
792	 0.147891674167294 
793	 0.147956192351197 
794	 0.147636260102236 
795	 0.147141526321297 
796	 0.147112212847177 
797	 0.1475477775869 
798	 0.148344755958745 
799	 0.148709226754942 
800	 0.148662941221083 
801	 0.148718654992258 
802	 0.148895191586806 
803	 0.149256521529992 
804	 0.149929687302121 
805	 0.150552713246534 
806	 0.15075098672735 
807	 0.150719946407147 
808	 0.150754336559931 
809	 0.151572082955596 
810	 0.152350884967251 
811	 0.152653485594531 
812	 0.152343284972004 
813	 0.151868319932298 
814	 0.151868322341077 
815	 0.152493303226666 
816	 0.153478273917278 
817	 0.153823060010864 
818	 0.154122800259244 
819	 0.15465720995723 
820	 0.155558607602497 
821	 0.156146860084713 
822	 0.15565228343513 
823	 0.15605090336597 
824	 0.157286279815797 
825	 0.157984187233808 
826	 0.158200454609918 
827	 0.157966146664491 
828	 0.157406111298701 
829	 0.157271668376011 
830	 0.158385471835512 
831	 0.159312421544358 
832	 0.159804832915582 
833	 0.160217518177488 
834	 0.160622430947227 
835	 0.160936852342012 
836	 0.160309461344524 
837	 0.159959763425444 
838	 0.161252476538944 
839	 0.162293555577813 
840	 0.162667534145384 
841	 0.162417507427781 
842	 0.162321491893405 
843	 0.162708263960882 
844	 0.163123832801964 
845	 0.163474991418469 
846	 0.163700330671694 
847	 0.163820898082551 
848	 0.163817265268456 
849	 0.163621014758453 
850	 0.163310308093644 
851	 0.163077160288563 
852	 0.163732937640852 
853	 0.164338321522162 
854	 0.163916307249424 
855	 0.164384646069683 
856	 0.165374414449831 
857	 0.164950266062464 
858	 0.165042298792246 
859	 0.165943289764632 
860	 0.165534799451679 
861	 0.165391373974277 
862	 0.166900123997705 
863	 0.166398067468481 
864	 0.165047511535729 
865	 0.167352827913617 
866	 0.168333860345288 
867	 0.166974291161657 
868	 0.166965416188638 
869	 0.167642769052206 
870	 0.16834843523737 
871	 0.169445326041845 
872	 0.170439014357479 
873	 0.170325223783779 
874	 0.170444294359093 
875	 0.171128577062222 
876	 0.171866956900269 
877	 0.172541715521673 
878	 0.173091009754528 
879	 0.173769046491506 
880	 0.17449762755508 
881	 0.175099219432282 
882	 0.175718293393248 
883	 0.176349532359421 
884	 0.17699381017236 
885	 0.176860178633498 
886	 0.175886150327631 
887	 0.176757139264235 
888	 0.178597425992411 
889	 0.179824506797399 
890	 0.179725950025323 
891	 0.178864234212282 
892	 0.179747956302068 
893	 0.180624562177004 
894	 0.180465444037357 
895	 0.178264913099438 
896	 0.176866828354511 
897	 0.179595035045603 
898	 0.181170397513656 
899	 0.181473272832027 
900	 0.183466414676757 
901	 0.184105549983237 
902	 0.183192826143606 
903	 0.184565730675183 
904	 0.18507741499206 
905	 0.182655900278609 
906	 0.182621382423361 
907	 0.183842948170745 
908	 0.182852878267814 
909	 0.182936962715298 
910	 0.184189570356899 
911	 0.183217275006508 
912	 0.18257006226075 
913	 0.183569709008771 
914	 0.184208264524875 
915	 0.184724960920004 
916	 0.185598936525499 
917	 0.184688649697423 
918	 0.183422873750794 
919	 0.187007820368326 
920	 0.188824236926636 
921	 0.187006715991266 
922	 0.184816505210634 
923	 0.183953426697005 
924	 0.185493832776938 
925	 0.184689209985385 
926	 0.182113777552047 
927	 0.18097473142005 
928	 0.180962096711859 
929	 0.181537736841906 
930	 0.180057575676129 
931	 0.175984248907493 
932	 0.170306962534715 
933	 0.175241171337334 
934	 0.18237420919741 
935	 0.17636541012204 
936	 0.173446317645271 
937	 0.175281494619819 
938	 0.175857653217889 
939	 0.174220714751955 
940	 0.171133639681089 
941	 0.17194095932811 
942	 0.174038163923393 
943	 0.174894308467234 
944	 0.170069121199881 
945	 0.165646730335804 
946	 0.171691244990875 
947	 0.174915320732965 
948	 0.172840973073476 
949	 0.169641473984539 
950	 0.165632378987275 
951	 0.161886813822287 
952	 0.162130062822838 
953	 0.162894752276003 
954	 0.161490335898389 
955	 0.167607845279128 
956	 0.174047668910941 
957	 0.165655104774441 
958	 0.162792512657706 
959	 0.166198758996783 
960	 0.159395184865705 
961	 0.154620505006114 
962	 0.156889449849677 
963	 0.158238256464653 
964	 0.160399503008736 
965	 0.165282594715524 
966	 0.168278843250646 
967	 0.167956064598983 
968	 0.163128093357957 
969	 0.160323511278886 
970	 0.161281943826013 
971	 0.165485882776451 
972	 0.163869838588747 
973	 0.153928947799138 
974	 0.153295128477671 
975	 0.159147591980084 
976	 0.165802029349168 
977	 0.165784934141657 
978	 0.162183266156493 
979	 0.165405305416487 
980	 0.164789681155284 
981	 0.160439583250446 
982	 0.164495256827914 
983	 0.167590259041614 
984	 0.165461290139888 
985	 0.165288304913797 
986	 0.166510646760166 
987	 0.16781739837117 
988	 0.169619126392159 
989	 0.170557039471294 
990	 0.167870774887115 
991	 0.165800731094788 
992	 0.166291533545914 
993	 0.171423051719181 
994	 0.174189718232749 
995	 0.171701906260821 
996	 0.17013137999764 
997	 0.170011138464661 
998	 0.171416082754009 
999	 0.175289697209616 
1000	 0.178356631771205 
1001	 0.174970997616103 
1002	 0.172039959138471 
1003	 0.171448039565662 
1004	 0.172700817003369 
1005	 0.17257151024252 
1006	 0.171280809198361 
1007	 0.177807647654871 
1008	 0.182987316052644 
1009	 0.180004105247798 
1010	 0.176748670921965 
1011	 0.175040470609211 
1012	 0.175797456589048 
1013	 0.178532054457077 
1014	 0.181621848120761 
1015	 0.181855781177593 
1016	 0.180778190541602 
1017	 0.17898950251999 
1018	 0.176789137541085 
1019	 0.174792126354583 
1020	 0.174602524164413 
1021	 0.183571031935542 
1022	 0.189972749494098 
1023	 0.183445560669909 
1024	 0.188888399400803 
1025	 0.196292756610794 
1026	 0.18300758113994 
1027	 0.182513035295175 
1028	 0.193866859115509 
1029	 0.188377973856936 
1030	 0.182881331690763 
1031	 0.182364122553069 
1032	 0.18150286603417 
1033	 0.182154555019353 
1034	 0.185022532940116 
1035	 0.187216016513979 
1036	 0.187342858442841 
1037	 0.184882322736638 
1038	 0.186856199112968 
1039	 0.191143730941744 
1040	 0.19217018225648 
1041	 0.185678813052117 
1042	 0.178021947089351 
1043	 0.193430504398083 
1044	 0.201132960847739 
1045	 0.194049552493898 
1046	 0.195596303569543 
1047	 0.19411669990699 
1048	 0.184156378302374 
1049	 0.175271537106936 
1050	 0.17880789447585 
1051	 0.199527897477752 
1052	 0.188253854926585 
1053	 0.169104985578236 
1054	 0.190245701692034 
1055	 0.184740201667896 
1056	 0.159235738255949 
1057	 0.167105306112867 
1058	 0.168362348701702 
1059	 0.159736833356765 
1060	 0.174192037355857 
1061	 0.192896354384795 
1062	 0.201283102755196 
1063	 0.169302395803206 
1064	 0.14766855717194 
1065	 0.16975881811979 
1066	 0.177618635030036 
1067	 0.177556223712091 
1068	 0.181148234800356 
1069	 0.174679398383294 
1070	 0.164161975697344 
1071	 0.161960438114413 
1072	 0.168154457087083 
1073	 0.180556731159036 
1074	 0.193772107717905 
1075	 0.189035248768698 
