Wavelength	AVEI200023.asd
325	 2.39433114898753E-02 
326	 0.026521755080492 
327	 3.51330528135238E-02 
328	 3.42442380556006E-02 
329	 3.16150229870629E-02 
330	 3.04257424456671E-02 
331	 0.030535594241041 
332	 3.14130345439985E-02 
333	 3.24723408629542E-02 
334	 3.30072776396655E-02 
335	 3.21296193044847E-02 
336	 2.73108657191081E-02 
337	 2.68848878050582E-02 
338	 3.15705739883669E-02 
339	 3.18807712185579E-02 
340	 3.11158996599245E-02 
341	 3.21423190877301E-02 
342	 3.13611129052384E-02 
343	 2.98372189448142E-02 
344	 3.06409287007426E-02 
345	 2.98828360399778E-02 
346	 2.78686225338041E-02 
347	 3.01722988883656E-02 
348	 0.03093497949764 
349	 2.70280569324743E-02 
350	 2.78624394027787E-02 
351	 3.05668830777908E-02 
352	 2.87532474137804E-02 
353	 2.83470789071952E-02 
354	 2.97323493866238E-02 
355	 2.89384303475837E-02 
356	 2.78830114082867E-02 
357	 2.77439841786434E-02 
358	 2.77556621720551E-02 
359	 2.81244449363523E-02 
360	 0.029311329321088 
361	 2.91924893100768E-02 
362	 2.78915381205383E-02 
363	 2.75788018108152E-02 
364	 2.79612692054423E-02 
365	 2.86091373340469E-02 
366	 2.79690533090885E-02 
367	 2.67222357982701E-02 
368	 2.59528064484509E-02 
369	 2.64380130058611E-02 
370	 2.76745692924348E-02 
371	 2.74065422694725E-02 
372	 0.027035511096694 
373	 0.027218333944678 
374	 2.69838499130974E-02 
375	 0.026707668435086 
376	 0.027012561145815 
377	 2.75096199284412E-02 
378	 2.78371591793498E-02 
379	 0.027157037883805 
380	 2.66930601389915E-02 
381	 2.69571660953698E-02 
382	 2.67037536191318E-02 
383	 2.63652010100495E-02 
384	 2.66438005104428E-02 
385	 2.71495125784698E-02 
386	 2.76692192038865E-02 
387	 2.79291233797757E-02 
388	 2.79252247311421E-02 
389	 2.77159407092108E-02 
390	 2.76776653993782E-02 
391	 2.74579146683284E-02 
392	 2.66317640011294E-02 
393	 2.61420673075127E-02 
394	 2.63242848305809E-02 
395	 2.75338138642601E-02 
396	 0.028362562057053 
397	 2.82845904378495E-02 
398	 2.83426797586694E-02 
399	 2.80140343991569E-02 
400	 2.67406691558356E-02 
401	 2.59689053073044E-02 
402	 2.60323259443033E-02 
403	 2.72367043520941E-02 
404	 2.76631437367203E-02 
405	 2.68059669265563E-02 
406	 2.68376762888248E-02 
407	 2.73131894089534E-02 
408	 2.74517107131248E-02 
409	 2.71292202092712E-02 
410	 2.66538587699916E-02 
411	 2.70950296281654E-02 
412	 2.71273829708321E-02 
413	 2.63543768135722E-02 
414	 2.65032364867393E-02 
415	 2.70532696639331E-02 
416	 2.71334329736987E-02 
417	 2.68849487639816E-02 
418	 2.65741864861827E-02 
419	 2.69700818208678E-02 
420	 2.73046601109677E-02 
421	 2.71628462226377E-02 
422	 2.67337323760618E-02 
423	 2.65546504911205E-02 
424	 2.73598282272561E-02 
425	 0.027708962493323 
426	 2.73741575856756E-02 
427	 2.69542058768776E-02 
428	 0.026797534707028 
429	 0.027068884628976 
430	 2.69673156268245E-02 
431	 2.68822245924809E-02 
432	 2.76773212230459E-02 
433	 2.77135193309846E-02 
434	 2.69443125533356E-02 
435	 2.68774837490363E-02 
436	 2.70470480573949E-02 
437	 2.71300683665724E-02 
438	 2.72546133185799E-02 
439	 2.74660509717596E-02 
440	 2.78575529638286E-02 
441	 2.80158413949326E-02 
442	 2.79045240471007E-02 
443	 2.80101173987614E-02 
444	 2.79829767625349E-02 
445	 0.027581407652882 
446	 2.75026686983783E-02 
447	 2.76925610647646E-02 
448	 2.77608713117352E-02 
449	 2.78659167807835E-02 
450	 2.80329832332849E-02 
451	 2.82041106806403E-02 
452	 2.82958882938332E-02 
453	 2.82438282438282E-02 
454	 2.83243067195195E-02 
455	 2.84851089523728E-02 
456	 2.83866613582016E-02 
457	 2.84859222594746E-02 
458	 2.88554395133296E-02 
459	 2.87408046401278E-02 
460	 0.028541143888568 
461	 2.87900789216983E-02 
462	 2.90549948177589E-02 
463	 2.91550312782729E-02 
464	 2.88245975426918E-02 
465	 2.86555557870348E-02 
466	 2.89228796857109E-02 
467	 2.91567100912161E-02 
468	 2.92003627634116E-02 
469	 2.89098231905803E-02 
470	 2.89907167538425E-02 
471	 2.93807608443431E-02 
472	 2.91504892375763E-02 
473	 0.028827917288445 
474	 2.87971034834992E-02 
475	 2.92454346034008E-02 
476	 2.97477316856803E-02 
477	 2.95223965446237E-02 
478	 2.93971818309201E-02 
479	 2.95560405511521E-02 
480	 2.97068249609374E-02 
481	 2.96419346009358E-02 
482	 2.92568804324461E-02 
483	 2.92931181105661E-02 
484	 2.96693632042616E-02 
485	 2.98816184166128E-02 
486	 3.00331281543523E-02 
487	 3.01852711970864E-02 
488	 3.06610733317028E-02 
489	 3.08202663555877E-02 
490	 3.00701434601729E-02 
491	 2.98153661312402E-02 
492	 3.00838683163802E-02 
493	 3.01446843239446E-02 
494	 0.030175769898136 
495	 3.02570292651822E-02 
496	 3.05423890619532E-02 
497	 3.07771465114652E-02 
498	 3.06228418786436E-02 
499	 3.04776004018428E-02 
500	 3.05197212819056E-02 
501	 0.031034146476578 
502	 3.12063881057486E-02 
503	 3.06753523847025E-02 
504	 3.08217654776293E-02 
505	 3.12930103748543E-02 
506	 3.11861344718989E-02 
507	 3.12456318391056E-02 
508	 3.16115776846401E-02 
509	 3.19949455343209E-02 
510	 3.23372599653877E-02 
511	 3.25805442866721E-02 
512	 3.25886451725608E-02 
513	 3.24286091299724E-02 
514	 3.22501666620219E-02 
515	 3.22856046221796E-02 
516	 3.26134822574424E-02 
517	 3.30929304935043E-02 
518	 3.33359813915036E-02 
519	 3.29830795257417E-02 
520	 0.032958491209617 
521	 3.33009771383652E-02 
522	 3.35655674937761E-02 
523	 3.37424231740495E-02 
524	 0.033840968130132 
525	 3.40544735604447E-02 
526	 3.42993763092362E-02 
527	 3.44242980931528E-02 
528	 3.46174665959131E-02 
529	 3.49147765160603E-02 
530	 3.53268782112178E-02 
531	 3.54894164808453E-02 
532	 3.52453009773517E-02 
533	 3.55218367077872E-02 
534	 3.60676370895242E-02 
535	 3.61343942802293E-02 
536	 3.60433773764488E-02 
537	 3.59617901826018E-02 
538	 3.61931268346213E-02 
539	 3.64915122675382E-02 
540	 3.66123228509938E-02 
541	 3.68142405066702E-02 
542	 0.037051885556042 
543	 0.037065190685958 
544	 3.71625893765462E-02 
545	 3.74200847218742E-02 
546	 3.74422192502801E-02 
547	 3.73783993525317E-02 
548	 0.037465895020978 
549	 3.77079788442935E-02 
550	 3.80237533997374E-02 
551	 3.81401831121599E-02 
552	 3.82127993845348E-02 
553	 3.83425539878484E-02 
554	 3.84878404215448E-02 
555	 3.86630150197219E-02 
556	 0.03891632936356 
557	 3.90307327339432E-02 
558	 3.89737759766269E-02 
559	 3.89711088768045E-02 
560	 3.89604200247294E-02 
561	 3.88957187223323E-02 
562	 0.039091927003099 
563	 3.94165056621757E-02 
564	 3.93525142215636E-02 
565	 3.94177899536737E-02 
566	 3.97663978032264E-02 
567	 4.00191555029397E-02 
568	 3.99923808710017E-02 
569	 3.95094503431973E-02 
570	 3.94054509670642E-02 
571	 3.97289770783728E-02 
572	 0.039832430126197 
573	 0.039874779590223 
574	 3.99634122501721E-02 
575	 4.02324128753983E-02 
576	 4.04820294690091E-02 
577	 0.040319741321496 
578	 4.00988424510942E-02 
579	 0.03999003020404 
580	 4.01511556799748E-02 
581	 4.03996278417278E-02 
582	 0.040565630315518 
583	 4.07339953852478E-02 
584	 0.040864745669196 
585	 4.07939288843283E-02 
586	 4.09062199819233E-02 
587	 4.12662908130656E-02 
588	 4.12248648940389E-02 
589	 4.09279195591017E-02 
590	 4.06613435609989E-02 
591	 4.08761542285085E-02 
592	 4.14592542341519E-02 
593	 4.17041270924012E-02 
594	 4.17213850538848E-02 
595	 4.16010814353722E-02 
596	 4.15626256527266E-02 
597	 0.041678121939071 
598	 4.20249945953867E-02 
599	 4.21093237318004E-02 
600	 4.19509828095296E-02 
601	 0.04241502999174 
602	 4.27924261184171E-02 
603	 4.24901227862666E-02 
604	 4.25982114321308E-02 
605	 4.29216165083772E-02 
606	 0.042368964762056 
607	 0.042230544589876 
608	 4.28873816761257E-02 
609	 4.32943091000225E-02 
610	 4.32889126568762E-02 
611	 4.28093226846336E-02 
612	 0.04272901492633 
613	 4.30714440749754E-02 
614	 4.30469028846671E-02 
615	 4.31330484288904E-02 
616	 4.35692593264459E-02 
617	 4.39256827512567E-02 
618	 4.39387587870879E-02 
619	 4.32138507471156E-02 
620	 0.043183009237015 
621	 4.39837201168179E-02 
622	 4.41423499958959E-02 
623	 4.39659263359796E-02 
624	 4.38024745077264E-02 
625	 0.043966336401382 
626	 4.43055088290865E-02 
627	 0.044235943802193 
628	 4.41661768456445E-02 
629	 0.044250976410842 
630	 4.44169684893751E-02 
631	 4.44938738151318E-02 
632	 4.42877310348424E-02 
633	 4.44768569509275E-02 
634	 4.50415433527942E-02 
635	 4.53833987501659E-02 
636	 4.56046355210589E-02 
637	 4.57164489782145E-02 
638	 4.53844786817246E-02 
639	 4.49720269882751E-02 
640	 4.51811564306783E-02 
641	 4.53720585730977E-02 
642	 4.53853795751248E-02 
643	 4.54750885550747E-02 
644	 4.54945646736417E-02 
645	 0.04534251651328 
646	 4.55415282056611E-02 
647	 0.045963748378438 
648	 4.59874804333657E-02 
649	 4.61184613025708E-02 
650	 4.64159659458471E-02 
651	 4.60765336328724E-02 
652	 4.56121421654408E-02 
653	 4.56938452197561E-02 
654	 4.58953249329767E-02 
655	 4.60464509530231E-02 
656	 4.58700967447536E-02 
657	 4.58189959974929E-02 
658	 4.60984892682592E-02 
659	 4.60996333838425E-02 
660	 4.59497765805918E-02 
661	 4.59728712700535E-02 
662	 4.57865650829717E-02 
663	 4.53815761502476E-02 
664	 4.51225597301013E-02 
665	 4.51339393105612E-02 
666	 4.54413911338097E-02 
667	 4.51271071705994E-02 
668	 4.45169062716382E-02 
669	 4.48573769277162E-02 
670	 4.49732753956015E-02 
671	 4.45959393757523E-02 
672	 4.47606948029737E-02 
673	 0.045079923839637 
674	 4.50280881483775E-02 
675	 4.49315819096065E-02 
676	 4.49461950405961E-02 
677	 4.53231132001579E-02 
678	 4.56729485114585E-02 
679	 4.58287536068835E-02 
680	 0.046290346398333 
681	 4.67942558442326E-02 
682	 4.68317565750113E-02 
683	 0.047014584642096 
684	 4.75102523120159E-02 
685	 4.82483968137677E-02 
686	 4.90523152696317E-02 
687	 4.97567457869825E-02 
688	 5.04903229611924E-02 
689	 5.12749178284016E-02 
690	 5.22546793394887E-02 
691	 5.33154115208035E-02 
692	 5.43900129913663E-02 
693	 0.055219320877953 
694	 5.59897091896079E-02 
695	 5.68799245919329E-02 
696	 5.80143470382858E-02 
697	 5.93486749658679E-02 
698	 6.08379115267942E-02 
699	 6.20192585378879E-02 
700	 6.27673641592002E-02 
701	 6.41661219832352E-02 
702	 0.065716135045413 
703	 6.65824521217551E-02 
704	 6.74191211170464E-02 
705	 0.06842283632937 
706	 0.069684185078083 
707	 7.07037751299216E-02 
708	 7.12464236933017E-02 
709	 7.23065255615937E-02 
710	 7.36307974273263E-02 
711	 7.45120830729187E-02 
712	 7.51925842378238E-02 
713	 7.58182683100308E-02 
714	 7.67707068132133E-02 
715	 7.76823128159138E-02 
716	 7.82372415980264E-02 
717	 7.86276537954414E-02 
718	 7.90155579423214E-02 
719	 7.95941805086112E-02 
720	 8.07704952097698E-02 
721	 8.22410691338987E-02 
722	 8.26137181969735E-02 
723	 8.28724969837824E-02 
724	 8.41051795947619E-02 
725	 8.47393684879787E-02 
726	 8.47589980181197E-02 
727	 8.54794746502362E-02 
728	 8.63799898042468E-02 
729	 8.71671802491883E-02 
730	 8.76240324122618E-02 
731	 8.80364837413925E-02 
732	 8.88209727385184E-02 
733	 8.94022715606909E-02 
734	 8.97521165828678E-02 
735	 9.01709170911074E-02 
736	 0.090580344507473 
737	 9.09768302263143E-02 
738	 9.19268184312508E-02 
739	 9.30346863643126E-02 
740	 9.34558628142674E-02 
741	 9.36752565064202E-02 
742	 0.09395208617247 
743	 9.47290378884799E-02 
744	 9.54517861958619E-02 
745	 9.56858749555927E-02 
746	 9.61752395328865E-02 
747	 0.096806465002744 
748	 9.69857712621472E-02 
749	 9.72205152842331E-02 
750	 9.76658034063677E-02 
751	 9.80725256580655E-02 
752	 0.098558821982532 
753	 9.92457011502479E-02 
754	 9.96670035065949E-02 
755	 9.98749461071416E-02 
756	 0.100341644042006 
757	 0.100649538962975 
758	 0.100632350424794 
759	 0.1003498998685 
760	 0.100158758307961 
761	 0.101328200997847 
762	 0.102694682189272 
763	 0.103396700354471 
764	 0.103058389442387 
765	 0.103293769323576 
766	 0.104387702627684 
767	 0.105017740882664 
768	 0.105484139001319 
769	 0.106212440860369 
770	 0.106909159382514 
771	 0.107410732347856 
772	 0.10737862255715 
773	 0.107465528069092 
774	 0.108096660013561 
775	 0.108920460844255 
776	 0.109523493847141 
777	 0.109236269933965 
778	 0.109596918716092 
779	 0.110712855814634 
780	 0.110851564458688 
781	 0.110933166393954 
782	 0.111678199559374 
783	 0.112275951024912 
784	 0.112659388301818 
785	 0.112974451157198 
786	 0.113188779602949 
787	 0.113419827283114 
788	 0.114211611109173 
789	 0.114954459655324 
790	 0.115066810096833 
791	 0.115060503610356 
792	 0.115155403271312 
793	 0.115556925823516 
794	 0.116453926155671 
795	 0.117619848324698 
796	 0.117597965153775 
797	 0.11738946354108 
798	 0.118039225217442 
799	 0.118314074896218 
800	 0.118320774017946 
801	 0.119002287934948 
802	 0.119528454702228 
803	 0.119703818210189 
804	 0.120377384831169 
805	 0.121069080747671 
806	 0.121249601722238 
807	 0.122044036996315 
808	 0.123076940766976 
809	 0.122473780214084 
810	 0.122469993780396 
811	 0.123779832863449 
812	 0.124069293966847 
813	 0.123860406059211 
814	 0.124102301332037 
815	 0.123952082281135 
816	 0.123774227380442 
817	 0.125327674735989 
818	 0.126505219449992 
819	 0.126525501780251 
820	 0.12678145932676 
821	 0.127099257980576 
822	 0.127167455303289 
823	 0.127787460116203 
824	 0.128891385345668 
825	 0.129934235820727 
826	 0.130413277406153 
827	 0.130266275747856 
828	 0.13054530126148 
829	 0.131016207200596 
830	 0.131259842647833 
831	 0.131455441772365 
832	 0.131714644210819 
833	 0.132138783594361 
834	 0.133183844347863 
835	 0.134704698591539 
836	 0.134852133417798 
837	 0.134482462843861 
838	 0.134733629174248 
839	 0.135521265792664 
840	 0.136606534301004 
841	 0.137482981149826 
842	 0.137429348180445 
843	 0.136518431463714 
844	 0.137161105491598 
845	 0.138294845405196 
846	 0.138522224058617 
847	 0.138654538405239 
848	 0.138857579018117 
849	 0.139150211153378 
850	 0.13947897674655 
851	 0.139769749826065 
852	 0.139777777893743 
853	 0.139670893315547 
854	 0.139660600585899 
855	 0.139691106263239 
856	 0.13997780155104 
857	 0.141087150617732 
858	 0.142107998382771 
859	 0.14268643351126 
860	 0.142946949989662 
861	 0.142932874751261 
862	 0.142729460497244 
863	 0.142938499140896 
864	 0.143452096976141 
865	 0.143697184805015 
866	 0.144123340380019 
867	 0.144647086792809 
868	 0.144022425831922 
869	 0.144417195032229 
870	 0.147207596803502 
871	 0.147466041195674 
872	 0.14635810823904 
873	 0.147655902246354 
874	 0.148664027198108 
875	 0.148837472745467 
876	 0.149121335000735 
877	 0.150186124204504 
878	 0.152262850597226 
879	 0.153295182525434 
880	 0.153395788869556 
881	 0.153256555200674 
882	 0.153608545783046 
883	 0.154461378937656 
884	 0.154957449486557 
885	 0.155127504795271 
886	 0.155134920149726 
887	 0.156059496270166 
888	 0.15702989832556 
889	 0.156777882753639 
890	 0.156970317760063 
891	 0.157651411141336 
892	 0.157608818270527 
893	 0.157720003158329 
894	 0.158255349379394 
895	 0.158213418096735 
896	 0.15773331434681 
897	 0.157198232157813 
898	 0.158032420191077 
899	 0.160023465679191 
900	 0.161955931677349 
901	 0.162656127103704 
902	 0.161981259916896 
903	 0.161442122466599 
904	 0.161211954580958 
905	 0.161385672972103 
906	 0.161714866065167 
907	 0.162237323471513 
908	 0.163135179166912 
909	 0.163307595433638 
910	 0.162691251561615 
911	 0.16229221695406 
912	 0.162950756875395 
913	 0.164739440407627 
914	 0.164743962835238 
915	 0.164414840776853 
916	 0.16578154718313 
917	 0.165935102537119 
918	 0.164996630516705 
919	 0.164525398004227 
920	 0.166404278582124 
921	 0.17001313879887 
922	 0.168807542362333 
923	 0.165766674964039 
924	 0.16411994595236 
925	 0.166421769630006 
926	 0.169547307852874 
927	 0.165203804937358 
928	 0.163321453438674 
929	 0.166255700781451 
930	 0.165996476253495 
931	 0.162603658190348 
932	 0.156607850036978 
933	 0.153087126973763 
934	 0.152951920118341 
935	 0.155369654488111 
936	 0.157541690922966 
937	 0.158825204986084 
938	 0.16154764700738 
939	 0.154159330985915 
940	 0.139248469376184 
941	 0.142665793320054 
942	 0.150093096258203 
943	 0.150771543907834 
944	 0.15362305506959 
945	 0.155996990968794 
946	 0.152146682594864 
947	 0.150577823310371 
948	 0.15264464932906 
949	 0.156090265166809 
950	 0.152369662915562 
951	 0.142045266028069 
952	 0.148991722354994 
953	 0.160292133532451 
954	 0.162986391525683 
955	 0.157196684095842 
956	 0.14944645325376 
957	 0.150987099224453 
958	 0.153061249452927 
959	 0.15261314598987 
960	 0.147076715969293 
961	 0.145775079353942 
962	 0.151090065204728 
963	 0.151448179669834 
964	 0.147251071034244 
965	 0.14028513442 
966	 0.13854599847413 
967	 0.142138622263853 
968	 0.148640836858301 
969	 0.149160477600668 
970	 0.14480588341369 
971	 0.150716702652099 
972	 0.153968266724142 
973	 0.149385302701733 
974	 0.151451248339941 
975	 0.156274147654201 
976	 0.157991488218795 
977	 0.153840110349015 
978	 0.148536922625413 
979	 0.15323170063221 
980	 0.154995078872199 
981	 0.15218003512218 
982	 0.153638152648393 
983	 0.156348356438141 
984	 0.157702492419431 
985	 0.152355074048177 
986	 0.147011254264158 
987	 0.148875144319968 
988	 0.151557121011235 
989	 0.154607477806498 
990	 0.159830022723959 
991	 0.15945627951922 
992	 0.154782950868367 
993	 0.15895752582499 
994	 0.162674223833034 
995	 0.161607267196066 
996	 0.160775283191078 
997	 0.161404561762722 
998	 0.163847817413339 
999	 0.161711898621217 
1000	 0.158489949650069 
1001	 0.161946404182966 
1002	 0.168267659001626 
1003	 0.17393986463533 
1004	 0.171692562596874 
1005	 0.166246207526008 
1006	 0.161517465357843 
1007	 0.164709005720527 
1008	 0.172320412462204 
1009	 0.179813493034019 
1010	 0.182933706600667 
1011	 0.177753190062886 
1012	 0.160683271084583 
1013	 0.157699109823927 
1014	 0.168030591008004 
1015	 0.174619199231884 
1016	 0.17292452904646 
1017	 0.163951248124901 
1018	 0.160256659113785 
1019	 0.162758383314564 
1020	 0.171538104157587 
1021	 0.185900014619386 
1022	 0.190522423415644 
1023	 0.17435548993355 
1024	 0.180558672951337 
1025	 0.195339690628659 
1026	 0.184430705378496 
1027	 0.167557097227104 
1028	 0.156894738931318 
1029	 0.176529436336537 
1030	 0.180738670746274 
1031	 0.162136799043385 
1032	 0.164639593820743 
1033	 0.182793496598885 
1034	 0.205955265650341 
1035	 0.19399083123435 
1036	 0.171366782931513 
1037	 0.168466196135784 
1038	 0.176806437924663 
1039	 0.184358273570821 
1040	 0.17473428526122 
1041	 0.16456000842193 
1042	 0.162419985882939 
1043	 0.178426419237119 
1044	 0.186539527457677 
1045	 0.180250693932718 
1046	 0.176604139238251 
1047	 0.181815493083602 
1048	 0.195276081415475 
1049	 0.188764181281725 
1050	 0.178255166245089 
1051	 0.181009317696134 
1052	 0.182113123361048 
1053	 0.184136224267251 
1054	 0.193197909608038 
1055	 0.175087614822663 
1056	 0.144285798787321 
1057	 0.156820850511014 
1058	 0.17437020027386 
1059	 0.186698829047073 
1060	 0.200865002084555 
1061	 0.194279419072438 
1062	 0.167827238271898 
1063	 0.180927993770392 
1064	 0.191744073616847 
1065	 0.172685813391779 
1066	 0.174692793787454 
1067	 0.188830442607019 
1068	 0.197020907923717 
1069	 0.195555572365812 
1070	 0.190606871137155 
1071	 0.194258895589964 
1072	 0.18230665714682 
1073	 0.159530472812971 
1074	 0.156866193964313 
1075	 0.144270594997328 
