Wavelength	AVEI200400.asd
325	 3.60573107257803E-02 
326	 0.032389908569095 
327	 3.26166635702655E-02 
328	 2.74481276278131E-02 
329	 2.59648894513484E-02 
330	 3.00860539466996E-02 
331	 3.19849660086124E-02 
332	 3.17683899148992E-02 
333	 3.02965552819767E-02 
334	 3.20217154017062E-02 
335	 3.48282438308104E-02 
336	 3.17036043541357E-02 
337	 3.03943347689418E-02 
338	 0.032166415993728 
339	 3.00914190458852E-02 
340	 0.030339732315489 
341	 3.71701171522967E-02 
342	 3.80249608484604E-02 
343	 3.45332423725025E-02 
344	 3.35320772671739E-02 
345	 3.19784775307953E-02 
346	 2.99063523506753E-02 
347	 2.95831426576776E-02 
348	 3.10106639548641E-02 
349	 3.35144905520045E-02 
350	 3.16826904892168E-02 
351	 2.90513543864375E-02 
352	 3.24180315483697E-02 
353	 3.36680893174384E-02 
354	 3.18852229757788E-02 
355	 3.15175491279982E-02 
356	 0.031643051450081 
357	 3.16396659830403E-02 
358	 3.13658250112487E-02 
359	 3.11158116474556E-02 
360	 3.13393072139372E-02 
361	 3.23448395000558E-02 
362	 3.34954095865981E-02 
363	 3.24066008743188E-02 
364	 0.031821677192747 
365	 0.032898347463292 
366	 3.24679435714879E-02 
367	 3.17685140446554E-02 
368	 3.28720631541949E-02 
369	 3.31160354752642E-02 
370	 3.22638694214978E-02 
371	 3.14967270993064E-02 
372	 3.17158172331919E-02 
373	 0.033017300254026 
374	 3.21028569779511E-02 
375	 3.07134377723677E-02 
376	 3.16907576551714E-02 
377	 3.34022396470153E-02 
378	 3.45837644524713E-02 
379	 3.24741476639172E-02 
380	 3.09867356208947E-02 
381	 3.18408148028045E-02 
382	 3.15733966425452E-02 
383	 3.10964008347763E-02 
384	 3.19889563584034E-02 
385	 3.14705206979162E-02 
386	 2.98054116693637E-02 
387	 2.99812443597789E-02 
388	 3.00745725364088E-02 
389	 2.95125325299171E-02 
390	 3.05494646244434E-02 
391	 3.17773253018697E-02 
392	 3.14028924872046E-02 
393	 3.06829275844646E-02 
394	 3.02043949106155E-02 
395	 3.07737601257561E-02 
396	 0.031420430000984 
397	 3.15261978496109E-02 
398	 3.03172791053379E-02 
399	 2.91892163650808E-02 
400	 2.95237325307401E-02 
401	 0.029646043850779 
402	 2.96481515984233E-02 
403	 3.07552964370616E-02 
404	 3.11497359971149E-02 
405	 3.03352639916144E-02 
406	 3.01839334392276E-02 
407	 3.03489465513461E-02 
408	 3.01944516263803E-02 
409	 3.02107478643609E-02 
410	 0.030319701109599 
411	 0.029969865958542 
412	 0.029800509878194 
413	 3.00272182183353E-02 
414	 2.98841299512688E-02 
415	 2.97529176195734E-02 
416	 3.02132806339339E-02 
417	 3.04457465548716E-02 
418	 3.03569439862335E-02 
419	 3.02866029086811E-02 
420	 0.030281535114616 
421	 3.03492646227521E-02 
422	 3.02598800453331E-02 
423	 3.02082571142392E-02 
424	 3.05149648946687E-02 
425	 3.06963155520369E-02 
426	 3.06217706118487E-02 
427	 3.03109909217188E-02 
428	 3.00284381261621E-02 
429	 3.00048157274025E-02 
430	 3.05486558841865E-02 
431	 0.031145255259754 
432	 0.030892210793915 
433	 3.05666100281466E-02 
434	 3.04339986359145E-02 
435	 3.05989076810202E-02 
436	 3.06572439242702E-02 
437	 3.03988720386695E-02 
438	 3.05283051898235E-02 
439	 3.08380197611452E-02 
440	 0.030756241057648 
441	 3.06997381272279E-02 
442	 0.030865408436009 
443	 3.15827603803669E-02 
444	 3.20410528947534E-02 
445	 3.16421379559375E-02 
446	 3.13967068688502E-02 
447	 3.13967645931334E-02 
448	 3.14293633353083E-02 
449	 3.14931730511552E-02 
450	 3.15965612915885E-02 
451	 3.18570515373736E-02 
452	 3.20790950265198E-02 
453	 3.20758624901653E-02 
454	 0.032093440195374 
455	 3.22015261775261E-02 
456	 3.24742864210778E-02 
457	 0.032571623652337 
458	 3.24128400312146E-02 
459	 3.24749656978135E-02 
460	 3.25934124736025E-02 
461	 3.25331347222112E-02 
462	 3.27466400965707E-02 
463	 3.31623493560406E-02 
464	 3.32320707495298E-02 
465	 3.33812366022379E-02 
466	 3.37018393316727E-02 
467	 3.31681894945169E-02 
468	 3.26474313317651E-02 
469	 0.033557373116749 
470	 3.38897934490398E-02 
471	 3.34824977963185E-02 
472	 3.37917530161166E-02 
473	 3.41412248289391E-02 
474	 3.41166581629316E-02 
475	 3.40946119136035E-02 
476	 3.40988713460989E-02 
477	 3.40992753008783E-02 
478	 3.38127222473014E-02 
479	 3.34514982979699E-02 
480	 3.42541225915189E-02 
481	 3.49660837589711E-02 
482	 3.45860116102545E-02 
483	 3.40392192558433E-02 
484	 3.36827815623273E-02 
485	 0.033965167812122 
486	 3.42515620890637E-02 
487	 3.43232175268221E-02 
488	 3.44072917474246E-02 
489	 3.46748720975385E-02 
490	 3.52459441170638E-02 
491	 0.035379001030498 
492	 3.51237481455726E-02 
493	 3.49938229892104E-02 
494	 3.50216059163582E-02 
495	 3.52131185169676E-02 
496	 3.53415075181958E-02 
497	 3.55059087248589E-02 
498	 3.58658148280267E-02 
499	 3.59836056809267E-02 
500	 3.58704461770011E-02 
501	 3.58909016920791E-02 
502	 3.62355428788116E-02 
503	 0.0369719415007 
504	 0.037754418326623 
505	 3.81308305461312E-02 
506	 3.74269725085477E-02 
507	 3.72446007609802E-02 
508	 3.78517600452663E-02 
509	 0.038193533699515 
510	 3.85062640050646E-02 
511	 3.89690990185962E-02 
512	 3.91913416139327E-02 
513	 3.92640965344218E-02 
514	 3.95120191499766E-02 
515	 0.039939337358601 
516	 4.05328085850508E-02 
517	 4.11946712865855E-02 
518	 4.16154510341093E-02 
519	 4.15072843157418E-02 
520	 4.16368483189981E-02 
521	 4.21012115732798E-02 
522	 4.27357628719714E-02 
523	 4.31298398219619E-02 
524	 4.31412214069616E-02 
525	 4.32476648324582E-02 
526	 4.35773258617612E-02 
527	 4.42218287978214E-02 
528	 4.48339239408939E-02 
529	 4.53430333987777E-02 
530	 4.60065411135199E-02 
531	 4.62838432060746E-02 
532	 4.59141348999562E-02 
533	 4.59462096270998E-02 
534	 4.63955879668275E-02 
535	 4.69956832274717E-02 
536	 4.73060948682513E-02 
537	 4.72574373027897E-02 
538	 4.73299564051665E-02 
539	 4.76114268033671E-02 
540	 4.81299816806894E-02 
541	 4.82870813452787E-02 
542	 4.82133318361068E-02 
543	 4.86206623927275E-02 
544	 4.89404700029399E-02 
545	 4.90023821469871E-02 
546	 4.93331755988926E-02 
547	 4.96217274806755E-02 
548	 4.94087887804696E-02 
549	 4.94007247661098E-02 
550	 4.96895266736278E-02 
551	 4.99143496927067E-02 
552	 5.02007153485227E-02 
553	 5.05856815509755E-02 
554	 5.07293504606787E-02 
555	 5.07650421871628E-02 
556	 5.10420552549402E-02 
557	 5.11771621078536E-02 
558	 5.11166135689952E-02 
559	 5.11924415725167E-02 
560	 5.13186216204821E-02 
561	 5.14166062216978E-02 
562	 5.17535832565735E-02 
563	 5.21520473343883E-02 
564	 5.20362850750859E-02 
565	 5.19220919514533E-02 
566	 5.19534179887684E-02 
567	 5.15748629046836E-02 
568	 5.12650453689782E-02 
569	 5.16852462094391E-02 
570	 5.20895103287042E-02 
571	 5.22907673298721E-02 
572	 5.24230910956782E-02 
573	 5.23200494516429E-02 
574	 5.19693217054583E-02 
575	 0.052124008387903 
576	 5.24736071862931E-02 
577	 0.052240838708919 
578	 5.21555252814618E-02 
579	 5.23639974406626E-02 
580	 5.24636585036536E-02 
581	 5.25056857915603E-02 
582	 0.052534516303984 
583	 5.22878194534092E-02 
584	 5.20565411662514E-02 
585	 5.28032073105199E-02 
586	 5.29898979347061E-02 
587	 0.05223758834352 
588	 5.24936745033881E-02 
589	 5.31752586417369E-02 
590	 5.32551423675651E-02 
591	 5.33364596730888E-02 
592	 5.35170907609652E-02 
593	 5.36907664453071E-02 
594	 5.37995263255337E-02 
595	 5.37650126883343E-02 
596	 5.32139652062086E-02 
597	 5.27318940403248E-02 
598	 5.34150406347957E-02 
599	 5.39255968787793E-02 
600	 5.39395015568635E-02 
601	 5.40259156886984E-02 
602	 5.41541571756107E-02 
603	 5.42763476499852E-02 
604	 5.43136288291958E-02 
605	 5.42878270516846E-02 
606	 5.43035457890603E-02 
607	 0.054235533841239 
608	 5.40754264429629E-02 
609	 5.40640922997241E-02 
610	 5.41450299492348E-02 
611	 5.42164702297217E-02 
612	 5.42139153556275E-02 
613	 5.41384162807549E-02 
614	 5.41280488189761E-02 
615	 5.38305488373099E-02 
616	 5.31458461267044E-02 
617	 5.30349392766618E-02 
618	 5.33913957334621E-02 
619	 5.38105787380728E-02 
620	 5.39709036745333E-02 
621	 5.37807055491611E-02 
622	 5.33947903631022E-02 
623	 5.32333785133717E-02 
624	 5.36336205599836E-02 
625	 5.38797614137275E-02 
626	 5.39614361580835E-02 
627	 5.42428388392315E-02 
628	 5.45634475429655E-02 
629	 5.48179221017966E-02 
630	 5.47994183573536E-02 
631	 5.47006222227852E-02 
632	 5.47790240046559E-02 
633	 0.054631630495337 
634	 5.44111953775582E-02 
635	 5.49541413957246E-02 
636	 5.52827998021457E-02 
637	 5.49117027123354E-02 
638	 5.49824444885877E-02 
639	 5.52617865563686E-02 
640	 5.50507730919831E-02 
641	 5.49992109848364E-02 
642	 5.52449532329124E-02 
643	 5.55372149529441E-02 
644	 5.55645210484315E-02 
645	 5.50884646090111E-02 
646	 5.46205808684115E-02 
647	 5.43706502901887E-02 
648	 5.46087646751878E-02 
649	 5.47731470718489E-02 
650	 5.46419814303934E-02 
651	 5.44678056919888E-02 
652	 5.43744818037345E-02 
653	 5.44774650754719E-02 
654	 5.43415890768414E-02 
655	 5.40093577813176E-02 
656	 5.41211201875341E-02 
657	 0.053960888170105 
658	 5.32621102196147E-02 
659	 5.32593963877808E-02 
660	 5.34512597709145E-02 
661	 5.28411947217692E-02 
662	 5.20095464981018E-02 
663	 5.12924637355774E-02 
664	 5.12824818282278E-02 
665	 0.051629009277033 
666	 5.19297192780176E-02 
667	 5.12385816868961E-02 
668	 5.00500500500501E-02 
669	 4.99469406994728E-02 
670	 5.00648197854797E-02 
671	 5.00689036375351E-02 
672	 4.97986703196474E-02 
673	 4.96143531055185E-02 
674	 4.99319723620546E-02 
675	 5.01941761377172E-02 
676	 5.03706523001097E-02 
677	 0.050838119411967 
678	 5.10813690668148E-02 
679	 5.09519817226197E-02 
680	 5.14782905271709E-02 
681	 5.24328815852273E-02 
682	 5.32637717157554E-02 
683	 5.40135081496135E-02 
684	 5.47066429140425E-02 
685	 5.54986982061133E-02 
686	 5.65414489614026E-02 
687	 5.79282282277696E-02 
688	 5.90176472934802E-02 
689	 6.00538562186601E-02 
690	 6.21390061555885E-02 
691	 6.41048053311674E-02 
692	 6.56924839641777E-02 
693	 6.71594824258535E-02 
694	 6.90476396156921E-02 
695	 0.071723049605572 
696	 7.37105355116482E-02 
697	 7.50613833988063E-02 
698	 7.67338450670445E-02 
699	 7.87066876276153E-02 
700	 8.08656552644424E-02 
701	 8.24912961873411E-02 
702	 8.40374377568651E-02 
703	 8.62591654957698E-02 
704	 8.78316961305134E-02 
705	 0.0888602294751 
706	 9.07693550810666E-02 
707	 9.25408742847048E-02 
708	 9.35583969711839E-02 
709	 9.44612768235195E-02 
710	 9.55224223862304E-02 
711	 9.70630976007587E-02 
712	 9.85514612338951E-02 
713	 9.98760386810346E-02 
714	 0.101458782963646 
715	 0.102919698109921 
716	 0.103988678521807 
717	 0.105384906566649 
718	 0.106972562534338 
719	 0.107467015845999 
720	 0.108089647075177 
721	 0.109139745950698 
722	 0.109907576025639 
723	 0.110655786692032 
724	 0.111623155477489 
725	 0.11243635024485 
726	 0.113105247774728 
727	 0.114215895430506 
728	 0.115129718253993 
729	 0.11556666956811 
730	 0.115924362976249 
731	 0.116466013969486 
732	 0.117449948274458 
733	 0.118184048688248 
734	 0.118444357954341 
735	 0.11781266537669 
736	 0.117766635717691 
737	 0.119120022710732 
738	 0.119585247209726 
739	 0.119630112088505 
740	 0.120754081594215 
741	 0.121469891632908 
742	 0.121547515295632 
743	 0.122044350568019 
744	 0.122399878557386 
745	 0.122198913311444 
746	 0.122632202393149 
747	 0.123445072882425 
748	 0.123506931393839 
749	 0.12369221105765 
750	 0.124302284010771 
751	 0.125207751162598 
752	 0.126010960289212 
753	 0.126322078502772 
754	 0.126639853203874 
755	 0.126977260427273 
756	 0.126967184543262 
757	 0.12736848670226 
758	 0.12852207504442 
759	 0.129447716751955 
760	 0.130513531897301 
761	 0.131673436421451 
762	 0.132618686483548 
763	 0.132995701454492 
764	 0.13219834435829 
765	 0.131769622852233 
766	 0.13202020509102 
767	 0.131891548493626 
768	 0.13158994120365 
769	 0.131356700717639 
770	 0.132050443101665 
771	 0.133391162424202 
772	 0.133597547604717 
773	 0.133619966639126 
774	 0.134071448857486 
775	 0.134473723314308 
776	 0.134705958599257 
777	 0.134625895951589 
778	 0.135038043177781 
779	 0.135979738744087 
780	 0.136521942756496 
781	 0.136724188093627 
782	 0.13671247821923 
783	 0.137068631086481 
784	 0.137660904793558 
785	 0.137967953471186 
786	 0.138340681168895 
787	 0.138884638758496 
788	 0.139551148797698 
789	 0.14011899873123 
790	 0.14039596064058 
791	 0.140791678588418 
792	 0.141140379864566 
793	 0.140773992946084 
794	 0.140849597105064 
795	 0.141660273879112 
796	 0.142288145595317 
797	 0.142868403261444 
798	 0.143555293221245 
799	 0.143655683456166 
800	 0.143403491348476 
801	 0.143802007057516 
802	 0.14403619463782 
803	 0.143951703132111 
804	 0.144408764972895 
805	 0.14528481309144 
806	 0.146341574150254 
807	 0.146603764997262 
808	 0.146363174834615 
809	 0.147089947401775 
810	 0.147861534954468 
811	 0.14831113934054 
812	 0.148762876141438 
813	 0.149281799899676 
814	 0.149907838497674 
815	 0.150444309103507 
816	 0.150868803914231 
817	 0.15132055490653 
818	 0.151905658092134 
819	 0.15251937111659 
820	 0.152396849790507 
821	 0.151924173742877 
822	 0.151629759635428 
823	 0.152542126674925 
824	 0.153896561600321 
825	 0.152864747302624 
826	 0.152503275582583 
827	 0.153845734860375 
828	 0.154694539410271 
829	 0.155067995046129 
830	 0.155228510584615 
831	 0.154639314658197 
832	 0.154003944811865 
833	 0.155550319782627 
834	 0.156770775807499 
835	 0.156657627550264 
836	 0.156188248509527 
837	 0.156131198652061 
838	 0.15719830274416 
839	 0.157953922614233 
840	 0.158190506548671 
841	 0.158307236654115 
842	 0.158247859569199 
843	 0.158105930146887 
844	 0.158323340941582 
845	 0.158861008153668 
846	 0.159591904954641 
847	 0.159655313333655 
848	 0.159226390477277 
849	 0.159330022976271 
850	 0.159682041099907 
851	 0.1601035691112 
852	 0.160136384939489 
853	 0.160042476891925 
854	 0.160168257923065 
855	 0.160702566564469 
856	 0.161630021683097 
857	 0.163002691933919 
858	 0.163432825196305 
859	 0.16269871303935 
860	 0.162420494622588 
861	 0.162500253407816 
862	 0.162751135857876 
863	 0.163117109052724 
864	 0.163438503085453 
865	 0.163264124806976 
866	 0.164344294951723 
867	 0.16651914778819 
868	 0.166363859419001 
869	 0.165049054063908 
870	 0.163911903775019 
871	 0.165005739092509 
872	 0.166996071919217 
873	 0.166612792435093 
874	 0.166780831108772 
875	 0.168165643890599 
876	 0.170076147565165 
877	 0.17019506909748 
878	 0.167567248013653 
879	 0.168570166046762 
880	 0.171145455266961 
881	 0.170475903885134 
882	 0.171361189621589 
883	 0.173753994833845 
884	 0.172922249553773 
885	 0.172594007958327 
886	 0.174354435260466 
887	 0.173352710254438 
888	 0.171917409727041 
889	 0.173733034567484 
890	 0.174262042732721 
891	 0.173283674599208 
892	 0.173614534568633 
893	 0.174293868351322 
894	 0.174975475770769 
895	 0.17605165758087 
896	 0.177276035917419 
897	 0.178204320218781 
898	 0.177430251617035 
899	 0.175903031468542 
900	 0.176712467471978 
901	 0.177567104197045 
902	 0.178064433579808 
903	 0.180192336973876 
904	 0.180972912480899 
905	 0.178663329555212 
906	 0.179948477400401 
907	 0.182423659100911 
908	 0.179944507721187 
909	 0.177784938863985 
910	 0.177629041478503 
911	 0.179428639455115 
912	 0.180900103805014 
913	 0.180832331515036 
914	 0.181165905145514 
915	 0.181885326270489 
916	 0.18271175834112 
917	 0.183432416787595 
918	 0.183721439927322 
919	 0.18291311289366 
920	 0.181973779217898 
921	 0.18148615888408 
922	 0.182477722440934 
923	 0.182859251822573 
924	 0.180956871520876 
925	 0.180809953904572 
926	 0.18174942735675 
927	 0.180364196208392 
928	 0.183260697399393 
929	 0.190483607157631 
930	 0.188808313648597 
931	 0.186490330321077 
932	 0.190123868380994 
933	 0.189209536494675 
934	 0.185387343049812 
935	 0.18373323674482 
936	 0.179974040287617 
937	 0.1765825040924 
938	 0.181517566917518 
939	 0.189203397129932 
940	 0.194871224580615 
941	 0.189545062247709 
942	 0.182737380480271 
943	 0.181617073862922 
944	 0.183135020108948 
945	 0.187933451161508 
946	 0.197716230392869 
947	 0.191153348985675 
948	 0.174179931641878 
949	 0.184817856027108 
950	 0.192684107927385 
951	 0.186954445695522 
952	 0.18075680789908 
953	 0.180515200614667 
954	 0.18977864792403 
955	 0.190730911415441 
956	 0.186288719426188 
957	 0.186743714332122 
958	 0.188771246915784 
959	 0.189556732268152 
960	 0.182644320286309 
961	 0.176441516422379 
962	 0.175860042541032 
963	 0.184539631112507 
964	 0.190010536436917 
965	 0.182011081325232 
966	 0.179992496473777 
967	 0.183058710930283 
968	 0.183363281499653 
969	 0.179025128238915 
970	 0.173219357139683 
971	 0.180450472562223 
972	 0.182820364739887 
973	 0.174456019639764 
974	 0.185329547325318 
975	 0.195285217548813 
976	 0.181094388121481 
977	 0.179129648503419 
978	 0.187192601887821 
979	 0.185839873531365 
980	 0.185158083892801 
981	 0.18728518822577 
982	 0.190697783573713 
983	 0.190385644641363 
984	 0.185513503176534 
985	 0.188644224189035 
986	 0.190633179898023 
987	 0.181943308790732 
988	 0.1817754580084 
989	 0.187825087556615 
990	 0.188121930876713 
991	 0.188015354257694 
992	 0.188125121700826 
993	 0.185805962557075 
994	 0.184210529592928 
995	 0.185755302802138 
996	 0.194389018832539 
997	 0.200253995010028 
998	 0.194277435042595 
999	 0.188792519156191 
1000	 0.18718671679198 
1001	 0.190976158039293 
1002	 0.194181014849555 
1003	 0.195322814991676 
1004	 0.196397079571106 
1005	 0.192944614538892 
1006	 0.18482506065124 
1007	 0.17937988329417 
1008	 0.181262444578863 
1009	 0.191773976005788 
1010	 0.196514440836411 
1011	 0.195999908258673 
1012	 0.193778770912369 
1013	 0.186948582746373 
1014	 0.180604272987887 
1015	 0.186632096835682 
1016	 0.200185614275091 
1017	 0.212836621068883 
1018	 0.199632115228571 
1019	 0.187866862874749 
1020	 0.191941241662919 
1021	 0.19746208514595 
1022	 0.199090797712983 
1023	 0.193150065164406 
1024	 0.185315361405742 
1025	 0.184525617864964 
1026	 0.201951736771307 
1027	 0.212442786192932 
1028	 0.209339315917237 
1029	 0.192495691174099 
1030	 0.184166390178515 
1031	 0.189249215956905 
1032	 0.18461581325346 
1033	 0.177118463581296 
1034	 0.173683099442783 
1035	 0.188760417343308 
1036	 0.201975815294194 
1037	 0.192624938769789 
1038	 0.197367733293138 
1039	 0.208487369649512 
1040	 0.202605826846283 
1041	 0.201742308288775 
1042	 0.2089453291321 
1043	 0.218397636720413 
1044	 0.204353304152118 
1045	 0.169815742872218 
1046	 0.18018578927589 
1047	 0.210209428695431 
1048	 0.23308454468418 
1049	 0.20595438661537 
1050	 0.177062626312385 
1051	 0.194996799258022 
1052	 0.209238273781633 
1053	 0.208060771814563 
1054	 0.186739067994935 
1055	 0.175838284497513 
1056	 0.187062401307529 
1057	 0.228380367081968 
1058	 0.222651524063507 
1059	 0.174340776303528 
1060	 0.194201005907989 
1061	 0.193414941778627 
1062	 0.147821758112923 
1063	 0.176903571451792 
1064	 0.206434770257434 
1065	 0.190995889734596 
1066	 0.197558467755139 
1067	 0.207369650788871 
1068	 0.192542044432141 
1069	 0.154070107180105 
1070	 0.114155463479725 
1071	 0.119440576338343 
1072	 0.166772453189464 
1073	 0.224518317471997 
1074	 0.224180179859922 
1075	 0.23328702384841 
