Wavelength	AVEI200034.asd
325	 2.72868930271174E-02 
326	 3.04502541641612E-02 
327	 3.91764608533891E-02 
328	 3.57916938660146E-02 
329	 3.00487250570954E-02 
330	 2.65820144130162E-02 
331	 2.77958055591421E-02 
332	 2.94664003481843E-02 
333	 2.78263478638541E-02 
334	 3.04610610420261E-02 
335	 3.46398720008747E-02 
336	 3.10265191463479E-02 
337	 2.89516778466297E-02 
338	 3.04095316179364E-02 
339	 3.03298384558894E-02 
340	 2.93894948129899E-02 
341	 2.84443252174402E-02 
342	 2.83094760708567E-02 
343	 2.86886155586344E-02 
344	 2.87950685461316E-02 
345	 2.86074602048434E-02 
346	 2.83241834507952E-02 
347	 2.89245148262349E-02 
348	 2.87289513024024E-02 
349	 2.71778886344297E-02 
350	 3.02107286713509E-02 
351	 3.34469292735246E-02 
352	 2.89540892392058E-02 
353	 2.68879433408252E-02 
354	 2.82892141752021E-02 
355	 2.67875833729497E-02 
356	 2.63921617773378E-02 
357	 2.90212075429901E-02 
358	 2.98137961694054E-02 
359	 2.89034495265018E-02 
360	 2.74236020321579E-02 
361	 2.61392218209202E-02 
362	 2.57179729652473E-02 
363	 2.74492182392298E-02 
364	 2.86229947802517E-02 
365	 2.78872400148732E-02 
366	 2.70134762962805E-02 
367	 2.62078705170042E-02 
368	 2.54481837966865E-02 
369	 2.58918778030217E-02 
370	 2.73316789752444E-02 
371	 2.84471069690385E-02 
372	 2.84364879201783E-02 
373	 2.70937433335851E-02 
374	 2.64108626832939E-02 
375	 2.65729656154428E-02 
376	 0.027449404956214 
377	 0.02802985812081 
378	 2.80631858987336E-02 
379	 2.77466654996267E-02 
380	 2.75783168872372E-02 
381	 2.76881287167524E-02 
382	 2.69858179106244E-02 
383	 2.60792774049329E-02 
384	 2.58757577472478E-02 
385	 2.57335444145402E-02 
386	 2.57828710231803E-02 
387	 2.70339162644811E-02 
388	 2.73208358585456E-02 
389	 2.60448461536084E-02 
390	 2.60227045654652E-02 
391	 2.67775952125332E-02 
392	 2.74394664346817E-02 
393	 2.70760301953089E-02 
394	 2.62814269056496E-02 
395	 0.027487580795803 
396	 2.78623670790063E-02 
397	 2.67139598358306E-02 
398	 0.02751555747138 
399	 2.82193553380925E-02 
400	 0.02658802388241 
401	 2.58996144142475E-02 
402	 2.62646173366073E-02 
403	 2.64942532229498E-02 
404	 2.64402489353389E-02 
405	 2.61221035132392E-02 
406	 2.62392597535772E-02 
407	 2.64449566398191E-02 
408	 2.62494592532798E-02 
409	 2.61690110591586E-02 
410	 2.63475200734598E-02 
411	 2.70033898532714E-02 
412	 2.68720127315772E-02 
413	 2.57239755888773E-02 
414	 2.62124735356644E-02 
415	 2.71060422178935E-02 
416	 2.65197858966873E-02 
417	 2.63267900736663E-02 
418	 2.67675171558646E-02 
419	 2.73077524598255E-02 
420	 2.73672563647587E-02 
421	 2.67293296394122E-02 
422	 2.62711397244822E-02 
423	 2.62880447431528E-02 
424	 2.70371493545046E-02 
425	 2.73506504355628E-02 
426	 2.70707105518856E-02 
427	 2.68521552861696E-02 
428	 2.67460917044703E-02 
429	 2.67753862054182E-02 
430	 2.67026585666322E-02 
431	 2.66918182790819E-02 
432	 0.027079487278673 
433	 2.72419468725188E-02 
434	 2.70461357279868E-02 
435	 2.66620839503708E-02 
436	 2.64638120319552E-02 
437	 2.66727259726974E-02 
438	 2.69661896981812E-02 
439	 2.71710036932952E-02 
440	 2.70547983122434E-02 
441	 2.71184412802617E-02 
442	 2.74023931617213E-02 
443	 0.027390075727528 
444	 2.72639311997339E-02 
445	 2.71932999797788E-02 
446	 2.71542965054935E-02 
447	 2.72183897759461E-02 
448	 2.75644077103161E-02 
449	 2.77856650412373E-02 
450	 2.77753620079603E-02 
451	 2.78180280739243E-02 
452	 2.78395963123753E-02 
453	 2.77654744842245E-02 
454	 2.78638104269164E-02 
455	 2.80778769136054E-02 
456	 2.81012772766076E-02 
457	 2.81293012766392E-02 
458	 2.82396292106974E-02 
459	 2.84310357729707E-02 
460	 0.028523412468385 
461	 2.83193973176161E-02 
462	 2.83781811153314E-02 
463	 2.86174665474642E-02 
464	 2.83252781161792E-02 
465	 2.82056151771538E-02 
466	 2.85572084644166E-02 
467	 2.87509529483742E-02 
468	 2.87017932591007E-02 
469	 2.83966639711701E-02 
470	 2.83765869897259E-02 
471	 2.86577761347846E-02 
472	 0.028726491295902 
473	 2.87121273810531E-02 
474	 2.87075772093145E-02 
475	 2.87689980793682E-02 
476	 2.88802744037081E-02 
477	 2.89900309921379E-02 
478	 2.91771203457983E-02 
479	 2.93969526598272E-02 
480	 2.94338189282214E-02 
481	 2.92710771901956E-02 
482	 2.89433090320735E-02 
483	 2.89486664505192E-02 
484	 2.91654516115963E-02 
485	 2.90629912093191E-02 
486	 2.90872474595181E-02 
487	 2.93774913643947E-02 
488	 2.98067686016929E-02 
489	 3.01005270186897E-02 
490	 3.00076628028755E-02 
491	 2.97601705970887E-02 
492	 2.95723518042475E-02 
493	 2.98650080195533E-02 
494	 3.00919182922564E-02 
495	 3.00426989311862E-02 
496	 3.00410797396075E-02 
497	 3.01471060572668E-02 
498	 3.03979693018677E-02 
499	 3.03524300241472E-02 
500	 0.030117295376943 
501	 0.030450950158128 
502	 0.030804559705772 
503	 3.08477596630196E-02 
504	 3.08236188331397E-02 
505	 3.07949131490034E-02 
506	 3.07965713976714E-02 
507	 0.03097016760326 
508	 3.13519451523525E-02 
509	 3.19701895144557E-02 
510	 0.032305374357807 
511	 3.20062240785409E-02 
512	 0.03197824739074 
513	 3.21866460969967E-02 
514	 3.21668715644663E-02 
515	 3.21042072195431E-02 
516	 3.21521114698897E-02 
517	 3.28451213891299E-02 
518	 3.33405454783531E-02 
519	 3.27543192388142E-02 
520	 3.25948006337198E-02 
521	 3.30126802674566E-02 
522	 3.35527508540852E-02 
523	 3.38654143294871E-02 
524	 3.38129720288034E-02 
525	 0.03379177981574 
526	 3.38929117224673E-02 
527	 3.41742049450801E-02 
528	 3.44221311458272E-02 
529	 3.45972733122503E-02 
530	 3.48247597750743E-02 
531	 3.49703716888163E-02 
532	 3.49787011492631E-02 
533	 3.52074900478373E-02 
534	 3.55233775538016E-02 
535	 3.55631020009731E-02 
536	 0.035585447174295 
537	 3.56825928471205E-02 
538	 3.58655700636194E-02 
539	 3.60932256851314E-02 
540	 3.63201454123818E-02 
541	 3.65073922627709E-02 
542	 3.66421520162017E-02 
543	 3.67089565970174E-02 
544	 3.68408996290161E-02 
545	 3.70711800510221E-02 
546	 3.72197735824095E-02 
547	 3.72695461483286E-02 
548	 3.72198000471557E-02 
549	 3.75652051127163E-02 
550	 3.81438940749723E-02 
551	 3.79692342446623E-02 
552	 3.77645827780722E-02 
553	 3.79744741190639E-02 
554	 3.81908786775426E-02 
555	 3.83943870744509E-02 
556	 3.86615578680944E-02 
557	 3.88668463638662E-02 
558	 3.89293566301862E-02 
559	 3.87272808266263E-02 
560	 3.84373540929066E-02 
561	 3.82635202312524E-02 
562	 3.86408411671414E-02 
563	 3.92717076778029E-02 
564	 3.91694524774948E-02 
565	 3.91226871671459E-02 
566	 3.94055421334944E-02 
567	 3.96516350225646E-02 
568	 3.97419871990495E-02 
569	 3.95715930892168E-02 
570	 3.95228131288889E-02 
571	 3.95875829964966E-02 
572	 3.93241086406219E-02 
573	 3.92264629214853E-02 
574	 3.95604343598121E-02 
575	 3.98539754043709E-02 
576	 0.040029336785784 
577	 4.00858713322632E-02 
578	 4.00111065721385E-02 
579	 0.03986967361342 
580	 3.98791869222371E-02 
581	 4.00705124020011E-02 
582	 4.04329720633341E-02 
583	 4.06184372489159E-02 
584	 4.05953443818116E-02 
585	 4.04317600561941E-02 
586	 0.040449112084149 
587	 4.07280293172774E-02 
588	 4.07755950411478E-02 
589	 4.07053820894663E-02 
590	 4.07291630250273E-02 
591	 4.07933309643393E-02 
592	 4.09222743532846E-02 
593	 0.041250567999383 
594	 4.14322390166122E-02 
595	 4.13176214609519E-02 
596	 4.14859464935879E-02 
597	 4.17895725245053E-02 
598	 4.18508711206277E-02 
599	 4.16683230353841E-02 
600	 4.13989223861252E-02 
601	 4.17537587176013E-02 
602	 4.20866993367232E-02 
603	 4.18440800396533E-02 
604	 0.04180572244782 
605	 4.19646417851641E-02 
606	 4.19063855236115E-02 
607	 4.20193442443892E-02 
608	 4.23757406490532E-02 
609	 0.042432759867777 
610	 4.24414503912513E-02 
611	 4.27726323354527E-02 
612	 4.28599060869783E-02 
613	 0.042718776418062 
614	 4.28697434705123E-02 
615	 4.30812983884719E-02 
616	 4.31941404573751E-02 
617	 4.31425332590718E-02 
618	 4.29969161565121E-02 
619	 4.28728864962337E-02 
620	 4.30424457446815E-02 
621	 4.34313611086829E-02 
622	 4.33439526389231E-02 
623	 4.31114937435561E-02 
624	 0.043057285659462 
625	 0.04307569343376 
626	 4.31722585762359E-02 
627	 4.33844123815694E-02 
628	 4.36780526939461E-02 
629	 4.39956103128918E-02 
630	 4.41838300538985E-02 
631	 4.41934708184421E-02 
632	 4.39926433347509E-02 
633	 4.39668270687168E-02 
634	 4.41833380558013E-02 
635	 4.45299185617516E-02 
636	 4.47537900698153E-02 
637	 4.47109156499251E-02 
638	 4.46057764023909E-02 
639	 4.46005459336331E-02 
640	 4.49475822682998E-02 
641	 4.49593377530761E-02 
642	 0.04465009975678 
643	 4.51119488418975E-02 
644	 4.55817759761157E-02 
645	 4.53916158723606E-02 
646	 4.52985857182431E-02 
647	 4.54350981862314E-02 
648	 4.58011827188695E-02 
649	 4.59671889343599E-02 
650	 4.58023804892223E-02 
651	 4.57475999438886E-02 
652	 4.57832633624941E-02 
653	 4.58365970037188E-02 
654	 4.56430443771144E-02 
655	 0.045316692890396 
656	 4.55413798894675E-02 
657	 4.57517480739624E-02 
658	 4.55906592415186E-02 
659	 4.51527611218314E-02 
660	 4.47774421062305E-02 
661	 4.49896157086999E-02 
662	 0.044985357743269 
663	 4.46675671181508E-02 
664	 4.46929527716846E-02 
665	 4.47587337974749E-02 
666	 0.044598971697395 
667	 4.43548234695495E-02 
668	 4.40841150491547E-02 
669	 4.38287295754081E-02 
670	 4.37321269152582E-02 
671	 4.38496705714817E-02 
672	 4.41449382119721E-02 
673	 4.43284266243278E-02 
674	 4.40956347977822E-02 
675	 4.40489798371514E-02 
676	 0.044274907980686 
677	 4.45880357959688E-02 
678	 4.48215375731665E-02 
679	 4.49260766832672E-02 
680	 4.53261560967097E-02 
681	 4.58397880311633E-02 
682	 0.04610291566524 
683	 4.63501929378179E-02 
684	 4.67160309247996E-02 
685	 4.74464826225412E-02 
686	 4.84275140364386E-02 
687	 4.95026690447336E-02 
688	 5.00708550149146E-02 
689	 5.04448473976502E-02 
690	 5.17486465165251E-02 
691	 5.27801278614719E-02 
692	 5.33806104348282E-02 
693	 5.45932790232414E-02 
694	 0.0559160331025 
695	 5.67285384692778E-02 
696	 5.76598139530025E-02 
697	 0.058817733116478 
698	 6.02348125452313E-02 
699	 6.15534597998705E-02 
700	 0.062602565391421 
701	 6.37532121214595E-02 
702	 6.49169056185186E-02 
703	 6.59224324178497E-02 
704	 6.71434974130254E-02 
705	 6.85184999824476E-02 
706	 6.95269326221487E-02 
707	 7.02478250134636E-02 
708	 7.08159733827304E-02 
709	 0.071922942296867 
710	 0.073290537713495 
711	 7.42411095522497E-02 
712	 7.50256174688546E-02 
713	 7.57128748165445E-02 
714	 7.63230028507741E-02 
715	 7.69650353247282E-02 
716	 7.77602832225747E-02 
717	 7.82032886761859E-02 
718	 7.85173671114706E-02 
719	 7.97048799281568E-02 
720	 8.09378133333255E-02 
721	 8.18321986507796E-02 
722	 8.28294603608182E-02 
723	 8.35102949337162E-02 
724	 0.083294747484275 
725	 0.083887921081823 
726	 8.51934058972234E-02 
727	 8.57003581690386E-02 
728	 8.59188372969888E-02 
729	 8.61457753737914E-02 
730	 0.086600767969931 
731	 8.73123268622108E-02 
732	 8.82511468932469E-02 
733	 8.89848948104581E-02 
734	 8.94712504027266E-02 
735	 8.98804661958854E-02 
736	 9.03150744777745E-02 
737	 9.08828360567161E-02 
738	 0.092059691216159 
739	 9.32155889975215E-02 
740	 9.30668398895516E-02 
741	 9.31735187673878E-02 
742	 9.38735063328085E-02 
743	 0.094413674469683 
744	 9.46992427806356E-02 
745	 9.47256878823347E-02 
746	 0.095185263538744 
747	 9.59540998912057E-02 
748	 9.64555834280003E-02 
749	 0.096811196389078 
750	 9.71268492324226E-02 
751	 0.097830461757387 
752	 9.85618965727132E-02 
753	 9.89054927978993E-02 
754	 9.87730048055351E-02 
755	 9.85976810973479E-02 
756	 9.96903245981776E-02 
757	 0.100512265977898 
758	 0.100445432994448 
759	 0.100361682802397 
760	 0.10072202907497 
761	 0.10222350636332 
762	 0.102720554695759 
763	 0.102352412287126 
764	 0.103141266992496 
765	 0.103783182298591 
766	 0.103931919335867 
767	 0.10433185443743 
768	 0.104872399007841 
769	 0.105385371136319 
770	 0.105839982585585 
771	 0.106275712996329 
772	 0.106912616011454 
773	 0.10748787250215 
774	 0.107862132252632 
775	 0.108546426225233 
776	 0.109188129325075 
777	 0.109010774778118 
778	 0.109202588437362 
779	 0.109950629585592 
780	 0.110344923704122 
781	 0.110762543853809 
782	 0.111484202841093 
783	 0.112017487252017 
784	 0.112366213694571 
785	 0.112731408207158 
786	 0.112912806198907 
787	 0.112978117820498 
788	 0.113544259153618 
789	 0.114057066707207 
790	 0.11401584124582 
791	 0.114337682063352 
792	 0.114899284200963 
793	 0.114924107521714 
794	 0.115313973981579 
795	 0.116238037926931 
796	 0.116871795894611 
797	 0.117160806795426 
798	 0.117135779910434 
799	 0.117222543508323 
800	 0.117583453312578 
801	 0.118424765421348 
802	 0.118920289754958 
803	 0.118903293808133 
804	 0.11955598183909 
805	 0.120348427507382 
806	 0.120636001063067 
807	 0.120735820593444 
808	 0.120816752581562 
809	 0.121152706702502 
810	 0.121572824544308 
811	 0.122002001859026 
812	 0.122490523308603 
813	 0.12286128309116 
814	 0.122867134945643 
815	 0.122652520702623 
816	 0.122600445093343 
817	 0.123617719661039 
818	 0.124960351375933 
819	 0.126120545409933 
820	 0.126653929867205 
821	 0.126831360160875 
822	 0.127000204826826 
823	 0.127391922830707 
824	 0.12798224150379 
825	 0.128579323444263 
826	 0.128875669262938 
827	 0.128911612151686 
828	 0.129778414879489 
829	 0.130705820734013 
830	 0.130648606007301 
831	 0.130678142051662 
832	 0.131000370915582 
833	 0.131380559226356 
834	 0.132272906564276 
835	 0.133613939163204 
836	 0.134021076557379 
837	 0.134087969292338 
838	 0.134603420127815 
839	 0.135187563370163 
840	 0.135704607776514 
841	 0.135951002631647 
842	 0.136307707136195 
843	 0.136830862987427 
844	 0.136774441934923 
845	 0.136811357280563 
846	 0.137687863455526 
847	 0.137475302492943 
848	 0.136646367743549 
849	 0.137757875824125 
850	 0.13874196100882 
851	 0.138792951849696 
852	 0.138576525311267 
853	 0.138415064523754 
854	 0.138588881231824 
855	 0.138478228674218 
856	 0.138553406603027 
857	 0.140505108745339 
858	 0.141133181607854 
859	 0.139969439841836 
860	 0.140733818742062 
861	 0.141855955593691 
862	 0.141727150703037 
863	 0.141932975254798 
864	 0.142356305859183 
865	 0.14199745618749 
866	 0.14211907117201 
867	 0.142920103265423 
868	 0.143205175916133 
869	 0.143191081973048 
870	 0.143194804092264 
871	 0.144055437241247 
872	 0.14548397819538 
873	 0.146742276726234 
874	 0.1469739022445 
875	 0.146261933818046 
876	 0.146031324621309 
877	 0.146868169077776 
878	 0.148874771994088 
879	 0.149337360617497 
880	 0.14932596269931 
881	 0.151227557671886 
882	 0.152070595324511 
883	 0.151631750993414 
884	 0.152141754990708 
885	 0.152325039324842 
886	 0.151810053343825 
887	 0.153066708404083 
888	 0.155023880630404 
889	 0.155926309319261 
890	 0.155897342112137 
891	 0.155306727668765 
892	 0.155272616771297 
893	 0.155694033291659 
894	 0.156251725390807 
895	 0.154932527798264 
896	 0.153665694666307 
897	 0.154900378914943 
898	 0.155989926442952 
899	 0.157065780586054 
900	 0.160263425622731 
901	 0.160951789642079 
902	 0.15849675817054 
903	 0.157161307433331 
904	 0.157681607165976 
905	 0.160109606361433 
906	 0.160114082633241 
907	 0.159236187698369 
908	 0.16146601444108 
909	 0.163240664882277 
910	 0.162942065182557 
911	 0.15829311389218 
912	 0.156740548039578 
913	 0.16158929862417 
914	 0.163063074244294 
915	 0.162523874683787 
916	 0.162879558057269 
917	 0.162106302304888 
918	 0.16076222270264 
919	 0.160977460880652 
920	 0.162325554617531 
921	 0.164298781503609 
922	 0.165327877451974 
923	 0.165356613389415 
924	 0.164382332624517 
925	 0.162272934436157 
926	 0.159864787286694 
927	 0.158878027762783 
928	 0.159995070014897 
929	 0.162720278772179 
930	 0.163420719508354 
931	 0.159473203526981 
932	 0.150034379164267 
933	 0.148288955345669 
934	 0.154106696408147 
935	 0.161969971779358 
936	 0.160186332388386 
937	 0.150193904816426 
938	 0.143732925065825 
939	 0.141544840361186 
940	 0.143272172044756 
941	 0.143720561663815 
942	 0.149106073609022 
943	 0.161578011258126 
944	 0.159812540732767 
945	 0.150418265153697 
946	 0.148448477201648 
947	 0.146918098761393 
948	 0.145452789298314 
949	 0.148053717659767 
950	 0.147253781077119 
951	 0.142054512651284 
952	 0.145443280869889 
953	 0.150861249155686 
954	 0.151738390998799 
955	 0.148175210700317 
956	 0.145225240505016 
957	 0.151881918285657 
958	 0.15191658505928 
959	 0.145527224076951 
960	 0.148473398051492 
961	 0.148477114971134 
962	 0.142181955819703 
963	 0.143717489664443 
964	 0.147705042068589 
965	 0.148081370883158 
966	 0.144941282425341 
967	 0.143401677423401 
968	 0.153501984918756 
969	 0.15556172705417 
970	 0.148224658081174 
971	 0.148274986727729 
972	 0.148737777850816 
973	 0.146595794405222 
974	 0.148301192386249 
975	 0.150886138388734 
976	 0.150785573753936 
977	 0.153236639173974 
978	 0.15631081057532 
979	 0.154133947861793 
980	 0.151106842042252 
981	 0.149365363059674 
982	 0.151358556443631 
983	 0.153427611311304 
984	 0.153708757246234 
985	 0.154572859880402 
986	 0.153940263207862 
987	 0.150012764509122 
988	 0.150250927396544 
989	 0.154151774320041 
990	 0.15813793869735 
991	 0.158950056480095 
992	 0.15736949616291 
993	 0.160531716086795 
994	 0.163350158939304 
995	 0.162902002345467 
996	 0.1588456809216 
997	 0.156029475115263 
998	 0.15878550561971 
999	 0.160343461799198 
1000	 0.161387884466995 
1001	 0.165170581144757 
1002	 0.167581008782337 
1003	 0.167863815754057 
1004	 0.167281657852928 
1005	 0.166738760863969 
1006	 0.166021596106719 
1007	 0.16026827125997 
1008	 0.160795876402761 
1009	 0.173852588132219 
1010	 0.17907669770494 
1011	 0.173384124989187 
1012	 0.157076351463357 
1013	 0.15772576859506 
1014	 0.171436700037708 
1015	 0.172555207621932 
1016	 0.168732285679525 
1017	 0.164077673924848 
1018	 0.167963250005445 
1019	 0.168487421116859 
1020	 0.162230507847277 
1021	 0.172618153845443 
1022	 0.182381986001956 
1023	 0.174979216375946 
1024	 0.174878599701443 
1025	 0.179656558550227 
1026	 0.178575017735237 
1027	 0.168056667953527 
1028	 0.156070119390308 
1029	 0.172113904587293 
1030	 0.175727427199174 
1031	 0.160801694390128 
1032	 0.168953084218135 
1033	 0.175566909332965 
1034	 0.167225487361578 
1035	 0.164097046409608 
1036	 0.167316870991149 
1037	 0.175359135949169 
1038	 0.18010233444369 
1039	 0.179202896046534 
1040	 0.172369080161261 
1041	 0.167897306718877 
1042	 0.167997436464964 
1043	 0.17080437054297 
1044	 0.169585534855022 
1045	 0.163292038548326 
1046	 0.158222939176688 
1047	 0.158855330176034 
1048	 0.165510136840312 
1049	 0.161695530094002 
1050	 0.155915164637452 
1051	 0.157995204555256 
1052	 0.163831290641826 
1053	 0.175813439839927 
1054	 0.197883875317883 
1055	 0.188024520021019 
1056	 0.157231387045255 
1057	 0.160293323570574 
1058	 0.171463240447521 
1059	 0.17998890794021 
1060	 0.174370835306006 
1061	 0.159375024064889 
1062	 0.14332927141047 
1063	 0.153871989460552 
1064	 0.163533632438117 
1065	 0.155149489558953 
1066	 0.165756552066041 
1067	 0.195057087355441 
1068	 0.229941754261438 
1069	 0.226331129148516 
1070	 0.197098922167803 
1071	 0.179605283811265 
1072	 0.155665699669668 
1073	 0.131304833879076 
1074	 0.135638718723187 
1075	 0.135714095084227 
