Wavelength	AVEI200267.asd
325	 7.26515811515124E-02 
326	 7.33640997315341E-02 
327	 8.04438332537978E-02 
328	 7.21104899062921E-02 
329	 6.95662819879446E-02 
330	 7.61636939692497E-02 
331	 6.70854879551953E-02 
332	 5.76216047244626E-02 
333	 0.063363842774377 
334	 0.069758697774445 
335	 7.36104592405573E-02 
336	 7.42508119235806E-02 
337	 7.33543584305057E-02 
338	 7.16528078845202E-02 
339	 6.89221899656304E-02 
340	 0.067510093126307 
341	 6.91201115950084E-02 
342	 7.10543897559468E-02 
343	 7.26013668114561E-02 
344	 7.35013674022493E-02 
345	 7.33867054827754E-02 
346	 7.27822183704471E-02 
347	 7.42756001036831E-02 
348	 7.41724838495393E-02 
349	 7.07736792607649E-02 
350	 7.21885153081864E-02 
351	 0.074948944837406 
352	 7.19313827503593E-02 
353	 7.13291223284113E-02 
354	 7.33143311490019E-02 
355	 7.06544919155418E-02 
356	 6.90707973847307E-02 
357	 7.15661565298578E-02 
358	 7.27040109346801E-02 
359	 7.27294463797065E-02 
360	 7.30282941695905E-02 
361	 7.33428322713405E-02 
362	 7.37571154513849E-02 
363	 7.49271863678876E-02 
364	 7.44621447729683E-02 
365	 0.071822161378908 
366	 7.22553163863438E-02 
367	 7.36127910198477E-02 
368	 7.23795317623599E-02 
369	 7.21175469699604E-02 
370	 7.31514174932843E-02 
371	 7.38930908380628E-02 
372	 7.41473656118288E-02 
373	 7.37471559645961E-02 
374	 7.26240410898786E-02 
375	 7.17369271202188E-02 
376	 7.23017501081065E-02 
377	 7.25064643692737E-02 
378	 7.20484560045172E-02 
379	 7.14538757214932E-02 
380	 7.09527147613378E-02 
381	 7.10814975587215E-02 
382	 7.43775980157582E-02 
383	 7.71649811492877E-02 
384	 0.07455525065902 
385	 7.22137815213027E-02 
386	 7.16007487255599E-02 
387	 7.23783204725941E-02 
388	 7.26216503496503E-02 
389	 0.071765520970091 
390	 7.24195940147775E-02 
391	 7.35800715431666E-02 
392	 7.38401552958148E-02 
393	 7.23734130284567E-02 
394	 7.03799426850263E-02 
395	 7.15247310539217E-02 
396	 7.31712304444552E-02 
397	 7.38320950033529E-02 
398	 0.072432488830447 
399	 7.08610662744888E-02 
400	 0.070989064668712 
401	 7.21299442404634E-02 
402	 7.36440542315536E-02 
403	 7.46449429130886E-02 
404	 7.46061498809967E-02 
405	 7.36389013832725E-02 
406	 0.073855246643216 
407	 7.46259395644233E-02 
408	 7.49327103110332E-02 
409	 7.44234322066494E-02 
410	 7.35000219762768E-02 
411	 7.35334697198329E-02 
412	 0.073691795487098 
413	 7.36867517270338E-02 
414	 7.43575938071703E-02 
415	 7.51341974785182E-02 
416	 7.52181803886625E-02 
417	 7.51816947444095E-02 
418	 7.51798591955644E-02 
419	 7.52586921871061E-02 
420	 7.52999391941517E-02 
421	 7.52527269324616E-02 
422	 7.51528463104505E-02 
423	 7.53532313001265E-02 
424	 7.63631035482392E-02 
425	 7.66389562120486E-02 
426	 7.62696836557881E-02 
427	 7.72481469579793E-02 
428	 7.76619483395286E-02 
429	 0.076564018074448 
430	 7.69826907572706E-02 
431	 7.81508254205688E-02 
432	 7.81286591017768E-02 
433	 7.78234840440932E-02 
434	 7.75949885062604E-02 
435	 7.78688468263544E-02 
436	 7.80203338618696E-02 
437	 7.77370825666562E-02 
438	 7.81900584430996E-02 
439	 7.89919705941286E-02 
440	 7.91563472268333E-02 
441	 0.079114890074935 
442	 7.90569350388763E-02 
443	 0.079222338257405 
444	 0.079495245895809 
445	 7.97976016721309E-02 
446	 8.05278269825066E-02 
447	 8.12838814556961E-02 
448	 8.10149067760397E-02 
449	 8.09369380801692E-02 
450	 8.14192144074849E-02 
451	 0.08207917406998 
452	 8.24857550839173E-02 
453	 8.22670592982878E-02 
454	 8.20327926513277E-02 
455	 8.20326694558704E-02 
456	 8.25683709434124E-02 
457	 8.30389801996103E-02 
458	 8.32065648125283E-02 
459	 0.083430672849396 
460	 8.35316806440476E-02 
461	 8.32853740999679E-02 
462	 8.34701467134214E-02 
463	 8.40684001514301E-02 
464	 8.44581672108965E-02 
465	 8.47528838508045E-02 
466	 8.49493533312082E-02 
467	 8.47276512266208E-02 
468	 8.45127533203655E-02 
469	 8.49587112277592E-02 
470	 8.52159904989918E-02 
471	 8.51786406996953E-02 
472	 8.53156011352514E-02 
473	 8.54920090308788E-02 
474	 8.56481985990728E-02 
475	 8.60731988572473E-02 
476	 8.64010220456085E-02 
477	 8.59312763175539E-02 
478	 0.085612696868804 
479	 8.56923103185928E-02 
480	 0.085810898260548 
481	 8.61443523683152E-02 
482	 8.67828593975403E-02 
483	 8.69587887144596E-02 
484	 8.69581851174066E-02 
485	 8.79069401658283E-02 
486	 8.80604844624152E-02 
487	 8.71488761981718E-02 
488	 8.73902014543515E-02 
489	 8.79087294026414E-02 
490	 8.77098125666006E-02 
491	 8.80001157319171E-02 
492	 8.85805121083297E-02 
493	 8.82768555684494E-02 
494	 8.81178499455021E-02 
495	 8.85022572728175E-02 
496	 8.88979011408368E-02 
497	 0.089251637926008 
498	 8.95636677015416E-02 
499	 8.97228827887669E-02 
500	 8.97851903762387E-02 
501	 9.00229322708729E-02 
502	 9.02741530237313E-02 
503	 9.04431896972418E-02 
504	 9.06374897115153E-02 
505	 0.090756153700456 
506	 9.05743298498119E-02 
507	 9.09122540009453E-02 
508	 9.17848594039414E-02 
509	 9.23055933960963E-02 
510	 9.24356867075527E-02 
511	 9.22385755908139E-02 
512	 9.26006682362543E-02 
513	 9.32895931845395E-02 
514	 9.34300710895214E-02 
515	 9.32805553808716E-02 
516	 9.30898645355698E-02 
517	 9.37732534232114E-02 
518	 9.44417895419858E-02 
519	 9.41157303674687E-02 
520	 9.41891905166528E-02 
521	 9.47400196215222E-02 
522	 9.52006737786988E-02 
523	 9.55526446611283E-02 
524	 9.57707716645783E-02 
525	 0.095851079086404 
526	 0.096033710736082 
527	 9.66531944839657E-02 
528	 9.68909067373553E-02 
529	 0.09673744812631 
530	 9.69506645037194E-02 
531	 9.72491357589951E-02 
532	 9.74437406307918E-02 
533	 9.75859061855233E-02 
534	 9.77477913210212E-02 
535	 9.80596457175579E-02 
536	 9.83705138693384E-02 
537	 9.86479540524249E-02 
538	 9.89855025391398E-02 
539	 9.93480249820381E-02 
540	 9.96856652039673E-02 
541	 9.98458367916698E-02 
542	 9.99092693738213E-02 
543	 0.100183598312791 
544	 0.100378252830978 
545	 0.100426815209879 
546	 0.100679780363432 
547	 0.101057146013377 
548	 0.101413496370646 
549	 0.101506589582889 
550	 0.101427939882227 
551	 0.101683042417098 
552	 0.102133430436307 
553	 0.10261100296895 
554	 0.102461645708158 
555	 0.102174136279362 
556	 0.102829571178921 
557	 0.103479758298929 
558	 0.103737271305294 
559	 0.103354315215491 
560	 0.102988996661798 
561	 0.103245399042113 
562	 0.103651494678906 
563	 0.10405542860435 
564	 0.104376970349632 
565	 0.10438923578324 
566	 0.10409540028236 
567	 0.104164650353145 
568	 0.104387125824055 
569	 0.104412012418344 
570	 0.10458082791404 
571	 0.104893273530054 
572	 0.105062892727284 
573	 0.105292766327639 
574	 0.105666569391059 
575	 0.10580200391132 
576	 0.10578997064181 
577	 0.105868187859316 
578	 0.106292881488793 
579	 0.106851140655998 
580	 0.106197794784072 
581	 0.105670969964245 
582	 0.106404012591179 
583	 0.10673764829704 
584	 0.106571287997014 
585	 0.106382523858481 
586	 0.106589102510687 
587	 0.107215692031339 
588	 0.107043848935729 
589	 0.106652623260673 
590	 0.106951365639402 
591	 0.107121667801461 
592	 0.107018758340021 
593	 0.106786796016833 
594	 0.106855331625945 
595	 0.10736742362358 
596	 0.107220617724639 
597	 0.106815790885531 
598	 0.107111320230652 
599	 0.107399960377435 
600	 0.107518614389395 
601	 0.107798566384808 
602	 0.107739442167295 
603	 0.107004970091692 
604	 0.107261830635641 
605	 0.108038313912394 
606	 0.107304598794371 
607	 0.106798225187224 
608	 0.107088226180852 
609	 0.107105584656762 
610	 0.107176856651608 
611	 0.107810292677188 
612	 0.107792273049115 
613	 0.107212340026227 
614	 0.10746003280976 
615	 0.107542199383661 
616	 0.106992295052286 
617	 0.107210020443447 
618	 0.107755216469842 
619	 0.107518656868155 
620	 0.107667740971455 
621	 0.108210092015033 
622	 0.107639128075299 
623	 0.106977514137982 
624	 0.107166128693371 
625	 0.107418408928211 
626	 0.107511560091063 
627	 0.107155047370092 
628	 0.107376917387349 
629	 0.10835937558689 
630	 0.108487331841515 
631	 0.108125533628328 
632	 0.107915324779214 
633	 0.108029641893317 
634	 0.108266637831473 
635	 0.107644268563176 
636	 0.107567441897898 
637	 0.108640307781376 
638	 0.10846910096713 
639	 0.107806844892012 
640	 0.108603523512743 
641	 0.108767709821416 
642	 0.108083369516853 
643	 0.108526251381232 
644	 0.109129317230998 
645	 0.109008689832301 
646	 0.108916344918795 
647	 0.108801956801625 
648	 0.108041128177644 
649	 0.107993164725887 
650	 0.108916620288126 
651	 0.108884192247574 
652	 0.108442841162156 
653	 0.108433824612011 
654	 0.108146981198209 
655	 0.107738642781353 
656	 0.108386439686421 
657	 0.10878665515556 
658	 0.108204568825273 
659	 0.107440515056691 
660	 0.106774177698404 
661	 0.106484810386204 
662	 0.106076080678892 
663	 0.105543474320048 
664	 0.105533510229186 
665	 0.105498619978639 
666	 0.104973167397649 
667	 0.104212085063564 
668	 0.103555179772114 
669	 0.103665238668799 
670	 0.103960703040017 
671	 0.104177346988053 
672	 0.104243971831914 
673	 0.104138137918399 
674	 0.103858317277379 
675	 0.103567628709969 
676	 0.103516168913684 
677	 0.104337243995997 
678	 0.104966562848064 
679	 0.10489439041978 
680	 0.105017666917923 
681	 0.105384368614648 
682	 0.105885412864131 
683	 0.106594323908907 
684	 0.107317709315704 
685	 0.107233205014941 
686	 0.107405084331464 
687	 0.108731894160336 
688	 0.109646343470254 
689	 0.109959173502178 
690	 0.11010733145905 
691	 0.110746940102519 
692	 0.111861345994279 
693	 0.112009020381312 
694	 0.112007955484104 
695	 0.112769772013418 
696	 0.113784835654077 
697	 0.114613199189418 
698	 0.114380564407023 
699	 0.114193031622637 
700	 0.114613097715501 
701	 0.115504253937304 
702	 0.1160568612176 
703	 0.115228571040332 
704	 0.114964496892294 
705	 0.115461434956243 
706	 0.115616309110887 
707	 0.115532642647133 
708	 0.115353057394609 
709	 0.11575864212684 
710	 0.116425937398407 
711	 0.116591199017793 
712	 0.116695223552297 
713	 0.116866372720574 
714	 0.117077098652967 
715	 0.117310573012882 
716	 0.117595112939837 
717	 0.118434621057867 
718	 0.119558792804031 
719	 0.119578246496218 
720	 0.119352765140187 
721	 0.119182314672025 
722	 0.118392644997399 
723	 0.117923246879147 
724	 0.118912886280308 
725	 0.119229286990606 
726	 0.11881075747927 
727	 0.119329047323854 
728	 0.119709566579822 
729	 0.119452795631306 
730	 0.118989806963847 
731	 0.118653926921462 
732	 0.118792391934747 
733	 0.119219939107763 
734	 0.119694931752041 
735	 0.11961994334669 
736	 0.119567039459853 
737	 0.119819118751348 
738	 0.119267502093565 
739	 0.118493898399143 
740	 0.118860054283373 
741	 0.118914364344799 
742	 0.118529690018568 
743	 0.119159027729729 
744	 0.119802849262275 
745	 0.119624132907708 
746	 0.119468263614556 
747	 0.119474865785209 
748	 0.119565453215548 
749	 0.119989548569575 
750	 0.120616678348351 
751	 0.120306486962525 
752	 0.11986569413664 
753	 0.120206952120932 
754	 0.120600347429328 
755	 0.120833030988781 
756	 0.120771115229486 
757	 0.120562468480176 
758	 0.120314628262574 
759	 0.12037199845465 
760	 0.120875615689198 
761	 0.121522822861728 
762	 0.123117243972873 
763	 0.124624829983622 
764	 0.124031274365534 
765	 0.123055179107899 
766	 0.122448085581181 
767	 0.122151553022011 
768	 0.121983200592083 
769	 0.121759784891982 
770	 0.121812325567518 
771	 0.122089411095006 
772	 0.12213121521483 
773	 0.122056880506817 
774	 0.122051798760451 
775	 0.123104299149987 
776	 0.12413894003682 
777	 0.122962521242227 
778	 0.122508650082081 
779	 0.123227852988283 
780	 0.12294424411707 
781	 0.122435737864765 
782	 0.122365105990408 
783	 0.122424182407371 
784	 0.122739492693781 
785	 0.123772423997313 
786	 0.123941911363627 
787	 0.123035399901135 
788	 0.122860830678622 
789	 0.123240192420151 
790	 0.1238902985615 
791	 0.124600375307641 
792	 0.125080425854598 
793	 0.124839425389558 
794	 0.124366890227043 
795	 0.123966811248832 
796	 0.124134167941318 
797	 0.124165414934416 
798	 0.123430619228254 
799	 0.123995893193668 
800	 0.125345890829789 
801	 0.124926633958193 
802	 0.124766549638634 
803	 0.125418313916376 
804	 0.125329385046038 
805	 0.12517637547639 
806	 0.125735116432747 
807	 0.125503542891603 
808	 0.124646361095157 
809	 0.124458756839837 
810	 0.124690934417873 
811	 0.125172089017992 
812	 0.12531514745214 
813	 0.125175860080466 
814	 0.124938788995869 
815	 0.125542179351291 
816	 0.126860174641601 
817	 0.12774917676544 
818	 0.127727697077633 
819	 0.126848336254528 
820	 0.126564434829659 
821	 0.126540529816147 
822	 0.12627147804652 
823	 0.12660453658373 
824	 0.127102033142787 
825	 0.125856939437455 
826	 0.125878418741483 
827	 0.127903518109187 
828	 0.127979658075063 
829	 0.127165657031045 
830	 0.127207329647747 
831	 0.127082612618647 
832	 0.126844691324757 
833	 0.127261082819236 
834	 0.127213472075698 
835	 0.126482089640584 
836	 0.126745080087076 
837	 0.127265256070548 
838	 0.127077844133635 
839	 0.126669376933757 
840	 0.126328738975563 
841	 0.126666155044191 
842	 0.126471680839296 
843	 0.125539195050909 
844	 0.125916518345128 
845	 0.126702001586368 
846	 0.126702965257671 
847	 0.125944199151013 
848	 0.125181562123186 
849	 0.126700290028557 
850	 0.127630240507877 
851	 0.126891808574096 
852	 0.125676522433993 
853	 0.125720912028588 
854	 0.128415741893254 
855	 0.127584522931986 
856	 0.12451859973602 
857	 0.125683269209757 
858	 0.126581688034416 
859	 0.126018152199209 
860	 0.125604198527473 
861	 0.126236045173997 
862	 0.128435097334335 
863	 0.128467725435255 
864	 0.127059465675525 
865	 0.127754314123211 
866	 0.127625721371394 
867	 0.126318947926224 
868	 0.126896043506088 
869	 0.127200645327316 
870	 0.12568774639499 
871	 0.126083965665315 
872	 0.127445088965325 
873	 0.126814086055361 
874	 0.126348496778856 
875	 0.12672594294378 
876	 0.128079263969508 
877	 0.128782986682577 
878	 0.127885088767776 
879	 0.127868373745433 
880	 0.127864630379151 
881	 0.12587338135608 
882	 0.125623221781123 
883	 0.127210455525931 
884	 0.127167131236648 
885	 0.127129085423557 
886	 0.127973996586461 
887	 0.129309111397924 
888	 0.129943138747848 
889	 0.128424641644161 
890	 0.126555929760615 
891	 0.125366586806821 
892	 0.126447789306207 
893	 0.127507618935481 
894	 0.12743231923644 
895	 0.126886801381462 
896	 0.127401103409119 
897	 0.130527913011774 
898	 0.132584712264114 
899	 0.133132559566553 
900	 0.133551865111063 
901	 0.133490183508022 
902	 0.13268681434643 
903	 0.129887467012654 
904	 0.128294661088235 
905	 0.13002847834375 
906	 0.130387957678129 
907	 0.13000448620843 
908	 0.13144207876219 
909	 0.129753960533265 
910	 0.125665678333054 
911	 0.127896788642395 
912	 0.129491100986805 
913	 0.127043438792195 
914	 0.126803492722713 
915	 0.128401698542485 
916	 0.130485541488055 
917	 0.13175730879361 
918	 0.132070572876155 
919	 0.132636507843522 
920	 0.129119936004024 
921	 0.12299523010092 
922	 0.129805291421136 
923	 0.13529812864068 
924	 0.127132383532227 
925	 0.12252359958724 
926	 0.123898736621762 
927	 0.129768354878874 
928	 0.133617421051218 
929	 0.132739415182177 
930	 0.129474622839576 
931	 0.127594299907384 
932	 0.130560720810202 
933	 0.134988244183739 
934	 0.137086363763207 
935	 0.132585211500868 
936	 0.132689161830506 
937	 0.137030713676968 
938	 0.136504466235451 
939	 0.137885066607126 
940	 0.14170135563492 
941	 0.141989225233001 
942	 0.139595441702194 
943	 0.13532691524585 
944	 0.127420966343726 
945	 0.121892665053268 
946	 0.12871891867087 
947	 0.130992689858018 
948	 0.127043738186662 
949	 0.125197597450581 
950	 0.129114348947984 
951	 0.137906265737377 
952	 0.138681972613436 
953	 0.138324609809484 
954	 0.142596336474796 
955	 0.136282887970529 
956	 0.126425458160438 
957	 0.129177366792566 
958	 0.13380993953766 
959	 0.136079330643337 
960	 0.131165293058959 
961	 0.131335987324346 
962	 0.13923693046829 
963	 0.136576171193943 
964	 0.129572961124607 
965	 0.126029122140738 
966	 0.130350808678416 
967	 0.137666882122742 
968	 0.137320666528437 
969	 0.132778988922214 
970	 0.128035826479523 
971	 0.134864497914575 
972	 0.137203379140894 
973	 0.128941318380127 
974	 0.131846274262008 
975	 0.136901328086667 
976	 0.132756114573506 
977	 0.136520612493891 
978	 0.142039855378353 
979	 0.129625990723087 
980	 0.117620318164444 
981	 0.113939398141797 
982	 0.125748139629486 
983	 0.134270293904788 
984	 0.130854159609174 
985	 0.129567517074887 
986	 0.128404968929636 
987	 0.124408310464196 
988	 0.124098999538248 
989	 0.12654337659064 
990	 0.127348694722327 
991	 0.128911920258657 
992	 0.129874429978529 
993	 0.122093530946027 
994	 0.122472005664521 
995	 0.134679916044075 
996	 0.126674854785593 
997	 0.117128074533443 
998	 0.125000350569577 
999	 0.124848258447552 
1000	 0.121610943571304 
1001	 0.130942154392976 
1002	 0.13417235147588 
1003	 0.129922949944525 
1004	 0.130005678525919 
1005	 0.131496646568876 
1006	 0.1330309638254 
1007	 0.133119755378917 
1008	 0.132142266575621 
1009	 0.129989587727881 
1010	 0.120709063646388 
1011	 0.117266334845869 
1012	 0.136321108073565 
1013	 0.1383798596285 
1014	 0.126476524570628 
1015	 0.130332182110937 
1016	 0.132257632081317 
1017	 0.129941358611296 
1018	 0.135776116048378 
1019	 0.138279684128329 
1020	 0.131729999067349 
1021	 0.123765360142385 
1022	 0.122213202558433 
1023	 0.132531975090666 
1024	 0.136708851703737 
1025	 0.131548201665057 
1026	 0.118208664516451 
1027	 0.125441281478913 
1028	 0.145064038242299 
1029	 0.132128830792212 
1030	 0.126316624878228 
1031	 0.136524662955694 
1032	 0.138747136288474 
1033	 0.138291357114256 
1034	 0.137968683661521 
1035	 0.132056151068346 
1036	 0.12430727305855 
1037	 0.120202344526329 
1038	 0.120813564389675 
1039	 0.123318215546586 
1040	 0.122627719021616 
1041	 0.133212308687896 
1042	 0.147843366920447 
1043	 0.136541127261398 
1044	 0.133392997965426 
1045	 0.141749263866931 
1046	 0.120123425061216 
1047	 0.11053483672909 
1048	 0.131661341472089 
1049	 0.118329785391988 
1050	 0.11033990132125 
1051	 0.145887348644362 
1052	 0.155408546494213 
1053	 0.140995265025994 
1054	 0.120209634474474 
1055	 0.110274004972088 
1056	 0.116307411778536 
1057	 0.132855130323467 
1058	 0.127282601392342 
1059	 9.76041261134154E-02 
1060	 8.26362447070643E-02 
1061	 9.37104341310182E-02 
1062	 0.128620844765772 
1063	 0.169181697341898 
1064	 0.159269673011799 
1065	 0.077796275364946 
1066	 9.47661376018351E-02 
1067	 0.138950171456841 
1068	 0.11858731362143 
1069	 0.127365568471409 
1070	 0.139329101353381 
1071	 9.40711136747559E-02 
1072	 9.03056697313933E-02 
1073	 0.134661937042651 
1074	 0.182090137657929 
1075	 0.165550442812569 
