Wavelength	AVEI200194.asd
325	 5.40815813481417E-02 
326	 4.91936020390211E-02 
327	 3.62531299757756E-02 
328	 3.83150285140837E-02 
329	 4.28597680863105E-02 
330	 4.47919819971856E-02 
331	 4.40097535079287E-02 
332	 0.042954388310301 
333	 0.043841803822248 
334	 4.41397366235877E-02 
335	 4.33968831603922E-02 
336	 0.041435241903082 
337	 3.98410861181177E-02 
338	 3.97875371223039E-02 
339	 4.40936533102583E-02 
340	 4.66855957562106E-02 
341	 4.33953827951204E-02 
342	 0.043376631672073 
343	 4.53208654064356E-02 
344	 4.38464467425317E-02 
345	 4.39631731604333E-02 
346	 4.56746724084974E-02 
347	 0.043741227683566 
348	 4.24463579037264E-02 
349	 4.41153098213159E-02 
350	 4.19569390292194E-02 
351	 3.89770697612679E-02 
352	 4.11927015124173E-02 
353	 0.042511437715779 
354	 4.19219326121926E-02 
355	 4.16304557489802E-02 
356	 4.13200308944572E-02 
357	 4.10524149520945E-02 
358	 4.30343161125612E-02 
359	 4.48414374693539E-02 
360	 4.26057912426337E-02 
361	 4.18149609993008E-02 
362	 4.29028934216009E-02 
363	 0.042534408246425 
364	 4.17431740028977E-02 
365	 4.12819971449443E-02 
366	 4.22402918412097E-02 
367	 4.32886491145696E-02 
368	 4.25770720159823E-02 
369	 0.041773600447825 
370	 4.13258483015819E-02 
371	 4.12896494329733E-02 
372	 4.14580029180946E-02 
373	 4.15112573732274E-02 
374	 4.01409670570024E-02 
375	 3.87769336155123E-02 
376	 3.94684685065096E-02 
377	 0.039885109924718 
378	 3.95107764907084E-02 
379	 3.84778161563977E-02 
380	 3.83600099522568E-02 
381	 3.96901603558118E-02 
382	 4.02101862889745E-02 
383	 4.04319715363152E-02 
384	 4.12802978264999E-02 
385	 4.02736021608449E-02 
386	 3.79783193976273E-02 
387	 3.77758058461921E-02 
388	 3.84812448695755E-02 
389	 3.94009491544163E-02 
390	 4.02617651860465E-02 
391	 4.00150943587293E-02 
392	 0.037644217900184 
393	 3.80446148419113E-02 
394	 0.040453097463808 
395	 3.96587210828061E-02 
396	 3.88891699864895E-02 
397	 0.039200614302 
398	 3.83598704803825E-02 
399	 3.75583185372346E-02 
400	 0.038095454122873 
401	 3.84322914593819E-02 
402	 3.83105612437892E-02 
403	 3.76920837586381E-02 
404	 3.77708313048586E-02 
405	 3.87028070344584E-02 
406	 3.82333289213832E-02 
407	 3.72938640673824E-02 
408	 3.72507140710535E-02 
409	 3.76329277821729E-02 
410	 3.81282003725638E-02 
411	 3.82348596865423E-02 
412	 3.78573782158746E-02 
413	 3.71520508899419E-02 
414	 3.73436337724999E-02 
415	 3.78385592984454E-02 
416	 3.77363524798064E-02 
417	 3.75709425649828E-02 
418	 3.74966688198544E-02 
419	 3.75890805043274E-02 
420	 3.78132314210428E-02 
421	 3.80941892928748E-02 
422	 3.81323163275332E-02 
423	 3.79562164210406E-02 
424	 3.76605077091159E-02 
425	 3.73969030686521E-02 
426	 3.72727831622694E-02 
427	 3.74516700800619E-02 
428	 3.76970759903172E-02 
429	 3.78535042226139E-02 
430	 3.80877230032501E-02 
431	 3.82474074974888E-02 
432	 3.80587584913894E-02 
433	 3.78613838939356E-02 
434	 0.037757459154322 
435	 3.77274913357348E-02 
436	 0.037623015905114 
437	 3.73738854103728E-02 
438	 3.72754156236185E-02 
439	 3.73106374132054E-02 
440	 3.73807557760222E-02 
441	 3.73570890417561E-02 
442	 3.72502919723896E-02 
443	 3.73166147370014E-02 
444	 3.73863984233112E-02 
445	 3.73246998493788E-02 
446	 3.72768960973759E-02 
447	 3.72941142054762E-02 
448	 0.037421243193737 
449	 3.76666080430654E-02 
450	 3.79375440649097E-02 
451	 3.78316026808696E-02 
452	 3.75897590038791E-02 
453	 3.74842662555489E-02 
454	 3.76555759744205E-02 
455	 0.037967248935007 
456	 3.79579767684151E-02 
457	 3.79685699312279E-02 
458	 3.80769558407495E-02 
459	 3.78916032755101E-02 
460	 3.77122277735672E-02 
461	 0.037912409865411 
462	 0.037868031296573 
463	 3.76277722826502E-02 
464	 3.78081080093346E-02 
465	 3.79617547428193E-02 
466	 0.037841635654022 
467	 3.74147234895044E-02 
468	 3.71272824416366E-02 
469	 3.76207395049271E-02 
470	 3.78312941521914E-02 
471	 3.76588840022525E-02 
472	 3.78458750736111E-02 
473	 3.80468077671041E-02 
474	 3.80301746747944E-02 
475	 3.78174294010546E-02 
476	 3.75441240843047E-02 
477	 3.74000567153943E-02 
478	 3.77631997518351E-02 
479	 3.84032367597516E-02 
480	 3.78860939894356E-02 
481	 3.74197598212113E-02 
482	 3.79434235325794E-02 
483	 3.82000884641733E-02 
484	 3.81097301677113E-02 
485	 3.79484819834223E-02 
486	 3.81440572836027E-02 
487	 3.86506106685227E-02 
488	 0.038225616672695 
489	 3.77405732019249E-02 
490	 3.81243447060011E-02 
491	 3.83811628644533E-02 
492	 3.84296005788727E-02 
493	 3.86438934885565E-02 
494	 3.86140734052965E-02 
495	 3.83040420616461E-02 
496	 3.86063210409482E-02 
497	 3.91294053142802E-02 
498	 3.92665869647269E-02 
499	 3.93140454677078E-02 
500	 3.93844448284286E-02 
501	 3.95986071576872E-02 
502	 3.99434217710083E-02 
503	 4.03671177291283E-02 
504	 4.05346400831553E-02 
505	 0.040707413716089 
506	 4.13977462431136E-02 
507	 4.19953955981947E-02 
508	 4.23459894734253E-02 
509	 4.25507529439975E-02 
510	 4.29535748578298E-02 
511	 4.37847377232268E-02 
512	 4.44861312922449E-02 
513	 4.49056049379288E-02 
514	 4.48420601324575E-02 
515	 0.045230297956945 
516	 4.63174757283307E-02 
517	 4.72930832263484E-02 
518	 4.80373955596649E-02 
519	 4.85057245993692E-02 
520	 4.91839207880726E-02 
521	 5.01744037188004E-02 
522	 5.15233746495428E-02 
523	 5.25972005954389E-02 
524	 5.31421135564418E-02 
525	 5.36259308015536E-02 
526	 5.42158611935534E-02 
527	 5.50576415825612E-02 
528	 5.58653454738354E-02 
529	 5.65721850981311E-02 
530	 5.72531361456964E-02 
531	 5.80525398906316E-02 
532	 5.90084907245057E-02 
533	 5.95380024246503E-02 
534	 5.97412667494211E-02 
535	 5.99429868704995E-02 
536	 0.060456598686145 
537	 6.12414467514212E-02 
538	 6.15130387982103E-02 
539	 6.16904834160766E-02 
540	 6.21962051931189E-02 
541	 6.25903875218657E-02 
542	 6.28692857313564E-02 
543	 6.32452226398699E-02 
544	 6.36700170540457E-02 
545	 6.40971642797943E-02 
546	 6.43610199370071E-02 
547	 6.45361412529544E-02 
548	 6.47380945631447E-02 
549	 6.49736655597395E-02 
550	 6.52821159211732E-02 
551	 6.57970763693591E-02 
552	 0.06618477701268 
553	 6.62500860877147E-02 
554	 6.63099523483162E-02 
555	 6.63788770425291E-02 
556	 6.63867513433788E-02 
557	 6.64295825710187E-02 
558	 6.65288343496584E-02 
559	 6.66264737983621E-02 
560	 6.67046782147642E-02 
561	 6.67398026744374E-02 
562	 6.65978226914444E-02 
563	 6.63539490795663E-02 
564	 6.62623452607416E-02 
565	 6.61655922759485E-02 
566	 6.59776545537427E-02 
567	 6.55886417208663E-02 
568	 6.51583021608936E-02 
569	 6.48993030885828E-02 
570	 6.43800122482455E-02 
571	 6.37137241055773E-02 
572	 6.36470914098349E-02 
573	 6.35347144374111E-02 
574	 6.30334544397696E-02 
575	 6.28443414542292E-02 
576	 6.27697303967589E-02 
577	 0.062276466480592 
578	 6.18617565913642E-02 
579	 6.16365568007314E-02 
580	 6.13298419933618E-02 
581	 6.11109600722591E-02 
582	 6.10970219073249E-02 
583	 6.06816784997419E-02 
584	 6.01105006732878E-02 
585	 6.03460496098249E-02 
586	 6.03667083580462E-02 
587	 5.98797400381466E-02 
588	 5.98562384286069E-02 
589	 5.99326011372507E-02 
590	 5.95283280109745E-02 
591	 5.91084277701942E-02 
592	 0.058895443937481 
593	 5.92293229460774E-02 
594	 5.93681458826619E-02 
595	 5.88993645490631E-02 
596	 5.83166537960147E-02 
597	 5.79553214565466E-02 
598	 5.82764229049201E-02 
599	 5.84336847606121E-02 
600	 0.058239134908542 
601	 5.81977055018372E-02 
602	 5.81155772998695E-02 
603	 5.78295015182023E-02 
604	 5.76494899477024E-02 
605	 5.75949050310601E-02 
606	 0.057611472374892 
607	 5.73782054201797E-02 
608	 5.68571882287039E-02 
609	 5.67465535221331E-02 
610	 5.67257556061143E-02 
611	 5.63168828045988E-02 
612	 5.59089790807688E-02 
613	 0.055609427034761 
614	 5.54336862731424E-02 
615	 5.53052785459141E-02 
616	 5.51704182937862E-02 
617	 0.055074206810351 
618	 5.48623112204389E-02 
619	 5.42426719501676E-02 
620	 5.38570750028808E-02 
621	 5.38258418695224E-02 
622	 5.37237759759989E-02 
623	 5.35759174484187E-02 
624	 5.34423500879523E-02 
625	 5.37344441080524E-02 
626	 5.41214491230361E-02 
627	 0.053527812759146 
628	 5.30636811354885E-02 
629	 5.31371820493394E-02 
630	 5.32141498888529E-02 
631	 5.33105982374071E-02 
632	 5.34979376220717E-02 
633	 0.053637033031677 
634	 5.36455379124679E-02 
635	 5.34329232744399E-02 
636	 5.30312832999765E-02 
637	 0.05248745228099 
638	 5.19338357177567E-02 
639	 5.14792719956068E-02 
640	 0.051292037742043 
641	 5.08690706417917E-02 
642	 5.01312059900843E-02 
643	 4.95169028108852E-02 
644	 4.88519657945553E-02 
645	 4.79869454359708E-02 
646	 4.72227341901712E-02 
647	 0.046728624299556 
648	 4.68430909745316E-02 
649	 4.66869785119514E-02 
650	 4.60357686318027E-02 
651	 4.59428559890708E-02 
652	 4.59717428562993E-02 
653	 0.045508318397344 
654	 4.52592887790236E-02 
655	 4.52718097798195E-02 
656	 4.51178928765769E-02 
657	 4.49690962950685E-02 
658	 4.48879502012314E-02 
659	 4.45641653277324E-02 
660	 4.41269078991526E-02 
661	 0.043830645875048 
662	 4.35402146406793E-02 
663	 4.31840521271261E-02 
664	 4.25914493686247E-02 
665	 4.21075165965016E-02 
666	 4.19980536798409E-02 
667	 4.18374683631056E-02 
668	 4.15049496407151E-02 
669	 4.07797171357592E-02 
670	 4.07283955139953E-02 
671	 4.14801463416036E-02 
672	 4.12847289739161E-02 
673	 4.07467689258297E-02 
674	 4.07165655368176E-02 
675	 4.07709699598458E-02 
676	 4.08862910719756E-02 
677	 4.12793798387104E-02 
678	 4.15174860188622E-02 
679	 0.041428863975864 
680	 4.15942828009349E-02 
681	 4.20306400032331E-02 
682	 4.26512899940425E-02 
683	 4.31558365403166E-02 
684	 4.36339454811602E-02 
685	 4.48601200432839E-02 
686	 4.63653240977238E-02 
687	 4.77380166829906E-02 
688	 4.94677515877503E-02 
689	 5.14750327829907E-02 
690	 5.37485039834949E-02 
691	 0.055938025439463 
692	 5.81121958864459E-02 
693	 6.07909424482107E-02 
694	 6.40499164965156E-02 
695	 6.77553812016994E-02 
696	 7.14725944490968E-02 
697	 7.50842629944879E-02 
698	 7.86795583978148E-02 
699	 8.28152888800789E-02 
700	 8.76317848717869E-02 
701	 9.24047023377547E-02 
702	 0.096932290420215 
703	 0.101100995805715 
704	 0.10544150417871 
705	 0.110070180084746 
706	 0.114687494018067 
707	 0.119145146116669 
708	 0.123357814350444 
709	 0.127587838427195 
710	 0.131871491040152 
711	 0.136248399014232 
712	 0.140389483938692 
713	 0.14423145631225 
714	 0.148170381249421 
715	 0.151904410340949 
716	 0.155347903762045 
717	 0.158914925626143 
718	 0.162894804556769 
719	 0.167101616105447 
720	 0.170830933229241 
721	 0.173663563743626 
722	 0.176028870270999 
723	 0.178522696200172 
724	 0.181557884733268 
725	 0.184402529699351 
726	 0.186673897339131 
727	 0.188509177386388 
728	 0.190597321979352 
729	 0.193137714203871 
730	 0.194798862996333 
731	 0.19603488980214 
732	 0.19765399670781 
733	 0.199180239303019 
734	 0.200586668161737 
735	 0.201970903093902 
736	 0.203447829960812 
737	 0.204975025349109 
738	 0.205965372571266 
739	 0.206672220001534 
740	 0.207710773913488 
741	 0.208604618854837 
742	 0.209315827404176 
743	 0.210288003408261 
744	 0.211246949400032 
745	 0.211967734205075 
746	 0.212641957299854 
747	 0.213325157707502 
748	 0.214081221858262 
749	 0.214809053797394 
750	 0.215454349598046 
751	 0.215955562281168 
752	 0.216477850469817 
753	 0.217186745863254 
754	 0.21772823891769 
755	 0.218160884222589 
756	 0.21890592121803 
757	 0.219432479170943 
758	 0.21960390631018 
759	 0.220247811230861 
760	 0.221488418481028 
761	 0.22194664840761 
762	 0.2225255370555 
763	 0.2232509743372 
764	 0.223453292775149 
765	 0.223961883693017 
766	 0.22479684289828 
767	 0.224710335884758 
768	 0.224497156960129 
769	 0.225127270117949 
770	 0.225672458356274 
771	 0.225996092213176 
772	 0.226490787908019 
773	 0.226766607949057 
774	 0.22663558481115 
775	 0.226804405169303 
776	 0.227341223838673 
777	 0.22819391424013 
778	 0.228823219714 
779	 0.229069557360732 
780	 0.229100543532027 
781	 0.229349457785994 
782	 0.230116236761311 
783	 0.230779287735232 
784	 0.231245602454542 
785	 0.231586841311815 
786	 0.231693898239695 
787	 0.231642812379248 
788	 0.23191510195754 
789	 0.232237689091634 
790	 0.232352875597982 
791	 0.232691922690027 
792	 0.233157812405433 
793	 0.233323988483492 
794	 0.233543037776825 
795	 0.233877976840385 
796	 0.233984816916011 
797	 0.234032703159082 
798	 0.234227480083926 
799	 0.234819023323737 
800	 0.235569531233841 
801	 0.23568310269609 
802	 0.235834858426673 
803	 0.236255252994021 
804	 0.236653024872916 
805	 0.236984349717888 
806	 0.237244526584958 
807	 0.23782800503288 
808	 0.23853283181388 
809	 0.23849416892621 
810	 0.238702430884201 
811	 0.239388865782116 
812	 0.239024276375676 
813	 0.238359421121564 
814	 0.238586498968247 
815	 0.239410902624769 
816	 0.240562599550557 
817	 0.241425965543772 
818	 0.242077177736733 
819	 0.242522802761167 
820	 0.24269603881238 
821	 0.242793642787135 
822	 0.243044164330439 
823	 0.243825894322284 
824	 0.244779647968307 
825	 0.244760504190437 
826	 0.244771340416278 
827	 0.245132591255852 
828	 0.244991055747453 
829	 0.244673879937467 
830	 0.244678227550534 
831	 0.24502987200852 
832	 0.245610583926283 
833	 0.246107441762491 
834	 0.24639532132853 
835	 0.246475881633357 
836	 0.246719057327331 
837	 0.247185642458592 
838	 0.247878911954279 
839	 0.248131988224388 
840	 0.247941964300482 
841	 0.247599012234086 
842	 0.248031679494736 
843	 0.249338639380367 
844	 0.24944489285516 
845	 0.249206770778551 
846	 0.249729699793572 
847	 0.249435584838361 
848	 0.24863031474508 
849	 0.249060542774617 
850	 0.249715448859363 
851	 0.250079955467609 
852	 0.249687894865581 
853	 0.249278800437368 
854	 0.249677858444054 
855	 0.25060757074874 
856	 0.251360744792376 
857	 0.250287245219337 
858	 0.249785035950813 
859	 0.250423522250741 
860	 0.250377230147866 
861	 0.250400918401496 
862	 0.251219563167048 
863	 0.251425176563747 
864	 0.251332154118474 
865	 0.252448180157369 
866	 0.252301022748773 
867	 0.250837190017054 
868	 0.251863104379799 
869	 0.253407487979704 
870	 0.253762300454471 
871	 0.254022052618278 
872	 0.254114098279169 
873	 0.253520152394749 
874	 0.254019933981155 
875	 0.2556370899988 
876	 0.256034597448199 
877	 0.256343539359336 
878	 0.257266238637351 
879	 0.257343840100234 
880	 0.257424884632633 
881	 0.259171286039165 
882	 0.260307277141086 
883	 0.260448523253691 
884	 0.26061720649729 
885	 0.260947273565274 
886	 0.261540624207613 
887	 0.262227138696425 
888	 0.263152582031801 
889	 0.26451051699549 
890	 0.264812912799628 
891	 0.264024656893033 
892	 0.263098756374166 
893	 0.263020530184551 
894	 0.264054750569006 
895	 0.26390636991879 
896	 0.263675086806152 
897	 0.264816638163824 
898	 0.264908627259771 
899	 0.264493506384811 
900	 0.266340477613074 
901	 0.266907880887311 
902	 0.265867792553732 
903	 0.267592172832096 
904	 0.268035873110551 
905	 0.264606010560086 
906	 0.264538031461079 
907	 0.266641481991359 
908	 0.266855154251471 
909	 0.267291239255189 
910	 0.267752707433508 
911	 0.265417979909118 
912	 0.264062358242931 
913	 0.265475538728827 
914	 0.265396936124975 
915	 0.264514592961061 
916	 0.264237134214463 
917	 0.264704317336452 
918	 0.26583499434295 
919	 0.267521072540533 
920	 0.267916456597731 
921	 0.266693237177733 
922	 0.265861978932788 
923	 0.265873216538388 
924	 0.266811017955751 
925	 0.265712334727764 
926	 0.263057660021727 
927	 0.261180269136971 
928	 0.258944762999827 
929	 0.256436731148113 
930	 0.255910441711347 
931	 0.253826318134153 
932	 0.247991362661531 
933	 0.248258979401285 
934	 0.249078392927385 
935	 0.240273324144578 
936	 0.238756655245673 
937	 0.243797226898579 
938	 0.242842230488315 
939	 0.24134417435822 
940	 0.23972187982376 
941	 0.232540272569016 
942	 0.227652799297496 
943	 0.229972109004203 
944	 0.230426115203071 
945	 0.230288549029355 
946	 0.233595947951344 
947	 0.231563854420164 
948	 0.225278582675003 
949	 0.226276769134432 
950	 0.223477595608212 
951	 0.214436207837913 
952	 0.213022513144056 
953	 0.213700269344081 
954	 0.211123142692175 
955	 0.214000679788173 
956	 0.217455875734662 
957	 0.21064878173274 
958	 0.208983854844957 
959	 0.212266628375564 
960	 0.205740918873176 
961	 0.20168100510802 
962	 0.204273521805167 
963	 0.200862070394801 
964	 0.199054497905462 
965	 0.205892231089189 
966	 0.206739904563892 
967	 0.204064071565129 
968	 0.207835773687454 
969	 0.208231728544289 
970	 0.20476651730526 
971	 0.205656780130461 
972	 0.206372019708131 
973	 0.204682948969102 
974	 0.202783508147699 
975	 0.203699653762263 
976	 0.209806429254757 
977	 0.210583331175218 
978	 0.207775172220045 
979	 0.209788515015241 
980	 0.20975606291263 
981	 0.207534576122329 
982	 0.210005941770648 
983	 0.211913413703235 
984	 0.210708581784642 
985	 0.20943888951751 
986	 0.208928497361078 
987	 0.209891536489666 
988	 0.214552965164462 
989	 0.218464795506886 
990	 0.211885493129314 
991	 0.2108386403584 
992	 0.217638673494948 
993	 0.22287799580864 
994	 0.224979982860173 
995	 0.223278735617241 
996	 0.220076817462938 
997	 0.218455500367481 
998	 0.220735625763882 
999	 0.221362075310113 
1000	 0.219722885012455 
1001	 0.216474712058102 
1002	 0.216595562580923 
1003	 0.22032152870926 
1004	 0.223919351939604 
1005	 0.225929489040915 
1006	 0.226187958328502 
1007	 0.228292250327612 
1008	 0.231734632304576 
1009	 0.23522571503113 
1010	 0.232781493845939 
1011	 0.228560050319702 
1012	 0.229325417898206 
1013	 0.230405389711361 
1014	 0.231375956288624 
1015	 0.23383570136976 
1016	 0.233773582246671 
1017	 0.231141986998231 
1018	 0.230906288574073 
1019	 0.233386155004085 
1020	 0.237909772773871 
1021	 0.240114974227209 
1022	 0.239541181226261 
1023	 0.236992747791043 
1024	 0.241221623309865 
1025	 0.246465050443392 
1026	 0.241043546256656 
1027	 0.243153681438469 
1028	 0.251608820927733 
1029	 0.250291289867778 
1030	 0.240031598092319 
1031	 0.227196250054819 
1032	 0.237836948485627 
1033	 0.248382728901486 
1034	 0.245829791739076 
1035	 0.256305211709057 
1036	 0.262845163747401 
1037	 0.248030262653312 
1038	 0.246546407602932 
1039	 0.255668618022631 
1040	 0.260025158060936 
1041	 0.262930703484425 
1042	 0.263883353802863 
1043	 0.259721871438297 
1044	 0.25888401425104 
1045	 0.262947946107561 
1046	 0.264631612698833 
1047	 0.259635624287882 
1048	 0.248406595654012 
1049	 0.25050294601862 
1050	 0.25637058567734 
1051	 0.255471047997714 
1052	 0.257867473875241 
1053	 0.258596628524006 
1054	 0.24871065222266 
1055	 0.242375271089051 
1056	 0.242849451400772 
1057	 0.250583130642172 
1058	 0.254010732650516 
1059	 0.251752635211155 
1060	 0.254721392473567 
1061	 0.250697382423037 
1062	 0.238070223197085 
1063	 0.239878636405804 
1064	 0.236692806032304 
1065	 0.219164021477944 
1066	 0.224975908940937 
1067	 0.238953157039629 
1068	 0.240757835775345 
1069	 0.253411234036615 
1070	 0.259035506751226 
1071	 0.226732329000147 
1072	 0.217216510007889 
1073	 0.232624704304788 
1074	 0.239317585061395 
1075	 0.254444381234445 
