Wavelength	AVEI200419.asd
325	 3.45036725882496E-02 
326	 3.03557410894571E-02 
327	 2.87417836784069E-02 
328	 3.10359501464771E-02 
329	 0.028759602616842 
330	 0.022437441152187 
331	 3.20796229266602E-02 
332	 4.11362152787334E-02 
333	 3.39681893396165E-02 
334	 3.22292670301738E-02 
335	 3.50982570123992E-02 
336	 3.13243754006564E-02 
337	 2.91892262723593E-02 
338	 3.05990119560726E-02 
339	 3.14536931612985E-02 
340	 3.36829905380333E-02 
341	 3.84314875678488E-02 
342	 3.97588075311526E-02 
343	 3.81218674340439E-02 
344	 3.61797163876934E-02 
345	 0.033467583228128 
346	 3.08221012228867E-02 
347	 3.09465353697988E-02 
348	 0.031554654469885 
349	 3.10635473931043E-02 
350	 3.03245506397662E-02 
351	 2.99295218782647E-02 
352	 3.06274422033241E-02 
353	 3.13412187537071E-02 
354	 3.18662659782915E-02 
355	 0.032891040764282 
356	 0.032479775503263 
357	 3.01108742744871E-02 
358	 3.14168677796542E-02 
359	 3.37515324526033E-02 
360	 3.21315184705734E-02 
361	 3.16768326722328E-02 
362	 3.27015544356568E-02 
363	 3.17585955168162E-02 
364	 3.12960264504025E-02 
365	 3.22057105196437E-02 
366	 3.08005168228462E-02 
367	 0.029305140101011 
368	 3.11440659966186E-02 
369	 3.26526624624265E-02 
370	 3.29752990167607E-02 
371	 3.23655358815417E-02 
372	 3.16440230181093E-02 
373	 3.13583946087486E-02 
374	 3.16890876229731E-02 
375	 3.18787695001875E-02 
376	 3.08939044292808E-02 
377	 3.11607531643865E-02 
378	 3.23628715672313E-02 
379	 3.13043385002941E-02 
380	 3.09858853732149E-02 
381	 3.24917173774068E-02 
382	 3.23967814517374E-02 
383	 3.10773880314715E-02 
384	 2.94673795512151E-02 
385	 2.92646635019385E-02 
386	 3.02316933318536E-02 
387	 3.00715627618244E-02 
388	 2.95161631223158E-02 
389	 2.91945181892588E-02 
390	 3.08371489972538E-02 
391	 3.22593080269043E-02 
392	 3.08717034491118E-02 
393	 3.02331423788911E-02 
394	 3.06404128691353E-02 
395	 3.04900859294849E-02 
396	 3.09683873266207E-02 
397	 3.21035154926531E-02 
398	 3.13466189840837E-02 
399	 3.00911271010556E-02 
400	 2.99373009451135E-02 
401	 2.97586891280286E-02 
402	 0.02960245968179 
403	 3.01148654721833E-02 
404	 3.06341917457791E-02 
405	 0.030846510890565 
406	 3.06137737159663E-02 
407	 0.030487732635728 
408	 3.11334183940887E-02 
409	 3.10366453722858E-02 
410	 3.03162538256914E-02 
411	 3.03851107041544E-02 
412	 3.03277957889774E-02 
413	 2.97737674925897E-02 
414	 2.91554748319517E-02 
415	 0.029033587599012 
416	 3.00479088744902E-02 
417	 3.03393495250435E-02 
418	 0.029817459867209 
419	 2.96321301250071E-02 
420	 2.98845667584184E-02 
421	 3.04943545742151E-02 
422	 3.03461534482006E-02 
423	 2.99457279205027E-02 
424	 3.02180939902994E-02 
425	 3.03912949913533E-02 
426	 0.03032924726658 
427	 3.02271377899273E-02 
428	 3.03290604341203E-02 
429	 0.030721569487061 
430	 3.07219651238048E-02 
431	 3.05558806029457E-02 
432	 3.07718034153892E-02 
433	 3.07611752868566E-02 
434	 3.04437277945296E-02 
435	 3.00724430081531E-02 
436	 3.00365672830724E-02 
437	 3.05202850942811E-02 
438	 3.07773651935292E-02 
439	 3.08084838259555E-02 
440	 3.08243655481504E-02 
441	 3.09072406950265E-02 
442	 3.10922954224557E-02 
443	 3.13689599460504E-02 
444	 3.15760205819812E-02 
445	 3.15839755655887E-02 
446	 3.14309212655652E-02 
447	 0.031223364442794 
448	 3.11347639810149E-02 
449	 3.12610969772442E-02 
450	 3.15703234304293E-02 
451	 3.17175958962452E-02 
452	 3.17711391223197E-02 
453	 3.18151846794213E-02 
454	 3.16779850591036E-02 
455	 0.031534931551324 
456	 3.19553005048286E-02 
457	 3.23084294340913E-02 
458	 3.23525358923852E-02 
459	 3.24039107523077E-02 
460	 3.24564818542434E-02 
461	 3.24748709112254E-02 
462	 3.25036803441104E-02 
463	 3.25656050521437E-02 
464	 0.032659435932065 
465	 3.29651185905844E-02 
466	 3.34229145468805E-02 
467	 3.28917626823413E-02 
468	 3.22770656907748E-02 
469	 3.30763948955419E-02 
470	 3.35417851232906E-02 
471	 3.34277013505347E-02 
472	 3.36518662675327E-02 
473	 3.38041867482626E-02 
474	 3.36559886557302E-02 
475	 3.36094147316857E-02 
476	 3.35507209922172E-02 
477	 3.31517854222458E-02 
478	 3.31154854395844E-02 
479	 3.35351948636639E-02 
480	 0.033897299799874 
481	 3.39885040038062E-02 
482	 3.37006676832981E-02 
483	 3.37995696221365E-02 
484	 3.40386226942234E-02 
485	 3.34196188546889E-02 
486	 3.32742716824345E-02 
487	 3.38790599878638E-02 
488	 0.033820304368186 
489	 3.37838845922814E-02 
490	 3.45083492871207E-02 
491	 0.034817986953682 
492	 3.46555810966572E-02 
493	 3.45114541016942E-02 
494	 0.034341866876546 
495	 3.42175653831828E-02 
496	 0.034485427847408 
497	 3.49231533417022E-02 
498	 3.52070173693448E-02 
499	 3.52562637867337E-02 
500	 3.51759679251703E-02 
501	 3.53722955548393E-02 
502	 3.57844403107421E-02 
503	 0.036336013591876 
504	 3.68162364763743E-02 
505	 0.037069868574035 
506	 3.68748515576169E-02 
507	 3.71272104257921E-02 
508	 3.78547215480271E-02 
509	 3.80099514919897E-02 
510	 3.80626971977918E-02 
511	 3.84001495804537E-02 
512	 3.87730815053349E-02 
513	 3.90510887366032E-02 
514	 3.89687455473014E-02 
515	 3.91738594114923E-02 
516	 3.98197416707443E-02 
517	 4.03032035202848E-02 
518	 4.05890481018779E-02 
519	 4.07090469824883E-02 
520	 4.11985070245811E-02 
521	 4.18707504939179E-02 
522	 4.19096605963374E-02 
523	 4.19769231926263E-02 
524	 4.23445456079142E-02 
525	 4.26010924291996E-02 
526	 4.29237257133437E-02 
527	 0.043606521306426 
528	 4.44544561507246E-02 
529	 4.51888274230961E-02 
530	 4.51624021340153E-02 
531	 4.48976102947606E-02 
532	 4.48263208483149E-02 
533	 4.54471181511285E-02 
534	 4.62792959347767E-02 
535	 4.62469926119819E-02 
536	 4.61024493580235E-02 
537	 4.61486085513302E-02 
538	 4.66016907452047E-02 
539	 4.71013439685262E-02 
540	 4.72907263835016E-02 
541	 4.73917478973659E-02 
542	 4.75161555570045E-02 
543	 4.78577252717839E-02 
544	 4.80981733070597E-02 
545	 4.81668187765389E-02 
546	 4.85667548798263E-02 
547	 4.89184016616646E-02 
548	 4.86770293442101E-02 
549	 4.86375908287763E-02 
550	 0.04893492157185 
551	 4.92835513865434E-02 
552	 4.96164681574753E-02 
553	 4.98819696135364E-02 
554	 5.01177885049346E-02 
555	 5.03211841529815E-02 
556	 5.04765991017638E-02 
557	 0.050647943886728 
558	 5.08129165084924E-02 
559	 5.07480439362097E-02 
560	 5.07450668106505E-02 
561	 5.10502527700212E-02 
562	 5.11333450470673E-02 
563	 5.10023787078388E-02 
564	 5.09384615097044E-02 
565	 5.09280468811879E-02 
566	 5.09447828018084E-02 
567	 5.07642875269682E-02 
568	 5.05908202479638E-02 
569	 5.07091041881143E-02 
570	 0.051131176397093 
571	 5.16583101582717E-02 
572	 5.16832259979692E-02 
573	 5.14859278180485E-02 
574	 5.12978333363534E-02 
575	 5.15206040008621E-02 
576	 5.18096276942326E-02 
577	 5.14337520012913E-02 
578	 5.09083034640749E-02 
579	 5.05669233326949E-02 
580	 5.10455459435602E-02 
581	 5.15703925243565E-02 
582	 5.14601956642572E-02 
583	 5.12588367722197E-02 
584	 5.12034278865545E-02 
585	 5.16949867346639E-02 
586	 5.19301764774987E-02 
587	 5.16472362300059E-02 
588	 0.051539513368146 
589	 5.15656215300585E-02 
590	 5.15836948088099E-02 
591	 5.17015366021053E-02 
592	 5.19211729169446E-02 
593	 5.21730073774961E-02 
594	 5.25505470835763E-02 
595	 5.29973970121517E-02 
596	 5.26674036413762E-02 
597	 5.19788392334066E-02 
598	 5.18134377591313E-02 
599	 5.20147276581465E-02 
600	 5.24241615370405E-02 
601	 5.24698860929523E-02 
602	 5.24901205815112E-02 
603	 5.27903320146668E-02 
604	 5.31747345192902E-02 
605	 5.33885176064697E-02 
606	 5.28287178911833E-02 
607	 5.24971667075585E-02 
608	 5.27301296654729E-02 
609	 5.27577357770112E-02 
610	 5.27072314899291E-02 
611	 5.28221063702966E-02 
612	 0.052936360497457 
613	 5.29720983623387E-02 
614	 5.28337197132596E-02 
615	 5.26029851311088E-02 
616	 5.23383963982914E-02 
617	 5.19577095161863E-02 
618	 5.18101116503795E-02 
619	 5.25479684344735E-02 
620	 0.05269759041692 
621	 5.20696657336671E-02 
622	 5.19360246182594E-02 
623	 5.21880071593861E-02 
624	 5.26529905914999E-02 
625	 5.28883452620903E-02 
626	 5.28503918969835E-02 
627	 5.27140789576634E-02 
628	 5.24511216853944E-02 
629	 5.21876076814989E-02 
630	 5.25602174954029E-02 
631	 5.30939619169253E-02 
632	 5.31416469364317E-02 
633	 5.32026254053547E-02 
634	 5.33957864021269E-02 
635	 5.37680918494844E-02 
636	 5.39095630970232E-02 
637	 5.36250601744038E-02 
638	 5.35142771621324E-02 
639	 5.34345743776965E-02 
640	 5.29260307483153E-02 
641	 5.31081379823901E-02 
642	 5.39789766902637E-02 
643	 5.40354800278888E-02 
644	 5.35053104368111E-02 
645	 5.27024495689053E-02 
646	 0.05250409215164 
647	 5.27888649586253E-02 
648	 0.052681852600709 
649	 5.27161677599713E-02 
650	 0.052971268571377 
651	 5.27851297230738E-02 
652	 5.25093709651341E-02 
653	 5.26159222886836E-02 
654	 5.25623615845787E-02 
655	 5.22867926941343E-02 
656	 5.21042706710121E-02 
657	 5.17753510274596E-02 
658	 5.12631943312101E-02 
659	 5.11750750010531E-02 
660	 5.13349369520799E-02 
661	 5.14232369691497E-02 
662	 5.07319005794467E-02 
663	 4.94750310371695E-02 
664	 4.94667196039155E-02 
665	 4.97777707263497E-02 
666	 4.95864051907092E-02 
667	 4.93193511289802E-02 
668	 4.90105302117021E-02 
669	 4.85784950515838E-02 
670	 4.81630571437761E-02 
671	 4.78566413160989E-02 
672	 4.77481437195098E-02 
673	 4.78568987913063E-02 
674	 4.81799312885709E-02 
675	 4.82232649863041E-02 
676	 4.81212337411848E-02 
677	 4.86590010875678E-02 
678	 4.92532466732091E-02 
679	 0.049623550733859 
680	 5.01885804586205E-02 
681	 5.08376263361766E-02 
682	 5.13272957915096E-02 
683	 5.17746739937501E-02 
684	 5.23047378331713E-02 
685	 5.32889664638938E-02 
686	 5.44397918859948E-02 
687	 5.55346148618658E-02 
688	 5.74581334481529E-02 
689	 5.96370384357661E-02 
690	 6.09733024843435E-02 
691	 0.062107637566466 
692	 6.33455200637615E-02 
693	 6.47817824033613E-02 
694	 6.66315468310519E-02 
695	 0.06895823191781 
696	 7.10041127017204E-02 
697	 7.26812099914403E-02 
698	 7.42585498771872E-02 
699	 7.59256572060742E-02 
700	 7.77317681210419E-02 
701	 7.94045425149642E-02 
702	 0.081153525249097 
703	 8.33238245620457E-02 
704	 8.48845600415966E-02 
705	 8.60389775474701E-02 
706	 8.83886644305971E-02 
707	 0.090233125401388 
708	 9.06252750372845E-02 
709	 9.13688878659934E-02 
710	 9.26685395733488E-02 
711	 9.44311300935908E-02 
712	 9.57985444406119E-02 
713	 9.67140756882127E-02 
714	 9.84613984594969E-02 
715	 0.100009489088371 
716	 0.100481195498126 
717	 0.102028032350577 
718	 0.104343932142519 
719	 0.104312885121583 
720	 0.104143374084416 
721	 0.104768262119608 
722	 0.106139433829238 
723	 0.107673009948371 
724	 0.108617818052127 
725	 0.10912864516766 
726	 0.109579329039947 
727	 0.111309859928436 
728	 0.112324690740844 
729	 0.111862879346384 
730	 0.112062197604653 
731	 0.112981182017366 
732	 0.114316423612955 
733	 0.114870672437758 
734	 0.114607535978742 
735	 0.114146435906556 
736	 0.114272271197957 
737	 0.115404231191392 
738	 0.116142627076285 
739	 0.11655657142555 
740	 0.117183470645225 
741	 0.117660754437121 
742	 0.1179221969275 
743	 0.11813378473038 
744	 0.118306253462814 
745	 0.11846605556072 
746	 0.118795955435538 
747	 0.119360993478352 
748	 0.120326379548961 
749	 0.12084639081571 
750	 0.120788011416003 
751	 0.121364427793471 
752	 0.122122163397602 
753	 0.122495371574527 
754	 0.122710915275743 
755	 0.122848546556959 
756	 0.122940455580337 
757	 0.123402112340982 
758	 0.124410212279119 
759	 0.124985065415803 
760	 0.125640110054147 
761	 0.127392029360055 
762	 0.127969649010015 
763	 0.127341833945678 
764	 0.126782165061585 
765	 0.127077369939399 
766	 0.128055297285803 
767	 0.128081908946887 
768	 0.127868275120463 
769	 0.128260337390428 
770	 0.128707700300425 
771	 0.129139182588448 
772	 0.129814142568638 
773	 0.13018933075592 
774	 0.130006405347856 
775	 0.130401908603418 
776	 0.131067428750519 
777	 0.131147821362104 
778	 0.131259131875571 
779	 0.131598094104952 
780	 0.132225058847584 
781	 0.132638702146384 
782	 0.132530910126746 
783	 0.133058114081656 
784	 0.134007614261222 
785	 0.134528228883522 
786	 0.134968634318707 
787	 0.135333704957094 
788	 0.135143440735722 
789	 0.135097887104688 
790	 0.135810275424361 
791	 0.136077696974202 
792	 0.13606742911713 
793	 0.136722225136165 
794	 0.137557467629601 
795	 0.138306322067684 
796	 0.138619865923898 
797	 0.138391537127084 
798	 0.137657589418223 
799	 0.138220620337204 
800	 0.139627008107612 
801	 0.139616406643591 
802	 0.139521336465261 
803	 0.13980622348563 
804	 0.140032981149476 
805	 0.140601144282756 
806	 0.14189383572177 
807	 0.142440339127653 
808	 0.142294950705251 
809	 0.142492772914239 
810	 0.142996212508334 
811	 0.143726725173336 
812	 0.143966961122556 
813	 0.144025595306726 
814	 0.144417561588395 
815	 0.145111391518672 
816	 0.146153029109376 
817	 0.147749310882498 
818	 0.14874759540674 
819	 0.148748087434634 
820	 0.148616717087485 
821	 0.148370730712471 
822	 0.147970209891222 
823	 0.148869418023148 
824	 0.150175063047246 
825	 0.148417306788173 
826	 0.147524767644941 
827	 0.148881698929355 
828	 0.150058133836461 
829	 0.150542050713498 
830	 0.150042893204339 
831	 0.150187437081639 
832	 0.150961668602306 
833	 0.15122039759886 
834	 0.151351842251842 
835	 0.15146607661568 
836	 0.151248711146748 
837	 0.151286824076764 
838	 0.152226689250018 
839	 0.153445321746207 
840	 0.154477351659953 
841	 0.154616893988752 
842	 0.153987845078819 
843	 0.152948919984095 
844	 0.153103863501982 
845	 0.153538159878377 
846	 0.153118464956003 
847	 0.153124618861441 
848	 0.153606528762064 
849	 0.153889789837095 
850	 0.154572731603458 
851	 0.155584636724394 
852	 0.155151744825837 
853	 0.154618129065985 
854	 0.155513866824167 
855	 0.15655842033325 
856	 0.157232362838342 
857	 0.156874858380304 
858	 0.156815015969946 
859	 0.157399907043025 
860	 0.157824968060294 
861	 0.157722190729439 
862	 0.156891500277005 
863	 0.156880059357981 
864	 0.157692596882502 
865	 0.158510468707421 
866	 0.160008553659532 
867	 0.161691977800553 
868	 0.160675879925066 
869	 0.159089898197385 
870	 0.158890203669284 
871	 0.160371986319303 
872	 0.162414004656036 
873	 0.162923916241851 
874	 0.161308129982094 
875	 0.15905427425481 
876	 0.163065437495249 
877	 0.166202448568491 
878	 0.163960578958808 
879	 0.164199478810177 
880	 0.165914774638516 
881	 0.165717678191862 
882	 0.166109047802108 
883	 0.167088952342856 
884	 0.166277933303468 
885	 0.166180999493863 
886	 0.167836164802235 
887	 0.167718660027745 
888	 0.167276921482088 
889	 0.168880506238769 
890	 0.168977496939885 
891	 0.167815277493065 
892	 0.168992947889841 
893	 0.170097436242578 
894	 0.170180320310364 
895	 0.171003035264941 
896	 0.172019355922838 
897	 0.172424993897005 
898	 0.173483063796425 
899	 0.17436862381068 
900	 0.172379831567669 
901	 0.170954302826353 
902	 0.1712568156898 
903	 0.17291442458933 
904	 0.17334134982954 
905	 0.171167781268901 
906	 0.173304589958643 
907	 0.176844027528857 
908	 0.174691571659995 
909	 0.173104785649099 
910	 0.173955332253445 
911	 0.177153046474486 
912	 0.177902040668473 
913	 0.174188561586192 
914	 0.172815616307475 
915	 0.172907874555693 
916	 0.172530167718353 
917	 0.175734334557652 
918	 0.180669770610947 
919	 0.181078740540146 
920	 0.178188485810791 
921	 0.174007473132805 
922	 0.176491939517056 
923	 0.179997904198726 
924	 0.179088816142383 
925	 0.176279720819196 
926	 0.172902432285493 
927	 0.170937064836341 
928	 0.175834100844195 
929	 0.186222716686275 
930	 0.183272556196241 
931	 0.178449746610323 
932	 0.181455324827379 
933	 0.180069969643343 
934	 0.180328056883663 
935	 0.192593604764205 
936	 0.189938242584631 
937	 0.174916934145034 
938	 0.17068042610291 
939	 0.175380272760204 
940	 0.184462306905221 
941	 0.180890205540603 
942	 0.176659342769361 
943	 0.180037863683554 
944	 0.180660003284639 
945	 0.18056242724826 
946	 0.185079021221488 
947	 0.18047269822008 
948	 0.170797389105327 
949	 0.180281717112852 
950	 0.189758837474279 
951	 0.190569544475243 
952	 0.182507008004015 
953	 0.176239305046351 
954	 0.180651210985252 
955	 0.181765820730175 
956	 0.178908914511477 
957	 0.174745152728649 
958	 0.175648579505763 
959	 0.179986772082793 
960	 0.177633624163875 
961	 0.170720430720017 
962	 0.163434373755191 
963	 0.171931605464206 
964	 0.180489352972253 
965	 0.174813695612533 
966	 0.17513475551053 
967	 0.179331225296047 
968	 0.176787794913646 
969	 0.176041086926795 
970	 0.178185931621489 
971	 0.178769856091138 
972	 0.17769894359499 
973	 0.176445514539616 
974	 0.185639456207833 
975	 0.191752123849055 
976	 0.180213420758494 
977	 0.173284020126365 
978	 0.17480740361331 
979	 0.183873776473908 
980	 0.185773670391238 
981	 0.179725930379343 
982	 0.181034956517514 
983	 0.183950815035188 
984	 0.184602349341475 
985	 0.179686811165378 
986	 0.174759369665663 
987	 0.175423590383968 
988	 0.17110382614183 
989	 0.167711684662566 
990	 0.180897465809769 
991	 0.187772648692938 
992	 0.184461480576699 
993	 0.180058624933036 
994	 0.181475822687881 
995	 0.189549037319257 
996	 0.18637574415148 
997	 0.180053339997783 
998	 0.179545920654053 
999	 0.178095870080474 
1000	 0.176020981942035 
1001	 0.175440239737648 
1002	 0.180229895020528 
1003	 0.187996422211149 
1004	 0.188801435704174 
1005	 0.184079802125187 
1006	 0.176325863128175 
1007	 0.173962572688205 
1008	 0.17599703695936 
1009	 0.1809187904494 
1010	 0.18784553098538 
1011	 0.192745299743549 
1012	 0.19046698741571 
1013	 0.184601213197764 
1014	 0.17900472896145 
1015	 0.179568590839276 
1016	 0.186179253302751 
1017	 0.194810852930134 
1018	 0.190697048718099 
1019	 0.184700957930318 
1020	 0.184307687883898 
1021	 0.194877007294971 
1022	 0.20057921531438 
1023	 0.187207009876847 
1024	 0.179538222796937 
1025	 0.182170931639279 
1026	 0.194063108565214 
1027	 0.207915004383589 
1028	 0.213309204357237 
1029	 0.184468559600833 
1030	 0.17194374602046 
1031	 0.185335776653081 
1032	 0.171984015628394 
1033	 0.160336051538068 
1034	 0.168604925009179 
1035	 0.18898484265942 
1036	 0.204224346399273 
1037	 0.198453427233106 
1038	 0.200035312451377 
1039	 0.202103803536247 
1040	 0.185036541453815 
1041	 0.180096959725978 
1042	 0.187391131374458 
1043	 0.181080095033054 
1044	 0.172393195952757 
1045	 0.167213470202555 
1046	 0.179251874840241 
1047	 0.191662008958814 
1048	 0.193014574367111 
1049	 0.179597291649143 
1050	 0.174943105015889 
1051	 0.199638093458172 
1052	 0.216795616097352 
1053	 0.215359951901466 
1054	 0.189253505654154 
1055	 0.174089725077882 
1056	 0.176931925072463 
1057	 0.189395692955874 
1058	 0.196921114347663 
1059	 0.199717925830295 
1060	 0.220419630033107 
1061	 0.211658906743378 
1062	 0.164637704894594 
1063	 0.179662295273824 
1064	 0.205018813894 
1065	 0.201211277901392 
1066	 0.177386355449896 
1067	 0.154545686753208 
1068	 0.154153920686553 
1069	 0.15296945847788 
1070	 0.146934686674638 
1071	 0.138155927960805 
1072	 0.150577960598589 
1073	 0.173619354147047 
1074	 0.171213525285177 
1075	 0.177689744273065 
