Wavelength	AVEI200028.asd
325	 3.65447494443056E-02 
326	 3.31749226820978E-02 
327	 3.68598126258432E-02 
328	 3.38271238229446E-02 
329	 2.92587529162308E-02 
330	 2.60761058556328E-02 
331	 2.78168639982162E-02 
332	 3.12336423663778E-02 
333	 3.31203359669534E-02 
334	 3.53945686553646E-02 
335	 3.62561684688157E-02 
336	 2.98869422064906E-02 
337	 2.94349987998642E-02 
338	 3.58767124507956E-02 
339	 0.033434711058448 
340	 3.02068982513149E-02 
341	 3.28878162211154E-02 
342	 3.32625984194549E-02 
343	 3.13321402078551E-02 
344	 2.91826244345427E-02 
345	 2.93370342811269E-02 
346	 3.12731501887586E-02 
347	 3.00565962009532E-02 
348	 2.85760433218571E-02 
349	 0.028807962285451 
350	 2.95162664361197E-02 
351	 2.97576694647946E-02 
352	 2.82907014770686E-02 
353	 2.79921744668623E-02 
354	 0.028910454254216 
355	 2.84042721771876E-02 
356	 2.78573111014198E-02 
357	 2.81271544228165E-02 
358	 2.89048152210533E-02 
359	 2.95431123964685E-02 
360	 2.92019314985631E-02 
361	 2.79879078113972E-02 
362	 2.68509131234671E-02 
363	 2.89508934654156E-02 
364	 2.97225811989876E-02 
365	 2.73151760172116E-02 
366	 2.70598962282161E-02 
367	 2.75537133693274E-02 
368	 2.62123712842007E-02 
369	 0.026377891233577 
370	 2.79470251336418E-02 
371	 2.80073128919429E-02 
372	 2.83194572289606E-02 
373	 2.94060243822443E-02 
374	 2.80376602756436E-02 
375	 2.65106716124114E-02 
376	 2.83092856230704E-02 
377	 2.94024658741555E-02 
378	 2.89654899969786E-02 
379	 2.76826013321129E-02 
380	 2.67874748381655E-02 
381	 2.69212649735294E-02 
382	 2.71862430974018E-02 
383	 2.74826926179888E-02 
384	 2.78043614756258E-02 
385	 0.028125797489965 
386	 2.85522236296362E-02 
387	 2.96549184083119E-02 
388	 2.95477274883415E-02 
389	 0.027939893339212 
390	 2.85917796012461E-02 
391	 2.97448142376959E-02 
392	 2.90365805498958E-02 
393	 2.78830090509736E-02 
394	 2.70300286943144E-02 
395	 2.77211632661923E-02 
396	 2.79856087150551E-02 
397	 2.72833028815802E-02 
398	 2.78527920491377E-02 
399	 2.83710321356751E-02 
400	 2.73950371355655E-02 
401	 2.67356408647116E-02 
402	 2.66860101220365E-02 
403	 2.71515404481083E-02 
404	 2.74321048034154E-02 
405	 2.72711014684179E-02 
406	 2.70736480043057E-02 
407	 2.70133819559553E-02 
408	 2.72440155917624E-02 
409	 2.72139334142187E-02 
410	 2.69596021296693E-02 
411	 2.69658798698451E-02 
412	 2.69734001672801E-02 
413	 2.69326880653381E-02 
414	 2.74114205779544E-02 
415	 2.77335303408875E-02 
416	 2.69967452859689E-02 
417	 2.65283699568943E-02 
418	 2.66411658809362E-02 
419	 2.73273019031013E-02 
420	 2.76134468727784E-02 
421	 2.70737687279331E-02 
422	 2.67849563506362E-02 
423	 2.69124073820756E-02 
424	 2.75065353615008E-02 
425	 2.76061687019122E-02 
426	 2.71497864046708E-02 
427	 2.68957956558729E-02 
428	 2.68127138244442E-02 
429	 2.68784169613161E-02 
430	 2.69732596772633E-02 
431	 2.71491550121813E-02 
432	 2.75396045133021E-02 
433	 0.027664345866286 
434	 2.74882568003366E-02 
435	 2.74092524533594E-02 
436	 2.73323454136783E-02 
437	 2.72345226440208E-02 
438	 2.75432531384598E-02 
439	 2.79703060815323E-02 
440	 2.79079557910265E-02 
441	 2.76507653079874E-02 
442	 2.73854559250695E-02 
443	 2.74795040167143E-02 
444	 2.76681434018561E-02 
445	 2.77252731636566E-02 
446	 2.77546980118321E-02 
447	 0.027793344720157 
448	 2.78965424947312E-02 
449	 2.79931818024733E-02 
450	 2.80251515286226E-02 
451	 2.78227952736903E-02 
452	 2.77164646103575E-02 
453	 2.80180911430911E-02 
454	 2.82450515817729E-02 
455	 2.83339217514096E-02 
456	 2.83975008611695E-02 
457	 2.84581799821064E-02 
458	 2.85502533936032E-02 
459	 2.88044588034042E-02 
460	 2.89138331278626E-02 
461	 2.85302196710325E-02 
462	 2.86406486161838E-02 
463	 0.029108175939229 
464	 2.87416273531181E-02 
465	 0.028524413076337 
466	 2.88691694125485E-02 
467	 2.88526274681897E-02 
468	 2.86766611831088E-02 
469	 2.87788507441844E-02 
470	 2.91621249938543E-02 
471	 2.95371621999464E-02 
472	 2.88302526451514E-02 
473	 2.84624979033425E-02 
474	 0.029205160424718 
475	 2.93151811057981E-02 
476	 2.91218757937815E-02 
477	 2.96556146610389E-02 
478	 2.97214434491884E-02 
479	 0.029237275774687 
480	 2.93813050890941E-02 
481	 2.95272388773868E-02 
482	 2.92063285129126E-02 
483	 2.93711745849028E-02 
484	 2.98315473287601E-02 
485	 0.02972201319438 
486	 2.98510669700894E-02 
487	 3.03507857936913E-02 
488	 3.03493725878173E-02 
489	 3.01750355556862E-02 
490	 3.02205084670506E-02 
491	 3.03010254655217E-02 
492	 3.03688316190355E-02 
493	 3.03885905651207E-02 
494	 3.03577580052474E-02 
495	 3.03005201133738E-02 
496	 3.03639416043702E-02 
497	 3.04685239596858E-02 
498	 3.04944486389964E-02 
499	 3.04878753868653E-02 
500	 3.05476886497958E-02 
501	 3.10199300130319E-02 
502	 3.12145160890389E-02 
503	 3.08239681472794E-02 
504	 3.10222303300806E-02 
505	 3.14054041208131E-02 
506	 3.10210069184965E-02 
507	 3.09882487468625E-02 
508	 3.15074013680344E-02 
509	 3.20486160495968E-02 
510	 3.24365220358052E-02 
511	 3.25554731345263E-02 
512	 3.26829977280368E-02 
513	 0.032770939452136 
514	 3.25535688753012E-02 
515	 3.24488906024782E-02 
516	 3.26035659787337E-02 
517	 3.28836504213302E-02 
518	 3.30146793623663E-02 
519	 3.27472130275412E-02 
520	 3.28990039406295E-02 
521	 3.33902072632226E-02 
522	 3.35213766136568E-02 
523	 3.37177755489236E-02 
524	 3.41010357494486E-02 
525	 0.03416894219834 
526	 3.41169569937331E-02 
527	 3.42818008198047E-02 
528	 3.46867983970889E-02 
529	 3.51974378235569E-02 
530	 3.53646929684633E-02 
531	 3.54193160921301E-02 
532	 3.55328308045825E-02 
533	 3.57565070319433E-02 
534	 3.60302637152856E-02 
535	 3.62442510919724E-02 
536	 3.61766402430601E-02 
537	 0.035936708261781 
538	 3.63865748696033E-02 
539	 3.68897027313596E-02 
540	 3.68164377110256E-02 
541	 3.68256719003718E-02 
542	 3.69560722112061E-02 
543	 0.036913091486626 
544	 3.70844672904026E-02 
545	 3.75431882726955E-02 
546	 3.77034579126572E-02 
547	 3.76503591640823E-02 
548	 3.75684166662239E-02 
549	 3.76940173339533E-02 
550	 3.80177029483849E-02 
551	 3.82826980665686E-02 
552	 3.84181168674394E-02 
553	 3.83977524299826E-02 
554	 3.84416280824968E-02 
555	 0.03855840406016 
556	 3.86877933957593E-02 
557	 3.89713297809481E-02 
558	 0.039293952557048 
559	 3.89516672436232E-02 
560	 3.85832709623279E-02 
561	 3.87900994107874E-02 
562	 3.91146033000382E-02 
563	 3.93968457391703E-02 
564	 3.94333521886206E-02 
565	 3.96340550759545E-02 
566	 4.00739441126707E-02 
567	 4.01309157631284E-02 
568	 0.039931326114997 
569	 3.97139170396191E-02 
570	 3.97619164828027E-02 
571	 4.00181318961631E-02 
572	 4.00010314954994E-02 
573	 3.98839878863864E-02 
574	 3.98162896406287E-02 
575	 4.01313446835335E-02 
576	 4.05269940206622E-02 
577	 4.03654484219653E-02 
578	 4.02945272772894E-02 
579	 4.04409248909787E-02 
580	 4.03476093800804E-02 
581	 4.04638363553847E-02 
582	 4.11220445356728E-02 
583	 4.11784506024962E-02 
584	 4.07795129231791E-02 
585	 0.040858073954561 
586	 4.09054431428073E-02 
587	 4.07986771409808E-02 
588	 4.09908376686918E-02 
589	 4.11602625034805E-02 
590	 4.08430128108018E-02 
591	 4.10377428178367E-02 
592	 4.16803621766447E-02 
593	 0.041781721258799 
594	 4.17067956099263E-02 
595	 4.16830948042555E-02 
596	 4.17518081117395E-02 
597	 4.19198265979986E-02 
598	 4.21963871424202E-02 
599	 4.22296466607942E-02 
600	 4.20393033485364E-02 
601	 4.22297298925951E-02 
602	 4.25078820210786E-02 
603	 4.26076496447697E-02 
604	 4.28556200890085E-02 
605	 4.31180204116262E-02 
606	 0.042909254232067 
607	 4.27318210557602E-02 
608	 4.27935257270102E-02 
609	 4.30185604952258E-02 
610	 4.31335665515254E-02 
611	 4.28151831226598E-02 
612	 4.26696426555392E-02 
613	 4.28407147120618E-02 
614	 4.32732363584953E-02 
615	 4.35760842764054E-02 
616	 4.35256615390581E-02 
617	 4.35619534920893E-02 
618	 4.35617115767118E-02 
619	 4.31637382133483E-02 
620	 4.32559388011861E-02 
621	 4.38460033132615E-02 
622	 4.37353663916933E-02 
623	 4.34352125833875E-02 
624	 4.34370887291718E-02 
625	 0.043458591577238 
626	 4.35236480725103E-02 
627	 4.38180861273908E-02 
628	 4.40970861608272E-02 
629	 4.42528424547709E-02 
630	 4.43557630807897E-02 
631	 4.44058337405862E-02 
632	 4.43996794671433E-02 
633	 4.46669167185841E-02 
634	 4.51134038722801E-02 
635	 4.51279349260835E-02 
636	 4.53377365851034E-02 
637	 4.59782737309681E-02 
638	 4.57709832249195E-02 
639	 4.52280179200416E-02 
640	 4.55641155966337E-02 
641	 4.56635109756068E-02 
642	 4.53865881489231E-02 
643	 4.56642748973413E-02 
644	 4.59881942183103E-02 
645	 4.59010234718724E-02 
646	 4.57962399258204E-02 
647	 4.57899757077682E-02 
648	 4.59810894311532E-02 
649	 0.046248262942211 
650	 4.64579765992948E-02 
651	 4.62738764707102E-02 
652	 4.58969496170696E-02 
653	 0.045598527698423 
654	 4.55771040512008E-02 
655	 4.58365015965111E-02 
656	 0.046214969403681 
657	 4.62461241756936E-02 
658	 4.57701481019921E-02 
659	 4.57680751890877E-02 
660	 4.59697637153097E-02 
661	 4.57646337083657E-02 
662	 4.55756137160987E-02 
663	 4.54620723133723E-02 
664	 4.51596352828947E-02 
665	 0.044900122957417 
666	 4.48665682382756E-02 
667	 0.044775481935153 
668	 4.46034307065217E-02 
669	 4.43859059337108E-02 
670	 4.43412755678165E-02 
671	 0.044533755604872 
672	 4.48174159143765E-02 
673	 4.49121178873111E-02 
674	 0.04453943035659 
675	 4.45051519291087E-02 
676	 4.48435979888008E-02 
677	 4.49880449041869E-02 
678	 4.54002226509172E-02 
679	 4.61923310368452E-02 
680	 4.63456458146166E-02 
681	 0.046240472057132 
682	 4.66791269726374E-02 
683	 4.68931592566176E-02 
684	 4.69672199019397E-02 
685	 4.81376696954749E-02 
686	 4.93645388625474E-02 
687	 4.97310837825029E-02 
688	 5.03486195887919E-02 
689	 0.051276969797683 
690	 5.23148587824948E-02 
691	 5.32052474789782E-02 
692	 5.39776725910861E-02 
693	 5.51199686544503E-02 
694	 5.63927923525819E-02 
695	 0.057461391465766 
696	 5.84896495866387E-02 
697	 5.95413005463116E-02 
698	 6.07693366516921E-02 
699	 6.19574903467043E-02 
700	 6.30165968635575E-02 
701	 6.42376191875204E-02 
702	 6.55264752486059E-02 
703	 6.67235280640766E-02 
704	 6.76670028157483E-02 
705	 6.84973624881234E-02 
706	 6.98129510081867E-02 
707	 7.09800690649894E-02 
708	 7.16549210239433E-02 
709	 7.26951028155775E-02 
710	 7.38755552054579E-02 
711	 7.45483904839601E-02 
712	 7.53807757142491E-02 
713	 7.64347453757013E-02 
714	 7.70611769519509E-02 
715	 7.75482989393542E-02 
716	 7.82213690488105E-02 
717	 7.89679347692246E-02 
718	 7.97418766869351E-02 
719	 8.02243464974284E-02 
720	 8.10971674064588E-02 
721	 8.23249287715308E-02 
722	 8.29991018134779E-02 
723	 8.34794214406892E-02 
724	 8.41345520704355E-02 
725	 0.084828817086361 
726	 8.55086875997773E-02 
727	 8.63107339428078E-02 
728	 8.68815679060807E-02 
729	 0.087093901294588 
730	 8.73320382793318E-02 
731	 8.78615604341145E-02 
732	 8.89430603632314E-02 
733	 8.96677585901791E-02 
734	 8.99944278968799E-02 
735	 9.05025814027774E-02 
736	 9.09475302308504E-02 
737	 9.12398771929743E-02 
738	 9.22589569521138E-02 
739	 9.34303568112696E-02 
740	 9.34671928828582E-02 
741	 9.36737178269241E-02 
742	 9.43408295023011E-02 
743	 9.48694517996369E-02 
744	 9.54103523228733E-02 
745	 9.60856106831548E-02 
746	 9.65800748379296E-02 
747	 0.096891684825943 
748	 9.71305912810839E-02 
749	 9.75004780674017E-02 
750	 9.80166734862386E-02 
751	 9.82345151885575E-02 
752	 9.84800161272881E-02 
753	 9.91075030082832E-02 
754	 9.94585204204651E-02 
755	 9.96935215069325E-02 
756	 0.100754656459002 
757	 0.101401441618072 
758	 0.101154646097671 
759	 0.100903825605419 
760	 0.101053661893562 
761	 0.102379664886049 
762	 0.102939022410037 
763	 0.102810177948907 
764	 0.103880228170469 
765	 0.104685282533569 
766	 0.104809498439701 
767	 0.104910318707648 
768	 0.105158889387674 
769	 0.105690611449594 
770	 0.106523974168373 
771	 0.107452740904443 
772	 0.107778620838484 
773	 0.108020109323206 
774	 0.108529392444578 
775	 0.109164231697644 
776	 0.109737864229875 
777	 0.109942001867237 
778	 0.11036280513491 
779	 0.111047884293451 
780	 0.111409935982783 
781	 0.111596933123973 
782	 0.111770500261306 
783	 0.112176932175656 
784	 0.112729842974209 
785	 0.113168029902726 
786	 0.113406861517674 
787	 0.113519647410931 
788	 0.114064616169247 
789	 0.114543975728326 
790	 0.114521711537992 
791	 0.114996550662254 
792	 0.115810765731077 
793	 0.116092164918289 
794	 0.116647252008777 
795	 0.117563601126203 
796	 0.11781721353074 
797	 0.117901127615388 
798	 0.118342368338778 
799	 0.11837550830471 
800	 0.118320000769477 
801	 0.119542662446399 
802	 0.119972393116525 
803	 0.119244546790551 
804	 0.120310757735542 
805	 0.121596756939405 
806	 0.121272029965388 
807	 0.12135865432082 
808	 0.121924242976857 
809	 0.121896319661309 
810	 0.122087979624328 
811	 0.122763455415237 
812	 0.123273137261391 
813	 0.123475249655508 
814	 0.123251358348121 
815	 0.122752410500729 
816	 0.122541256539791 
817	 0.124080847532957 
818	 0.125436906127598 
819	 0.125850621158948 
820	 0.126544523454619 
821	 0.12728786702703 
822	 0.127704754245527 
823	 0.12814195405809 
824	 0.128733732312414 
825	 0.129756346457269 
826	 0.130284605994798 
827	 0.130132658949624 
828	 0.130720573286628 
829	 0.131374029489115 
830	 0.131139001931243 
831	 0.131307556307798 
832	 0.131940583960219 
833	 0.132283130421509 
834	 0.133067907851443 
835	 0.134365826823334 
836	 0.134915105469335 
837	 0.13490297433758 
838	 0.134693560553521 
839	 0.13505871047266 
840	 0.135921638408885 
841	 0.136553867551327 
842	 0.136972141822419 
843	 0.137176659323366 
844	 0.137247827865672 
845	 0.137626280740698 
846	 0.138714577615801 
847	 0.138572465412223 
848	 0.137697209990627 
849	 0.138755651743084 
850	 0.139650354652449 
851	 0.139597255136253 
852	 0.13938189388717 
853	 0.139341621333915 
854	 0.139726288005577 
855	 0.139384226001787 
856	 0.138960002334584 
857	 0.140707306261113 
858	 0.141965469247301 
859	 0.142027524129157 
860	 0.142369923857868 
861	 0.142921537356117 
862	 0.143471276871351 
863	 0.142963443761765 
864	 0.142002228486569 
865	 0.142409744800543 
866	 0.143302999970481 
867	 0.144202465676106 
868	 0.144290503220606 
869	 0.144668045293444 
870	 0.146082471689295 
871	 0.146269218635273 
872	 0.145993803540791 
873	 0.147418306995914 
874	 0.148599184469817 
875	 0.148872416915436 
876	 0.14789394086921 
877	 0.148060568414492 
878	 0.150689000612415 
879	 0.151659866677466 
880	 0.151555065630728 
881	 0.152298211019685 
882	 0.152802179138449 
883	 0.153036559149549 
884	 0.153854677297012 
885	 0.154304369629752 
886	 0.154051958805406 
887	 0.154684532831544 
888	 0.155966712526425 
889	 0.157326092281237 
890	 0.157255882464266 
891	 0.156207531345926 
892	 0.15700085895908 
893	 0.157293254011986 
894	 0.156249888684464 
895	 0.156061187991433 
896	 0.156375074033737 
897	 0.156583678216913 
898	 0.157431792493409 
899	 0.159202298643686 
900	 0.162562268872678 
901	 0.163119204296222 
902	 0.160600245479369 
903	 0.160889434996886 
904	 0.161838593381203 
905	 0.161640375881971 
906	 0.16093488383549 
907	 0.160792433306057 
908	 0.163033490651675 
909	 0.163268569221737 
910	 0.161261506877695 
911	 0.161400738678823 
912	 0.162959286553591 
913	 0.164960901245102 
914	 0.164429951634637 
915	 0.162866767438338 
916	 0.162486181262438 
917	 0.162899403505847 
918	 0.163575209184985 
919	 0.163096041342105 
920	 0.163502231526699 
921	 0.165190026152762 
922	 0.166480492177966 
923	 0.166647214568526 
924	 0.165413300786992 
925	 0.167189177376258 
926	 0.169551988996759 
927	 0.165246086425461 
928	 0.161487501564036 
929	 0.160592275495222 
930	 0.159534828805044 
931	 0.157064276380306 
932	 0.152556263398076 
933	 0.150674520506028 
934	 0.15226271948727 
935	 0.156538121452485 
936	 0.159002088620381 
937	 0.159390453852599 
938	 0.161909840497357 
939	 0.155023816210144 
940	 0.141617569058619 
941	 0.148685947028007 
942	 0.1592553604584 
943	 0.160062534189059 
944	 0.156253867448405 
945	 0.151781641221977 
946	 0.151931383471363 
947	 0.153179722523963 
948	 0.154404570539186 
949	 0.155732848999439 
950	 0.152296075529118 
951	 0.145003097618777 
952	 0.150315931455854 
953	 0.15795971071875 
954	 0.157881949603295 
955	 0.150410161235443 
956	 0.14362080107639 
957	 0.151339093795959 
958	 0.155509715702941 
959	 0.153587658385079 
960	 0.154960455386829 
961	 0.153287334687228 
962	 0.147192706949176 
963	 0.144799320092936 
964	 0.144362182818803 
965	 0.143472090276427 
966	 0.139322750064535 
967	 0.136731412373576 
968	 0.145760912619236 
969	 0.1501793248075 
970	 0.147516583773077 
971	 0.146315683872824 
972	 0.147027329342738 
973	 0.149883238311602 
974	 0.154376784509726 
975	 0.157628563501002 
976	 0.156899408559003 
977	 0.15521809146162 
978	 0.153158399570999 
979	 0.150117807999722 
980	 0.151356460444365 
981	 0.155550424965021 
982	 0.151183372929229 
983	 0.149634867906101 
984	 0.155495924094123 
985	 0.15658028288047 
986	 0.155349969879479 
987	 0.155695894062952 
988	 0.158460865448309 
989	 0.160928391440942 
990	 0.157230011753449 
991	 0.157125285798185 
992	 0.161361133934414 
993	 0.161600874361616 
994	 0.163445900736251 
995	 0.167814693762567 
996	 0.163292604709955 
997	 0.158570273026013 
998	 0.162458123851383 
999	 0.16725623944465 
1000	 0.169204859868611 
1001	 0.164312753183418 
1002	 0.165619669765614 
1003	 0.172904256227573 
1004	 0.174321034257653 
1005	 0.170522591984547 
1006	 0.163573315691446 
1007	 0.162677865359175 
1008	 0.165800879997254 
1009	 0.170455287843628 
1010	 0.177285561891803 
1011	 0.178264645671477 
1012	 0.16318298577974 
1013	 0.162040802667238 
1014	 0.171800269435257 
1015	 0.167088879891778 
1016	 0.166822605055144 
1017	 0.172898481770366 
1018	 0.168738264705632 
1019	 0.166125160766285 
1020	 0.171985861398945 
1021	 0.185049252150749 
1022	 0.190442117783833 
1023	 0.176851789116017 
1024	 0.180586462308013 
1025	 0.190537012741223 
1026	 0.178618961814635 
1027	 0.169786438796344 
1028	 0.169122007587537 
1029	 0.172336987174173 
1030	 0.175473835199234 
1031	 0.177590043281545 
1032	 0.183558916335903 
1033	 0.186607870615871 
1034	 0.182584850118949 
1035	 0.172368917755231 
1036	 0.166825922191622 
1037	 0.176144726537892 
1038	 0.183368295481164 
1039	 0.187701117820673 
1040	 0.194471631715854 
1041	 0.196298257876024 
1042	 0.192757628113434 
1043	 0.188524639082353 
1044	 0.188483276956561 
1045	 0.19150575249738 
1046	 0.183889409841171 
1047	 0.175750194132357 
1048	 0.173367598648314 
1049	 0.170510401134469 
1050	 0.171732947500381 
1051	 0.180771833626635 
1052	 0.187065974649006 
1053	 0.195923603862074 
1054	 0.217033494678734 
1055	 0.205769725122066 
1056	 0.171724222871714 
1057	 0.166548101384132 
1058	 0.185437266119223 
1059	 0.212911570964639 
1060	 0.195322823406375 
1061	 0.170449629525275 
1062	 0.159624237922933 
1063	 0.170941731867615 
1064	 0.191897706362229 
1065	 0.208348384994683 
1066	 0.200852371925648 
1067	 0.194581314945334 
1068	 0.215124059247816 
1069	 0.204124660537887 
1070	 0.186517154854038 
1071	 0.220591330149838 
1072	 0.198902535469734 
1073	 0.145465177614873 
1074	 0.19569549596236 
1075	 0.205669747093426 
