Wavelength	AVEI200368.asd
325	 8.01531940049584E-02 
326	 8.29637011131266E-02 
327	 7.87993675744448E-02 
328	 0.074881378094781 
329	 7.62700940973299E-02 
330	 8.25864449737927E-02 
331	 0.082224580558359 
332	 7.83134122645851E-02 
333	 7.47793592202386E-02 
334	 7.32774119038514E-02 
335	 7.39678287606448E-02 
336	 7.56890095512844E-02 
337	 8.18969617704123E-02 
338	 8.98462868413755E-02 
339	 8.45055051289088E-02 
340	 7.70249650770088E-02 
341	 7.68941245315489E-02 
342	 7.68411945567645E-02 
343	 7.76710170270983E-02 
344	 8.33772337326543E-02 
345	 0.084784429787364 
346	 8.12770213051319E-02 
347	 8.00779078691547E-02 
348	 8.10606615261416E-02 
349	 8.33794309272319E-02 
350	 8.23054706850108E-02 
351	 7.96167208300672E-02 
352	 7.89402968708601E-02 
353	 7.82025681585049E-02 
354	 7.74917455551143E-02 
355	 7.88914273190272E-02 
356	 8.01036229506525E-02 
357	 7.95778693104401E-02 
358	 7.63384714623424E-02 
359	 7.42264221556595E-02 
360	 7.89245944220598E-02 
361	 8.02846306664798E-02 
362	 7.73428197866109E-02 
363	 7.56456647878593E-02 
364	 7.55291753030589E-02 
365	 7.67728289573276E-02 
366	 7.66877963698325E-02 
367	 7.56362226657969E-02 
368	 7.45050971906171E-02 
369	 7.35316223415789E-02 
370	 7.31420263705136E-02 
371	 7.42352067071034E-02 
372	 7.59898288741853E-02 
373	 7.75252528046481E-02 
374	 7.66442634722046E-02 
375	 7.51500845862331E-02 
376	 0.075729839811743 
377	 7.54598168129725E-02 
378	 7.40843433042365E-02 
379	 0.072837927860009 
380	 7.27125830703508E-02 
381	 7.39907526098279E-02 
382	 7.50451077641228E-02 
383	 7.50365825708292E-02 
384	 7.31782815355836E-02 
385	 7.45067837534844E-02 
386	 7.77357594128083E-02 
387	 7.53061624870306E-02 
388	 7.24162327618663E-02 
389	 7.14527813549761E-02 
390	 7.13245958757967E-02 
391	 7.16698876698837E-02 
392	 7.21679977145247E-02 
393	 0.074115770212619 
394	 7.64037418607326E-02 
395	 7.54521054430543E-02 
396	 7.41950587316569E-02 
397	 0.073971252077489 
398	 7.44751880674568E-02 
399	 7.48287622610058E-02 
400	 7.42520518375114E-02 
401	 7.30750121844817E-02 
402	 7.20295239081322E-02 
403	 7.27454082675506E-02 
404	 7.30747906234222E-02 
405	 7.23731138843725E-02 
406	 0.072542532956192 
407	 7.32989702345781E-02 
408	 7.40738081149862E-02 
409	 7.37401464481163E-02 
410	 7.26942705724124E-02 
411	 7.28502444383987E-02 
412	 7.29089025201079E-02 
413	 7.23710870914509E-02 
414	 7.21110814369728E-02 
415	 7.21710333740086E-02 
416	 0.072490003503328 
417	 7.25553718753834E-02 
418	 7.24556529448978E-02 
419	 7.29538927189526E-02 
420	 7.31865746066021E-02 
421	 7.28033959332571E-02 
422	 7.28940114090444E-02 
423	 7.31324467322182E-02 
424	 7.28701733969703E-02 
425	 7.27351519006282E-02 
426	 7.28683594149739E-02 
427	 7.31607659217201E-02 
428	 7.34960168345315E-02 
429	 7.37722644100054E-02 
430	 7.39221419768183E-02 
431	 7.39727928287321E-02 
432	 0.073999127631904 
433	 7.37970027778748E-02 
434	 7.35079501680681E-02 
435	 7.37785456175337E-02 
436	 7.40537061008304E-02 
437	 7.39878611945925E-02 
438	 7.40075999705377E-02 
439	 0.07411724764192 
440	 7.42128264099544E-02 
441	 7.43276731937001E-02 
442	 7.44746089050785E-02 
443	 7.47051616578737E-02 
444	 7.48382798540176E-02 
445	 7.47509419141407E-02 
446	 7.47319784765086E-02 
447	 7.48168103125265E-02 
448	 7.49806695226882E-02 
449	 7.50510519362627E-02 
450	 7.50033906310125E-02 
451	 7.50624153501965E-02 
452	 0.075129432466427 
453	 7.51209280238651E-02 
454	 7.55786259133833E-02 
455	 7.62525046589251E-02 
456	 7.61951772723581E-02 
457	 7.60491979812764E-02 
458	 7.60814019611864E-02 
459	 7.61976913758341E-02 
460	 7.63767915376712E-02 
461	 7.65871848202288E-02 
462	 7.62952831428266E-02 
463	 7.57672061490235E-02 
464	 7.61709647936454E-02 
465	 7.67021539954922E-02 
466	 7.69093579803001E-02 
467	 7.67384247132666E-02 
468	 7.66648985442459E-02 
469	 0.077383385004459 
470	 0.077689406474774 
471	 7.74902581492859E-02 
472	 7.76826008720396E-02 
473	 7.78074030468384E-02 
474	 7.76191407612197E-02 
475	 7.75932236100502E-02 
476	 7.76811761963596E-02 
477	 7.76678595282436E-02 
478	 7.78825780099763E-02 
479	 7.82623280836913E-02 
480	 0.078189516300595 
481	 7.79969562884501E-02 
482	 7.79698931526959E-02 
483	 7.79526438334485E-02 
484	 7.80800783718316E-02 
485	 7.87292757428083E-02 
486	 7.94153060400165E-02 
487	 7.97812714747643E-02 
488	 7.91635424010775E-02 
489	 7.85896510685709E-02 
490	 7.90872766299342E-02 
491	 7.96110195352117E-02 
492	 7.97949178266393E-02 
493	 7.92131545013897E-02 
494	 7.88125253740889E-02 
495	 7.89699595854705E-02 
496	 7.89998094989129E-02 
497	 7.91882224342108E-02 
498	 7.99792815336884E-02 
499	 8.03385446872132E-02 
500	 8.02269473523376E-02 
501	 8.04984461863372E-02 
502	 0.080666365936935 
503	 8.04945031981261E-02 
504	 8.04907454158286E-02 
505	 8.07002771582954E-02 
506	 8.11117533424329E-02 
507	 8.10896184254477E-02 
508	 0.080728201905507 
509	 8.12361165145567E-02 
510	 8.17041701093198E-02 
511	 8.14553911102921E-02 
512	 0.081690151336079 
513	 8.21662376768035E-02 
514	 8.18195742749492E-02 
515	 8.16339543032993E-02 
516	 8.19617249365963E-02 
517	 8.26554663758852E-02 
518	 8.31423369195546E-02 
519	 8.28571844632282E-02 
520	 0.082609963098686 
521	 8.25520961649514E-02 
522	 8.25235607191423E-02 
523	 8.27321125227871E-02 
524	 8.31714850623227E-02 
525	 8.31932989991772E-02 
526	 8.29566453833934E-02 
527	 8.27750860160513E-02 
528	 8.30491559277082E-02 
529	 0.083651409024258 
530	 8.37667009459898E-02 
531	 8.37846996337375E-02 
532	 8.39499604281844E-02 
533	 8.39638850470254E-02 
534	 8.39409138564924E-02 
535	 0.084171065244666 
536	 8.44589034140383E-02 
537	 8.47045460573113E-02 
538	 8.47558063484654E-02 
539	 8.48122351512572E-02 
540	 8.50618913020165E-02 
541	 8.52389356402839E-02 
542	 8.53353036828153E-02 
543	 8.55044697574045E-02 
544	 8.55346952872392E-02 
545	 8.53820250419925E-02 
546	 8.53240903624414E-02 
547	 0.085390756599605 
548	 8.55806812892245E-02 
549	 8.57163831484147E-02 
550	 8.58165617293098E-02 
551	 8.61664110441559E-02 
552	 8.63470751384979E-02 
553	 8.61484012722862E-02 
554	 8.61789836336832E-02 
555	 8.64017682199673E-02 
556	 8.66023520180233E-02 
557	 8.65865358907175E-02 
558	 8.63799307075777E-02 
559	 8.64300670487223E-02 
560	 8.66651207482595E-02 
561	 8.69721239301772E-02 
562	 8.69984168284265E-02 
563	 8.68973452647099E-02 
564	 8.72885335335222E-02 
565	 8.75126576106647E-02 
566	 8.73731386204195E-02 
567	 8.74838951591188E-02 
568	 8.75728145980125E-02 
569	 8.72324671678543E-02 
570	 8.72840943926774E-02 
571	 8.77251223034433E-02 
572	 8.78386975131512E-02 
573	 8.77991501049929E-02 
574	 8.77430979895685E-02 
575	 8.79549641567014E-02 
576	 8.81724919703577E-02 
577	 8.78202716713402E-02 
578	 8.77326589683873E-02 
579	 0.08806604588744 
580	 8.82569937501049E-02 
581	 8.83319428430786E-02 
582	 8.83369149217429E-02 
583	 8.83064007736537E-02 
584	 8.83518048377729E-02 
585	 8.87477626166159E-02 
586	 8.90775845919652E-02 
587	 8.91293089059512E-02 
588	 8.87779839097228E-02 
589	 8.85209650068885E-02 
590	 0.08900321359172 
591	 8.89647369297281E-02 
592	 8.85318187689663E-02 
593	 8.91935061811428E-02 
594	 8.96602318833478E-02 
595	 8.92695729602113E-02 
596	 8.91764389495096E-02 
597	 8.93639286906166E-02 
598	 8.95243745938345E-02 
599	 8.97395284319781E-02 
600	 8.99333052683894E-02 
601	 8.97286813244484E-02 
602	 8.95889139967115E-02 
603	 8.98871873844552E-02 
604	 8.98038401938595E-02 
605	 8.94540652835302E-02 
606	 8.94878340888571E-02 
607	 8.96300391599522E-02 
608	 0.08975237992792 
609	 8.96882345165128E-02 
610	 8.96328619486119E-02 
611	 8.98473763322432E-02 
612	 8.99253048302285E-02 
613	 8.98207221715911E-02 
614	 8.97165038300603E-02 
615	 8.97058208104299E-02 
616	 0.089842711009822 
617	 9.00212493758973E-02 
618	 9.01595712318709E-02 
619	 9.01581456450605E-02 
620	 9.00963062069028E-02 
621	 9.00313316038017E-02 
622	 9.01226313404681E-02 
623	 9.00429058311997E-02 
624	 8.95668077919719E-02 
625	 8.98580204158599E-02 
626	 9.06006267400995E-02 
627	 9.04018275446034E-02 
628	 9.02759663553446E-02 
629	 9.05256301582263E-02 
630	 9.05000697966268E-02 
631	 9.02898188807516E-02 
632	 9.00778344295417E-02 
633	 9.02476484007082E-02 
634	 9.06967663325894E-02 
635	 9.08063668276341E-02 
636	 9.06903179096548E-02 
637	 9.04648797451102E-02 
638	 9.04778816842769E-02 
639	 9.07493624417579E-02 
640	 0.091265662208444 
641	 9.12213230521138E-02 
642	 0.090622273637453 
643	 9.06925093688638E-02 
644	 9.10617166566349E-02 
645	 9.13264537704233E-02 
646	 9.10320618497212E-02 
647	 9.04740009133812E-02 
648	 9.06463614013697E-02 
649	 0.090996740597564 
650	 9.12893868191622E-02 
651	 9.15011725038004E-02 
652	 9.15997688990976E-02 
653	 9.15613285585091E-02 
654	 9.13222266652105E-02 
655	 9.10540623919669E-02 
656	 9.14550915518312E-02 
657	 9.16292640602361E-02 
658	 9.11348911001628E-02 
659	 9.09354031518032E-02 
660	 9.08428796409201E-02 
661	 9.03539311452503E-02 
662	 9.02109954228307E-02 
663	 0.09044317845722 
664	 9.02346046680385E-02 
665	 8.99217009496216E-02 
666	 8.98097264489491E-02 
667	 8.98379330063826E-02 
668	 8.98891067674883E-02 
669	 8.97402823284322E-02 
670	 0.089313131336908 
671	 8.87752648959723E-02 
672	 8.91903211612127E-02 
673	 8.98531885734416E-02 
674	 8.98757457781373E-02 
675	 8.98357509042184E-02 
676	 8.98642974892214E-02 
677	 8.99591927497427E-02 
678	 9.01238775654239E-02 
679	 9.03323986427537E-02 
680	 9.03571008200705E-02 
681	 9.04362233044127E-02 
682	 9.09913354685007E-02 
683	 0.091428616864661 
684	 9.16215237619471E-02 
685	 9.18425582144437E-02 
686	 9.20281868098261E-02 
687	 9.21299071920892E-02 
688	 9.23775171255514E-02 
689	 9.26999896831453E-02 
690	 9.29163162399335E-02 
691	 0.092959160209032 
692	 9.29154687054842E-02 
693	 9.32716881047091E-02 
694	 9.38301832610146E-02 
695	 9.43184536825149E-02 
696	 9.43625932379324E-02 
697	 9.41765427943412E-02 
698	 9.45997191040464E-02 
699	 9.47731098885146E-02 
700	 9.44084722482495E-02 
701	 9.45404663926822E-02 
702	 9.48870547340967E-02 
703	 9.49016226699696E-02 
704	 9.50569241316036E-02 
705	 9.53663172094012E-02 
706	 9.55433700516369E-02 
707	 0.095412541529878 
708	 9.50069962880645E-02 
709	 9.56742105571129E-02 
710	 9.67155914891178E-02 
711	 9.64995110517411E-02 
712	 9.63372479195429E-02 
713	 9.65340088192965E-02 
714	 9.65380704140193E-02 
715	 9.66016617135306E-02 
716	 9.69824301044512E-02 
717	 9.75583910121661E-02 
718	 9.79956153260284E-02 
719	 9.72778021078566E-02 
720	 9.69855010733298E-02 
721	 0.097531513580409 
722	 9.78500202427324E-02 
723	 9.78957161289437E-02 
724	 0.097648585807767 
725	 0.097501420058677 
726	 9.76243218541268E-02 
727	 9.81860236621595E-02 
728	 9.85037879635363E-02 
729	 9.83007210358535E-02 
730	 9.83934727656767E-02 
731	 9.85605292997431E-02 
732	 9.83788944213952E-02 
733	 9.82204623123075E-02 
734	 9.81426027447059E-02 
735	 9.79919078729426E-02 
736	 9.80154531751044E-02 
737	 9.83275433691491E-02 
738	 9.83723273813619E-02 
739	 9.82533429824733E-02 
740	 9.82941624336262E-02 
741	 9.85999091414404E-02 
742	 0.099070604068624 
743	 9.91473298264022E-02 
744	 9.90679181372503E-02 
745	 9.90584589705017E-02 
746	 9.91141802500357E-02 
747	 9.92198351236818E-02 
748	 9.93246652943003E-02 
749	 9.94497695392155E-02 
750	 9.95655108529235E-02 
751	 9.95059703655943E-02 
752	 9.94169391676008E-02 
753	 9.94657575017971E-02 
754	 9.96801828327585E-02 
755	 9.99153709856279E-02 
756	 9.97743102827907E-02 
757	 9.94780505845183E-02 
758	 9.91816377174064E-02 
759	 9.94607618439259E-02 
760	 0.100338713014297 
761	 0.100694383515652 
762	 0.101243708799894 
763	 0.101864672287448 
764	 0.101991876366319 
765	 0.101580527357502 
766	 0.100867675856112 
767	 0.10074318139457 
768	 0.100798908035254 
769	 0.100509836380347 
770	 0.100328714135641 
771	 0.100354860628487 
772	 0.100542819694441 
773	 0.100705794502947 
774	 0.100769033969781 
775	 0.101319402573903 
776	 0.101915618332593 
777	 0.101646377466801 
778	 0.101258394085851 
779	 0.101027108637272 
780	 0.101002278769154 
781	 0.101170966745992 
782	 0.101483214059816 
783	 0.101606347678881 
784	 0.101586891706488 
785	 0.101688823559507 
786	 0.101486750798244 
787	 0.101066925119906 
788	 0.101459076643546 
789	 0.102132585057459 
790	 0.102505187508275 
791	 0.102305356805557 
792	 0.101898288112879 
793	 0.102321125305677 
794	 0.102682718990565 
795	 0.102694682344991 
796	 0.102603374313437 
797	 0.102586163382694 
798	 0.10279178915657 
799	 0.102947582116791 
800	 0.102947871696732 
801	 0.102596985875306 
802	 0.102627876910579 
803	 0.103167977838716 
804	 0.103097112176152 
805	 0.102927766057054 
806	 0.103273623618632 
807	 0.103405033468196 
808	 0.103343713876346 
809	 0.103605130045901 
810	 0.103699626713993 
811	 0.103553363472902 
812	 0.104207262276988 
813	 0.104608539224167 
814	 0.103323285185346 
815	 0.102771584827689 
816	 0.103453186005587 
817	 0.104915267004086 
818	 0.104948337159584 
819	 0.103159993541556 
820	 0.103385490866569 
821	 0.104233895554124 
822	 0.103764139569771 
823	 0.10333820775465 
824	 0.103361606172111 
825	 0.104123855485624 
826	 0.104626108362404 
827	 0.104486785688415 
828	 0.10425387775682 
829	 0.104203172321163 
830	 0.104579197505823 
831	 0.104511517501686 
832	 0.104227406446788 
833	 0.10506506483087 
834	 0.105265028458398 
835	 0.10440934930157 
836	 0.104824333391454 
837	 0.105421952927982 
838	 0.104805294832934 
839	 0.104361027671804 
840	 0.10438444668166 
841	 0.104924389454725 
842	 0.104995259558423 
843	 0.104359166009567 
844	 0.104438819660656 
845	 0.104897627516667 
846	 0.105201174650057 
847	 0.104889498100709 
848	 0.104320937224023 
849	 0.104832534338048 
850	 0.105331637387519 
851	 0.105405140270614 
852	 0.105507196795728 
853	 0.10547016873545 
854	 0.10512873627976 
855	 0.105201076234259 
856	 0.10549923795163 
857	 0.105141803466035 
858	 0.105040470567032 
859	 0.105360187733283 
860	 0.105325414550546 
861	 0.105028015262038 
862	 0.104661563630369 
863	 0.105124691831775 
864	 0.105929530337078 
865	 0.105478361733298 
866	 0.105384403082229 
867	 0.105959797563431 
868	 0.10590128697292 
869	 0.105921858752207 
870	 0.106549311691389 
871	 0.106709087721809 
872	 0.106437862280402 
873	 0.1061350129323 
874	 0.105765453802304 
875	 0.105514213537665 
876	 0.106106817751506 
877	 0.10626364577186 
878	 0.105326775857893 
879	 0.105958100054426 
880	 0.107057344166945 
881	 0.106285114773764 
882	 0.105876363878207 
883	 0.10614920605625 
884	 0.105958480640108 
885	 0.106061122659082 
886	 0.106669320569674 
887	 0.106099973839335 
888	 0.105586400058668 
889	 0.10693751018398 
890	 0.108156199227589 
891	 0.10834689629872 
892	 0.106158681646986 
893	 0.104774413774686 
894	 0.105533974103285 
895	 0.105785444886834 
896	 0.105743907758401 
897	 0.105951328474068 
898	 0.107021929289823 
899	 0.108366189736166 
900	 0.108189420495477 
901	 0.108628143991221 
902	 0.109724196273507 
903	 0.108309098902604 
904	 0.107023662625787 
905	 0.107873421287395 
906	 0.108861617761977 
907	 0.109365762718858 
908	 0.108830555489329 
909	 0.108527092079133 
910	 0.108717648392802 
911	 0.108635968688301 
912	 0.109125960890088 
913	 0.110382077769402 
914	 0.110552243542712 
915	 0.109805817425529 
916	 0.108681652172917 
917	 0.108896686258648 
918	 0.109790319592151 
919	 0.108383705985598 
920	 0.107900692482613 
921	 0.108834585469276 
922	 0.107661271226266 
923	 0.106161070185599 
924	 0.106061832397111 
925	 0.106420981239677 
926	 0.107113035355931 
927	 0.108186989302322 
928	 0.1093354942191 
929	 0.109983751634811 
930	 0.108168175663944 
931	 0.107378842063224 
932	 0.109982112189179 
933	 0.108846575076441 
934	 0.107501200310527 
935	 0.112322831542484 
936	 0.112618332459861 
937	 0.109272047389068 
938	 0.111272591689402 
939	 0.111476668659612 
940	 0.109005470208373 
941	 0.110127760237848 
942	 0.111442773979014 
943	 0.110703090530588 
944	 0.112645230264769 
945	 0.113622092863682 
946	 0.107085182870915 
947	 0.10650535752932 
948	 0.111395411620685 
949	 0.107935971207756 
950	 0.106323377044694 
951	 0.109437169897598 
952	 0.108379970240635 
953	 0.106409901940501 
954	 0.106679790997527 
955	 0.104059398303461 
956	 0.101142680724309 
957	 0.103707157828651 
958	 0.106033622933964 
959	 0.10775420840866 
960	 0.113636381159867 
961	 0.116191005883262 
962	 0.112668920015845 
963	 0.109078974476762 
964	 0.106365383393405 
965	 0.105057016850452 
966	 0.108727927523862 
967	 0.111868648556771 
968	 0.102292977782354 
969	 0.101767409699381 
970	 0.111349835696345 
971	 0.111352506278744 
972	 0.109531363617957 
973	 0.110360817409868 
974	 0.113279821024387 
975	 0.114753985297471 
976	 0.111181825569245 
977	 0.106570060563322 
978	 0.105053153795779 
979	 0.113626798194472 
980	 0.116543769624018 
981	 0.111516946935327 
982	 0.109125824228569 
983	 0.106457056863772 
984	 0.103138939394373 
985	 0.10610357465358 
986	 0.110014732100336 
987	 0.108985780767411 
988	 0.109934023233254 
989	 0.112993460647493 
990	 0.116446612011942 
991	 0.113103976149174 
992	 0.104787387549534 
993	 0.105728609653624 
994	 0.107778935148736 
995	 0.10730514362065 
996	 0.109560597280266 
997	 0.110647544251552 
998	 0.107123655107184 
999	 0.107603613522669 
1000	 0.111562832178505 
1001	 0.115436893678071 
1002	 0.114860680828922 
1003	 0.11013192844298 
1004	 0.105722221040274 
1005	 0.107603102483067 
1006	 0.115104127885424 
1007	 0.111388806724735 
1008	 0.105150833729318 
1009	 0.104256861070924 
1010	 0.109556500677536 
1011	 0.113981144603247 
1012	 0.108380906673946 
1013	 0.103567079162003 
1014	 0.102943682301996 
1015	 0.108893194849794 
1016	 0.110610689996262 
1017	 0.106673475284581 
1018	 0.107530104387538 
1019	 0.106947014415256 
1020	 0.103442963713015 
1021	 0.109910853727809 
1022	 0.118332042259143 
1023	 0.119291262974474 
1024	 0.108786547354805 
1025	 0.100839403347832 
1026	 0.118897827583481 
1027	 0.120925685493074 
1028	 0.105728504541754 
1029	 0.102386896188882 
1030	 0.103449221457169 
1031	 0.105935649499601 
1032	 0.104055832869065 
1033	 0.106491414292388 
1034	 0.117622821844056 
1035	 0.129476693281117 
1036	 0.129541258165593 
1037	 0.108399506681094 
1038	 9.72048394693959E-02 
1039	 9.62409397425071E-02 
1040	 9.45749600242016E-02 
1041	 0.104204700611281 
1042	 0.118615154375518 
1043	 0.111049655264488 
1044	 0.104984956841994 
1045	 0.107502640438353 
1046	 0.110459943114125 
1047	 0.115344622269159 
1048	 0.121335948477495 
1049	 0.11888054627833 
1050	 0.112329693020491 
1051	 0.10672612574799 
1052	 0.105614956359023 
1053	 0.10823697850761 
1054	 0.111608532138528 
1055	 0.111334759573978 
1056	 0.109807518340995 
1057	 0.116127351468163 
1058	 0.117401630468827 
1059	 0.110557440755924 
1060	 9.84981284205499E-02 
1061	 0.095515549873169 
1062	 0.106267091485049 
1063	 0.119576459759644 
1064	 0.124200527844767 
1065	 0.11278563564061 
1066	 0.1021447944844 
1067	 0.101180748544803 
1068	 0.113164278233783 
1069	 9.68094869009685E-02 
1070	 8.46292422819882E-02 
1071	 0.143666789106947 
1072	 0.146427483885817 
1073	 9.88337352399889E-02 
1074	 8.57994394087205E-02 
1075	 0.105068183630019 
