Wavelength	AVEI200173.asd
325	 4.47091887536462E-02 
326	 4.08133908335711E-02 
327	 3.90947690036149E-02 
328	 4.03923432043534E-02 
329	 4.26111642830621E-02 
330	 4.43385627035216E-02 
331	 4.41587980520589E-02 
332	 4.16355243771094E-02 
333	 3.67592402939307E-02 
334	 3.50073007050608E-02 
335	 3.64288555368341E-02 
336	 3.95584725633618E-02 
337	 3.82475358725495E-02 
338	 3.34478250433638E-02 
339	 3.95710996051999E-02 
340	 4.51469110086906E-02 
341	 0.041329759090882 
342	 3.89498956247914E-02 
343	 3.92525684667619E-02 
344	 4.13336020728849E-02 
345	 4.21569537834634E-02 
346	 4.11316281747563E-02 
347	 0.039560429917792 
348	 3.93367271077493E-02 
349	 4.11998868199422E-02 
350	 4.04819599007057E-02 
351	 3.87462273167602E-02 
352	 3.94159754627738E-02 
353	 3.94192098049737E-02 
354	 3.84221291477025E-02 
355	 3.80723400162092E-02 
356	 3.74765376866364E-02 
357	 3.64650077357616E-02 
358	 3.83102617413224E-02 
359	 4.04279782993545E-02 
360	 3.85474926183768E-02 
361	 3.72187048290254E-02 
362	 3.73777162270973E-02 
363	 3.78934544098047E-02 
364	 3.93940759216906E-02 
365	 4.14422373422651E-02 
366	 0.039375625611097 
367	 3.62039848652576E-02 
368	 3.64154947145054E-02 
369	 3.65574211228167E-02 
370	 3.62190045896464E-02 
371	 3.68397885501588E-02 
372	 3.67618369725162E-02 
373	 3.54020788459432E-02 
374	 3.52860388111322E-02 
375	 3.57580274705892E-02 
376	 3.55570516346086E-02 
377	 3.41731148973054E-02 
378	 0.032398584526506 
379	 3.31707563190269E-02 
380	 3.41805364387134E-02 
381	 3.43118631889456E-02 
382	 3.47168385828351E-02 
383	 3.52044569265131E-02 
384	 3.54096522404248E-02 
385	 3.48968752261173E-02 
386	 3.38913452698857E-02 
387	 3.32443348427143E-02 
388	 3.35042494200228E-02 
389	 3.45336552325608E-02 
390	 3.39745381012046E-02 
391	 3.31634560726118E-02 
392	 3.38294762190902E-02 
393	 3.47316898649816E-02 
394	 3.51966696903106E-02 
395	 3.40405831126565E-02 
396	 3.35546692136054E-02 
397	 3.43971765076119E-02 
398	 3.42232540502762E-02 
399	 3.39816070420363E-02 
400	 3.47827920479497E-02 
401	 3.47253564506232E-02 
402	 3.38676347409186E-02 
403	 0.033016468198099 
404	 3.28897848872381E-02 
405	 3.34953472039203E-02 
406	 0.032846504160669 
407	 3.19609919456776E-02 
408	 3.22733843692811E-02 
409	 3.30939791491734E-02 
410	 3.37735666584969E-02 
411	 0.032963184125778 
412	 3.21001770190513E-02 
413	 3.19372751250975E-02 
414	 3.24481164931202E-02 
415	 3.29536897892136E-02 
416	 3.26220442914934E-02 
417	 3.23270934118094E-02 
418	 3.22753501788289E-02 
419	 3.24353256122766E-02 
420	 3.25337147923775E-02 
421	 3.24281201487792E-02 
422	 3.22577768673467E-02 
423	 3.22267214578728E-02 
424	 3.26064053026356E-02 
425	 3.26196105957012E-02 
426	 3.22414982924348E-02 
427	 3.21170136712328E-02 
428	 3.22277846441667E-02 
429	 3.25168636454121E-02 
430	 3.26351270580315E-02 
431	 3.25836469152385E-02 
432	 3.24660590044702E-02 
433	 3.22586060148364E-02 
434	 3.19917321488995E-02 
435	 0.031659582625742 
436	 3.17130352371477E-02 
437	 3.23132382457311E-02 
438	 0.032113291422584 
439	 3.15262834739758E-02 
440	 3.16478938692348E-02 
441	 3.18938908827146E-02 
442	 3.20687021901387E-02 
443	 3.21134618988221E-02 
444	 3.19943521258765E-02 
445	 3.17376178027383E-02 
446	 3.19116246673565E-02 
447	 3.23087818862626E-02 
448	 3.22680910454377E-02 
449	 3.21435117344522E-02 
450	 3.20834731944526E-02 
451	 3.22527501562508E-02 
452	 3.23491251778402E-02 
453	 0.032098209900949 
454	 3.22200052132611E-02 
455	 3.25473000885495E-02 
456	 0.03217913660335 
457	 3.20575457111253E-02 
458	 3.24231262431899E-02 
459	 3.22197495231907E-02 
460	 3.20035729546718E-02 
461	 3.25005587647266E-02 
462	 3.23772000401561E-02 
463	 3.17522882429749E-02 
464	 3.19306913184512E-02 
465	 3.22807403649418E-02 
466	 3.24217442071932E-02 
467	 3.20703426397041E-02 
468	 3.16485506969697E-02 
469	 3.18153656971377E-02 
470	 3.19841335133887E-02 
471	 3.20488363024645E-02 
472	 3.22448765011962E-02 
473	 3.23160534775512E-02 
474	 3.21178615700704E-02 
475	 3.18566148922659E-02 
476	 3.17310731578984E-02 
477	 3.20270775784136E-02 
478	 3.22786870862855E-02 
479	 3.23231112832975E-02 
480	 3.21500948372874E-02 
481	 3.20528792898779E-02 
482	 3.22407426382025E-02 
483	 3.22748705873557E-02 
484	 3.21102358836252E-02 
485	 3.17349182281117E-02 
486	 3.19618811890525E-02 
487	 3.28286758012865E-02 
488	 3.27920778733481E-02 
489	 0.032409997800911 
490	 3.23708116196408E-02 
491	 3.26050669561293E-02 
492	 3.29356449136014E-02 
493	 3.29339807063066E-02 
494	 3.27632706913515E-02 
495	 3.25474610022085E-02 
496	 3.25563636260138E-02 
497	 3.27517417054975E-02 
498	 0.033045379054342 
499	 3.31523524034577E-02 
500	 3.30957521495402E-02 
501	 3.32041705320762E-02 
502	 3.35035720594354E-02 
503	 3.39487134639115E-02 
504	 3.40119488227734E-02 
505	 3.40711309020932E-02 
506	 3.48902454069167E-02 
507	 3.53630544300197E-02 
508	 3.53170642885275E-02 
509	 3.53695109924906E-02 
510	 3.57238807180671E-02 
511	 3.64883114185854E-02 
512	 3.71516452956998E-02 
513	 3.75698928492093E-02 
514	 0.037564640654285 
515	 3.79983206259122E-02 
516	 3.90243221646649E-02 
517	 3.95399591532681E-02 
518	 3.97761396822533E-02 
519	 4.00896208397828E-02 
520	 4.08648170371567E-02 
521	 4.19664715612025E-02 
522	 4.28763145361939E-02 
523	 4.35322061897119E-02 
524	 4.39389698799391E-02 
525	 4.43966338084121E-02 
526	 4.49466595038838E-02 
527	 4.55865456501827E-02 
528	 4.61935701621187E-02 
529	 4.66986700267982E-02 
530	 0.046992776809478 
531	 4.74445497384714E-02 
532	 4.82383974941447E-02 
533	 4.86627035026522E-02 
534	 4.88066437391519E-02 
535	 4.90476551173458E-02 
536	 4.93063398566527E-02 
537	 4.96037146147059E-02 
538	 0.050073007528406 
539	 5.05301644394008E-02 
540	 5.07953324151377E-02 
541	 5.10044833635322E-02 
542	 5.12516843616985E-02 
543	 5.17296399587016E-02 
544	 5.20921096163004E-02 
545	 0.052233791342135 
546	 5.25079731242349E-02 
547	 0.052818879364475 
548	 5.29993227611708E-02 
549	 5.31405887168294E-02 
550	 5.32594396677416E-02 
551	 5.33001572090752E-02 
552	 0.053490789952648 
553	 5.39287431110851E-02 
554	 5.41511235164488E-02 
555	 0.054177558385581 
556	 5.41602519320086E-02 
557	 5.42846618289083E-02 
558	 5.45116006635451E-02 
559	 5.43099208191965E-02 
560	 5.41051786879284E-02 
561	 5.42792639973783E-02 
562	 5.42402404679838E-02 
563	 5.40217267065215E-02 
564	 5.40063216711451E-02 
565	 5.39768646523807E-02 
566	 5.38504146722045E-02 
567	 5.36779918070328E-02 
568	 5.34563750090398E-02 
569	 5.31774600718605E-02 
570	 5.27572576739354E-02 
571	 5.23213286375323E-02 
572	 5.23395968619124E-02 
573	 5.23450689175574E-02 
574	 5.20541416696167E-02 
575	 5.16877509416801E-02 
576	 5.13757428702127E-02 
577	 5.13067646960564E-02 
578	 5.11319679998172E-02 
579	 5.08043070459559E-02 
580	 5.06274173850197E-02 
581	 5.05790647528642E-02 
582	 5.06021138320514E-02 
583	 5.03377645241508E-02 
584	 4.99189706950851E-02 
585	 4.98531528020419E-02 
586	 4.98622281891631E-02 
587	 0.049818072233489 
588	 4.96414004106674E-02 
589	 4.93929726889212E-02 
590	 4.91745363620554E-02 
591	 4.89899350709199E-02 
592	 4.88521683194218E-02 
593	 4.87225139750725E-02 
594	 4.88687635339983E-02 
595	 4.93188848376297E-02 
596	 4.89853509745049E-02 
597	 4.82932540538464E-02 
598	 4.82167738014331E-02 
599	 4.83686864967049E-02 
600	 4.85522101773061E-02 
601	 4.84103180894559E-02 
602	 4.81258679580448E-02 
603	 4.78972906388526E-02 
604	 4.79294696961172E-02 
605	 4.81245628505212E-02 
606	 4.81965208944609E-02 
607	 4.79358353494772E-02 
608	 4.73649050885979E-02 
609	 4.72917428171185E-02 
610	 4.72901080453687E-02 
611	 4.67388419526221E-02 
612	 4.63179726008742E-02 
613	 4.61731480981931E-02 
614	 4.62297097548077E-02 
615	 0.046141421675328 
616	 4.57320945755614E-02 
617	 4.55000365625062E-02 
618	 4.54020816752953E-02 
619	 4.52360260333157E-02 
620	 4.50705414397799E-02 
621	 4.48807099603967E-02 
622	 4.44728255023717E-02 
623	 0.044180597404445 
624	 4.43057330635889E-02 
625	 4.46905554075047E-02 
626	 4.50350025572226E-02 
627	 4.46666222243182E-02 
628	 4.43347945048812E-02 
629	 4.43393327901962E-02 
630	 4.44185431621254E-02 
631	 4.45575854844174E-02 
632	 4.47597572859207E-02 
633	 4.49664601766515E-02 
634	 4.50619825430441E-02 
635	 4.47678813230919E-02 
636	 4.43962257130453E-02 
637	 4.41202457727092E-02 
638	 4.36575482441848E-02 
639	 4.31601853074791E-02 
640	 4.29630175142574E-02 
641	 4.26761308440239E-02 
642	 4.21720733515717E-02 
643	 4.14775407284327E-02 
644	 4.07576974224059E-02 
645	 4.01557458578425E-02 
646	 3.95740299965641E-02 
647	 3.91594701343779E-02 
648	 3.93856555673813E-02 
649	 0.039412766050804 
650	 3.89806425768211E-02 
651	 3.88327906294834E-02 
652	 3.87446482065536E-02 
653	 3.83789399332135E-02 
654	 3.80905685538961E-02 
655	 3.79611994499052E-02 
656	 3.79875064507754E-02 
657	 3.80401476797477E-02 
658	 3.79802071752284E-02 
659	 3.74990508449956E-02 
660	 3.68946340039029E-02 
661	 3.66802511229646E-02 
662	 3.64842484097188E-02 
663	 3.61847089800912E-02 
664	 3.57002919985862E-02 
665	 3.53414893719862E-02 
666	 3.53393043536698E-02 
667	 3.52143231912992E-02 
668	 3.49239451383882E-02 
669	 3.45063727327955E-02 
670	 3.45495204582123E-02 
671	 3.50376853393754E-02 
672	 3.44922782067264E-02 
673	 3.37872803631361E-02 
674	 3.40347165194486E-02 
675	 3.43136883502757E-02 
676	 3.44111668242558E-02 
677	 3.42749699622038E-02 
678	 3.44820589723444E-02 
679	 3.52162755427639E-02 
680	 3.53030985934615E-02 
681	 3.51676691401086E-02 
682	 3.57064738581461E-02 
683	 0.03620610282993 
684	 3.66309175100595E-02 
685	 3.76446528993141E-02 
686	 3.89198067772679E-02 
687	 4.01648695513228E-02 
688	 4.16990486071098E-02 
689	 4.33424250551607E-02 
690	 4.48796643514221E-02 
691	 0.046568599852531 
692	 4.85313524324925E-02 
693	 5.05893750901612E-02 
694	 0.052992103171911 
695	 5.58766483832808E-02 
696	 5.89306075938718E-02 
697	 6.19839548016158E-02 
698	 6.49299812311764E-02 
699	 6.81128268628996E-02 
700	 7.16168915098281E-02 
701	 7.51140138456127E-02 
702	 7.84947011538481E-02 
703	 0.081683378662995 
704	 8.51584175813411E-02 
705	 8.89334923007397E-02 
706	 9.25230411213287E-02 
707	 0.095810232982756 
708	 9.87715470551755E-02 
709	 0.101997606642474 
710	 0.105351201012936 
711	 0.108455724504264 
712	 0.111305828734458 
713	 0.11397527424075 
714	 0.116931197381479 
715	 0.119817368468404 
716	 0.1224129406296 
717	 0.124561164612941 
718	 0.126658582955074 
719	 0.129667916718921 
720	 0.132589301064582 
721	 0.134818227520158 
722	 0.136425238258617 
723	 0.138022179615719 
724	 0.140113089907991 
725	 0.141892901965831 
726	 0.143249154051358 
727	 0.144924062442609 
728	 0.146613355626281 
729	 0.148180643531802 
730	 0.149789214167621 
731	 0.151185499317811 
732	 0.152016471761263 
733	 0.153016296370918 
734	 0.154266470736317 
735	 0.155317412669064 
736	 0.156406247946656 
737	 0.157596145136433 
738	 0.158373361269555 
739	 0.158962229780289 
740	 0.159931840688846 
741	 0.160467409594538 
742	 0.160599208241075 
743	 0.161509793648467 
744	 0.162580647655566 
745	 0.163265827124843 
746	 0.163805955040324 
747	 0.164218125356456 
748	 0.164411839807924 
749	 0.164900712809584 
750	 0.165708996321216 
751	 0.165790197013774 
752	 0.165875062945818 
753	 0.166772487848207 
754	 0.16738940531003 
755	 0.167698386646602 
756	 0.168349333425984 
757	 0.168702042649605 
758	 0.168558971865182 
759	 0.168721409151514 
760	 0.169346183109391 
761	 0.169913919359644 
762	 0.169943049767135 
763	 0.16993204401298 
764	 0.171236114212988 
765	 0.172183113601903 
766	 0.172278722781881 
767	 0.172232260213416 
768	 0.172352957793411 
769	 0.172935741585141 
770	 0.173538260229851 
771	 0.174023137755452 
772	 0.174369110271547 
773	 0.174580107964076 
774	 0.174698927223681 
775	 0.175064106365904 
776	 0.175489946453604 
777	 0.175535552885341 
778	 0.175890144384382 
779	 0.176534633065094 
780	 0.176441553734976 
781	 0.176470532062449 
782	 0.177251368432142 
783	 0.177665658506004 
784	 0.177794556895053 
785	 0.178245531408339 
786	 0.178388555762135 
787	 0.178195156294807 
788	 0.178515138517591 
789	 0.179041600745152 
790	 0.179414672018871 
791	 0.179339742548344 
792	 0.179139918072343 
793	 0.179778607084297 
794	 0.180189953026222 
795	 0.18008201444042 
796	 0.180058224096535 
797	 0.180159519596156 
798	 0.180395110082316 
799	 0.180889622294342 
800	 0.181402887661944 
801	 0.18122772726206 
802	 0.181041306297643 
803	 0.181184168548564 
804	 0.181862481285358 
805	 0.182542924571802 
806	 0.182662201972542 
807	 0.182638482262446 
808	 0.182669154532336 
809	 0.183040694778034 
810	 0.183499872605809 
811	 0.183852018203162 
812	 0.18371398843839 
813	 0.183315141790616 
814	 0.183034840658136 
815	 0.183313334621762 
816	 0.184127439080995 
817	 0.184911874501904 
818	 0.185612190696919 
819	 0.186184211904903 
820	 0.186768802698245 
821	 0.187252290380776 
822	 0.187480430931278 
823	 0.187525512093576 
824	 0.187744459441065 
825	 0.189192340966717 
826	 0.189901459299019 
827	 0.189231919910506 
828	 0.188727761233947 
829	 0.188725287315868 
830	 0.189416181345023 
831	 0.190190415254007 
832	 0.190870532662697 
833	 0.191561432544497 
834	 0.191732328027059 
835	 0.19130236815338 
836	 0.191077640071275 
837	 0.191393294909847 
838	 0.1924849134054 
839	 0.193071750105874 
840	 0.192966402800899 
841	 0.192440352686649 
842	 0.192327257105254 
843	 0.192904874624751 
844	 0.193277357613003 
845	 0.193380837108535 
846	 0.193265901525771 
847	 0.193711169142741 
848	 0.194483024683045 
849	 0.194410621269101 
850	 0.194371062851774 
851	 0.194577124860908 
852	 0.194070646292151 
853	 0.193563332246363 
854	 0.193867598899508 
855	 0.194544801552643 
856	 0.195106223957151 
857	 0.194516486706278 
858	 0.194479470421275 
859	 0.195361414046149 
860	 0.195754605248272 
861	 0.195920188058181 
862	 0.196127297849515 
863	 0.195495761815762 
864	 0.194782855197575 
865	 0.196154755632347 
866	 0.197059435285092 
867	 0.196828742550417 
868	 0.196785177711014 
869	 0.197213868674201 
870	 0.198196393721351 
871	 0.198627468316929 
872	 0.198485987245697 
873	 0.198012996700451 
874	 0.198615761388101 
875	 0.200176088335648 
876	 0.200179153249151 
877	 0.200274056518036 
878	 0.201509696916185 
879	 0.202134282167233 
880	 0.20237143229129 
881	 0.202966014459625 
882	 0.203792069690304 
883	 0.204618803436231 
884	 0.204808132908968 
885	 0.204597791351297 
886	 0.204346279517912 
887	 0.205312308747589 
888	 0.206885927799336 
889	 0.20805108826894 
890	 0.207815061598198 
891	 0.206725591294079 
892	 0.207288230186498 
893	 0.208456467389603 
894	 0.209424249898349 
895	 0.208277961728067 
896	 0.206964246795749 
897	 0.20797135574638 
898	 0.208490586925518 
899	 0.20840441824551 
900	 0.209037746223038 
901	 0.209081576289503 
902	 0.208654486535547 
903	 0.2103509119848 
904	 0.211201816990336 
905	 0.209299725667904 
906	 0.209971543256268 
907	 0.211860116701931 
908	 0.211150515752494 
909	 0.210640078008591 
910	 0.210455467151625 
911	 0.207777196396832 
912	 0.206282699897952 
913	 0.20793187227549 
914	 0.210064586462127 
915	 0.211441411145296 
916	 0.211003802021263 
917	 0.209659102523888 
918	 0.20855747022131 
919	 0.210118650000818 
920	 0.21106908305495 
921	 0.210548835002828 
922	 0.210612474349585 
923	 0.211090235873627 
924	 0.21160440440308 
925	 0.210586824158455 
926	 0.208278617212887 
927	 0.205848145531403 
928	 0.204006194107023 
929	 0.20313148632621 
930	 0.203207268801989 
931	 0.200328004392361 
932	 0.19296395441723 
933	 0.199061531880695 
934	 0.208451305300221 
935	 0.201754721638575 
936	 0.195463850785672 
937	 0.193662649632658 
938	 0.196452564122456 
939	 0.19400895354693 
940	 0.185739210701815 
941	 0.184530392586241 
942	 0.185631206686171 
943	 0.185178012868863 
944	 0.183526617177462 
945	 0.182350791398354 
946	 0.184170791599384 
947	 0.186373065338001 
948	 0.187382740920351 
949	 0.185687706995003 
950	 0.178726522629546 
951	 0.168546961221678 
952	 0.171937501308466 
953	 0.176054919394976 
954	 0.169781415434637 
955	 0.173713412861628 
956	 0.18033579445957 
957	 0.170672911243784 
958	 0.169421432445193 
959	 0.176250382067492 
960	 0.16826331911203 
961	 0.161861477599868 
962	 0.163930832614613 
963	 0.165198319850665 
964	 0.165117392226578 
965	 0.164201620353076 
966	 0.168017122476339 
967	 0.172480888853772 
968	 0.167835242197894 
969	 0.166290576081421 
970	 0.169731986978816 
971	 0.172079743535152 
972	 0.172918968357993 
973	 0.171950078221875 
974	 0.168951242840622 
975	 0.167529357953823 
976	 0.171034467681463 
977	 0.170930776300867 
978	 0.16808355136918 
979	 0.167958747922896 
980	 0.167771912645428 
981	 0.167566217101499 
982	 0.170267051857316 
983	 0.172545587179279 
984	 0.172479631712231 
985	 0.170133152724718 
986	 0.169009151182306 
987	 0.172601592913939 
988	 0.17816543597713 
989	 0.181169163056905 
990	 0.173589306750592 
991	 0.170192040018821 
992	 0.174148297590959 
993	 0.179833792553161 
994	 0.182476695351229 
995	 0.180395981228423 
996	 0.180576012059555 
997	 0.181095237363801 
998	 0.179707380064511 
999	 0.178722482082331 
1000	 0.178526554043735 
1001	 0.179071072965385 
1002	 0.180752541631213 
1003	 0.182810017716829 
1004	 0.182778867533341 
1005	 0.182757573212597 
1006	 0.184067597721406 
1007	 0.188673019341512 
1008	 0.191712660700756 
1009	 0.189907928633593 
1010	 0.189913783048188 
1011	 0.189022187087711 
1012	 0.182888950266079 
1013	 0.186983862128451 
1014	 0.198012080350231 
1015	 0.200702613790412 
1016	 0.193016589170414 
1017	 0.180130236144831 
1018	 0.18689757300187 
1019	 0.192309336283913 
1020	 0.187522147613424 
1021	 0.198013809761898 
1022	 0.2088716724998 
1023	 0.204809384109651 
1024	 0.208664507550512 
1025	 0.215894130305738 
1026	 0.213207799966687 
1027	 0.208168103793272 
1028	 0.203844254961768 
1029	 0.203054246480569 
1030	 0.203646792896843 
1031	 0.204063444452789 
1032	 0.20031537202763 
1033	 0.202452864472166 
1034	 0.213735103796461 
1035	 0.211761014095519 
1036	 0.205282905357811 
1037	 0.206092178898039 
1038	 0.215399028610474 
1039	 0.22629102503405 
1040	 0.227364032386317 
1041	 0.218364867907792 
1042	 0.205240742908135 
1043	 0.206729239396461 
1044	 0.210126641221657 
1045	 0.212828724871613 
1046	 0.227259122751629 
1047	 0.221403717428134 
1048	 0.187221203192524 
1049	 0.199259778112578 
1050	 0.21926075115007 
1051	 0.206154866599527 
1052	 0.193989916822393 
1053	 0.197480178521708 
1054	 0.228315189855758 
1055	 0.21760555704608 
1056	 0.183683040120579 
1057	 0.211259639216457 
1058	 0.226597827037782 
1059	 0.214615553763835 
1060	 0.201076711285072 
1061	 0.205546206966886 
1062	 0.227326531517467 
1063	 0.210047512246409 
1064	 0.194533456378484 
1065	 0.209234237831942 
1066	 0.210584363570767 
1067	 0.207185715883281 
1068	 0.211791672846101 
1069	 0.206200863146359 
1070	 0.195981028495992 
1071	 0.194304741658867 
1072	 0.198596622588279 
1073	 0.207700549291445 
1074	 0.218981633632244 
1075	 0.232145042813282 
