Wavelength	AVEI200137.asd
325	 4.83423590014529E-02 
326	 3.95345674102569E-02 
327	 0.026646967189946 
328	 3.45146777477144E-02 
329	 4.22731575918996E-02 
330	 4.25759950654673E-02 
331	 4.17606950275671E-02 
332	 3.99379127872353E-02 
333	 3.69702189992524E-02 
334	 3.56332531762222E-02 
335	 3.54075190305306E-02 
336	 3.36206328351557E-02 
337	 3.32262759799445E-02 
338	 3.50199451867702E-02 
339	 3.88798435600896E-02 
340	 3.97608691133744E-02 
341	 3.46879300177243E-02 
342	 0.035601363906472 
343	 3.96692982447181E-02 
344	 3.80120178830206E-02 
345	 0.036688807197129 
346	 3.68634665802556E-02 
347	 3.66063604603903E-02 
348	 3.63738305108009E-02 
349	 3.63842790281208E-02 
350	 3.53736321559599E-02 
351	 3.45447536132782E-02 
352	 3.60727209420298E-02 
353	 0.036249678126098 
354	 3.49169956521961E-02 
355	 3.51950489130036E-02 
356	 3.48744757413301E-02 
357	 3.30944947944139E-02 
358	 3.41845774930708E-02 
359	 3.60147494580202E-02 
360	 3.47615163433987E-02 
361	 3.34715856378225E-02 
362	 3.31109734229125E-02 
363	 3.42036066531113E-02 
364	 3.52549077768853E-02 
365	 3.54015794726527E-02 
366	 3.49284604331173E-02 
367	 3.44328455783315E-02 
368	 3.46474617731853E-02 
369	 3.38872622986782E-02 
370	 3.23755970403496E-02 
371	 3.20234511827031E-02 
372	 3.22276462293563E-02 
373	 3.26228871237763E-02 
374	 3.31543104140263E-02 
375	 3.29254135028987E-02 
376	 3.08411829100034E-02 
377	 0.030252582517434 
378	 0.031078419609721 
379	 0.030077763921663 
380	 2.95372998337266E-02 
381	 0.030557810001194 
382	 3.25649442907989E-02 
383	 3.38446317944413E-02 
384	 3.23696613731238E-02 
385	 3.11887433990155E-02 
386	 3.10281596112595E-02 
387	 3.15969084894343E-02 
388	 3.16155535123086E-02 
389	 3.06465291939139E-02 
390	 2.99972556996814E-02 
391	 2.98406182942226E-02 
392	 3.02048055187266E-02 
393	 3.11777169250742E-02 
394	 3.19570286526856E-02 
395	 3.02480025897853E-02 
396	 2.94484723368841E-02 
397	 0.030525113369396 
398	 3.00254838397882E-02 
399	 2.94153496309271E-02 
400	 3.03933470729952E-02 
401	 3.03502937083042E-02 
402	 0.029487715851125 
403	 2.93743772323262E-02 
404	 2.96532245964466E-02 
405	 3.00018411815199E-02 
406	 0.029336660324957 
407	 2.84398267775286E-02 
408	 0.028369808603132 
409	 0.028732116027323 
410	 0.029114055514481 
411	 2.86070187639415E-02 
412	 2.81100477043261E-02 
413	 2.80889756957826E-02 
414	 2.85421612730119E-02 
415	 2.89445193090429E-02 
416	 2.86497919826473E-02 
417	 2.86963218493889E-02 
418	 2.90568993470479E-02 
419	 2.88773019272521E-02 
420	 2.85829566614238E-02 
421	 2.84402194474751E-02 
422	 2.85764095178313E-02 
423	 2.87931549589489E-02 
424	 2.87927150592962E-02 
425	 2.85956646284479E-02 
426	 2.83211529062422E-02 
427	 2.83653372487829E-02 
428	 2.84782942324982E-02 
429	 2.84900066820101E-02 
430	 2.84238103913669E-02 
431	 2.84013618975328E-02 
432	 2.86247151265197E-02 
433	 2.87296743092511E-02 
434	 0.028630283918332 
435	 2.84250778650648E-02 
436	 0.028213006926638 
437	 2.80737649592332E-02 
438	 2.81004770621908E-02 
439	 2.81799320156267E-02 
440	 0.028082664390014 
441	 2.80094016615092E-02 
442	 2.80355803679939E-02 
443	 2.82290654941657E-02 
444	 2.83253480562016E-02 
445	 2.81403962504827E-02 
446	 2.80979274159523E-02 
447	 0.028211794991809 
448	 2.83624880465901E-02 
449	 2.84324234394305E-02 
450	 2.83883462713526E-02 
451	 2.83430602869485E-02 
452	 2.82822159610875E-02 
453	 2.82041110421657E-02 
454	 2.84894401153446E-02 
455	 2.89308641429288E-02 
456	 2.87649119738505E-02 
457	 2.86035471610339E-02 
458	 0.028619162018425 
459	 0.028228738323794 
460	 2.78733661035465E-02 
461	 2.81072530074136E-02 
462	 2.83289588355882E-02 
463	 2.84435031904848E-02 
464	 2.86391267502631E-02 
465	 2.87973265237765E-02 
466	 2.88089539769786E-02 
467	 2.83662810702882E-02 
468	 2.79370550871079E-02 
469	 2.82375452619765E-02 
470	 2.83653609234339E-02 
471	 2.82138110075882E-02 
472	 2.83075254127343E-02 
473	 2.84483660550553E-02 
474	 2.84890534165524E-02 
475	 2.83163007339123E-02 
476	 2.80969375568618E-02 
477	 0.028138088409646 
478	 2.82588449040358E-02 
479	 0.028377391036935 
480	 2.84239276387278E-02 
481	 2.83339883585759E-02 
482	 2.81018910734371E-02 
483	 2.82711017402309E-02 
484	 2.86493030745796E-02 
485	 2.85314163983886E-02 
486	 2.85549356082865E-02 
487	 2.88561227118022E-02 
488	 2.89065721905407E-02 
489	 2.88177330150789E-02 
490	 2.87513623643137E-02 
491	 2.89063654995531E-02 
492	 2.90880669708344E-02 
493	 2.86119262526662E-02 
494	 2.83737126875125E-02 
495	 2.86735436540761E-02 
496	 2.86810944391304E-02 
497	 2.86438169613685E-02 
498	 2.89784025069764E-02 
499	 2.91360226388306E-02 
500	 2.90802060883297E-02 
501	 0.029116147394651 
502	 2.94317363117677E-02 
503	 3.00538602783719E-02 
504	 0.030215100633202 
505	 3.02391707675999E-02 
506	 3.08574878151487E-02 
507	 3.11359960583337E-02 
508	 3.10178740800993E-02 
509	 0.031355979116254 
510	 3.18699430508163E-02 
511	 3.23028276695739E-02 
512	 3.25979277452553E-02 
513	 3.27385299010478E-02 
514	 3.26458641728216E-02 
515	 3.29706088197124E-02 
516	 3.38220363487431E-02 
517	 3.43322725409882E-02 
518	 3.45861174693022E-02 
519	 3.47633177864112E-02 
520	 3.51270080013596E-02 
521	 3.57711750747743E-02 
522	 3.68531253934805E-02 
523	 3.75973776345583E-02 
524	 0.037713606689918 
525	 3.78832015088377E-02 
526	 3.82877338229022E-02 
527	 3.90695869690125E-02 
528	 3.95051308936688E-02 
529	 3.95968895279691E-02 
530	 4.00501616190522E-02 
531	 0.040755410254494 
532	 0.041558512820038 
533	 4.17581726872347E-02 
534	 0.041615730666067 
535	 4.18219948190164E-02 
536	 4.22429730395718E-02 
537	 4.27688598730605E-02 
538	 4.30247332381994E-02 
539	 4.31795102223419E-02 
540	 0.043412376862183 
541	 4.36277843185017E-02 
542	 4.38303695209977E-02 
543	 4.40731948467535E-02 
544	 4.43183415327122E-02 
545	 4.45284273359743E-02 
546	 4.45710485867049E-02 
547	 4.46338364208173E-02 
548	 4.49698595878903E-02 
549	 4.51606350266858E-02 
550	 4.52044348277712E-02 
551	 4.54985947506907E-02 
552	 4.56885657507571E-02 
553	 4.55883013593095E-02 
554	 4.56400910706727E-02 
555	 0.045801395451503 
556	 4.58705136168151E-02 
557	 4.59983168106501E-02 
558	 4.61602537593663E-02 
559	 4.60571617738482E-02 
560	 4.58974840554494E-02 
561	 4.58837243043493E-02 
562	 4.59265285813976E-02 
563	 4.59342500463936E-02 
564	 4.57000559100673E-02 
565	 4.55147160246117E-02 
566	 4.54692229691279E-02 
567	 4.53095584220845E-02 
568	 4.50945515084363E-02 
569	 4.49272258863932E-02 
570	 4.46736716909236E-02 
571	 4.43888433732195E-02 
572	 0.04438349579076 
573	 4.42540179558649E-02 
574	 4.38026627507552E-02 
575	 0.043613495241581 
576	 4.35376570055313E-02 
577	 0.043144007317557 
578	 4.29142904958102E-02 
579	 4.29128527247222E-02 
580	 4.26947019256528E-02 
581	 4.25642116730754E-02 
582	 4.27612714528764E-02 
583	 4.26556853964198E-02 
584	 4.22864500675237E-02 
585	 4.20523285556766E-02 
586	 0.041824560358612 
587	 4.16157425178532E-02 
588	 4.17333575446237E-02 
589	 4.18692115899245E-02 
590	 4.15908869830725E-02 
591	 4.13215994871428E-02 
592	 4.11968016800836E-02 
593	 4.12742561013529E-02 
594	 4.13280783657571E-02 
595	 4.12282330429234E-02 
596	 4.11357540941656E-02 
597	 4.10297324273652E-02 
598	 4.08147473129783E-02 
599	 4.08376932937715E-02 
600	 4.11193721447993E-02 
601	 4.12763194073479E-02 
602	 4.12448216384609E-02 
603	 4.10045365368591E-02 
604	 4.08255356173305E-02 
605	 4.07946608862058E-02 
606	 4.10373619502796E-02 
607	 4.09936901333119E-02 
608	 0.040524260255628 
609	 4.03643469531724E-02 
610	 4.03300652972175E-02 
611	 4.01061137468053E-02 
612	 3.99254752617718E-02 
613	 3.98050091824239E-02 
614	 3.96258302525419E-02 
615	 3.94145771061012E-02 
616	 3.92150483580204E-02 
617	 3.92558813806756E-02 
618	 3.93198424243754E-02 
619	 3.89753320696387E-02 
620	 3.87188729044063E-02 
621	 3.86402194081741E-02 
622	 3.84009143562863E-02 
623	 3.82535247658717E-02 
624	 3.84287092416507E-02 
625	 3.87849691002198E-02 
626	 3.91086765121586E-02 
627	 3.89560836820311E-02 
628	 3.87556716313191E-02 
629	 3.86756279562002E-02 
630	 3.85459886365056E-02 
631	 3.84929123609092E-02 
632	 3.86786148175294E-02 
633	 3.88489338916677E-02 
634	 3.88977720252119E-02 
635	 3.87522967276328E-02 
636	 0.038476598050348 
637	 3.81165695434507E-02 
638	 3.76575560121038E-02 
639	 3.72186958496179E-02 
640	 3.70051966542496E-02 
641	 3.67669071281299E-02 
642	 3.64336075765085E-02 
643	 0.036082243940122 
644	 3.56958526034763E-02 
645	 3.52577961737563E-02 
646	 3.47467346270505E-02 
647	 3.43815371799258E-02 
648	 3.48101159491671E-02 
649	 3.48857682474602E-02 
650	 3.42767525388631E-02 
651	 3.40365357447006E-02 
652	 3.40715637128574E-02 
653	 3.41560718476393E-02 
654	 3.38174096967466E-02 
655	 3.32667260917252E-02 
656	 3.37870053065132E-02 
657	 3.41803303331369E-02 
658	 3.37749057260646E-02 
659	 3.33763834366834E-02 
660	 3.30667409505931E-02 
661	 3.28169209306437E-02 
662	 3.25618132314162E-02 
663	 3.22738315094113E-02 
664	 0.031902684104033 
665	 3.16760772299865E-02 
666	 3.17567525215024E-02 
667	 3.17466212684265E-02 
668	 3.15678885049325E-02 
669	 3.11585073955765E-02 
670	 3.10926259338371E-02 
671	 3.14387680216937E-02 
672	 3.11895491683362E-02 
673	 3.08693900028073E-02 
674	 3.11535554906035E-02 
675	 3.13629880786528E-02 
676	 0.03143647335964 
677	 3.17044356007016E-02 
678	 3.18403470338325E-02 
679	 3.17412165028824E-02 
680	 3.19898649754256E-02 
681	 3.24428575957634E-02 
682	 3.27628232790627E-02 
683	 3.30422699856828E-02 
684	 0.033427131829383 
685	 3.44376556408732E-02 
686	 3.55962172049791E-02 
687	 3.64483546333914E-02 
688	 3.71501141235932E-02 
689	 3.79653870773269E-02 
690	 3.94970130090983E-02 
691	 4.12880295345786E-02 
692	 4.31961976703857E-02 
693	 4.50701782967508E-02 
694	 4.70892046055772E-02 
695	 4.93468703319248E-02 
696	 5.16339730236803E-02 
697	 5.39630181220195E-02 
698	 5.65936110170305E-02 
699	 5.94289807841413E-02 
700	 6.23433609697235E-02 
701	 6.50771370160661E-02 
702	 6.78867319374978E-02 
703	 7.11717320458776E-02 
704	 7.41755345062139E-02 
705	 7.68997183778898E-02 
706	 7.99608778977515E-02 
707	 8.27608976556377E-02 
708	 8.50054521709943E-02 
709	 8.77091937486181E-02 
710	 9.07227535637286E-02 
711	 9.35408438328839E-02 
712	 9.61388777233099E-02 
713	 9.85017070719168E-02 
714	 0.100777611955228 
715	 0.103011695448997 
716	 0.105341762082085 
717	 0.10730611279534 
718	 0.109172835938554 
719	 0.111745399079672 
720	 0.114340344966593 
721	 0.116449158676831 
722	 0.117936343935539 
723	 0.119320577884575 
724	 0.121026159795794 
725	 0.12273742905325 
726	 0.124206238938485 
727	 0.125318111152151 
728	 0.126591821179513 
729	 0.128202181348882 
730	 0.129345625712749 
731	 0.130264029772619 
732	 0.131402215052925 
733	 0.132394852688693 
734	 0.133268645282083 
735	 0.134283441307019 
736	 0.135325946115008 
737	 0.136271357944474 
738	 0.137112990655588 
739	 0.13778022578222 
740	 0.138149054195279 
741	 0.138356848110775 
742	 0.13863247299796 
743	 0.139658674320234 
744	 0.140692646235241 
745	 0.141128132696038 
746	 0.141637147980776 
747	 0.142207409955122 
748	 0.142525762071783 
749	 0.142875795881016 
750	 0.143325660176663 
751	 0.143602477264347 
752	 0.144032238973194 
753	 0.144932662212776 
754	 0.145244006694792 
755	 0.145161951709771 
756	 0.145910014429447 
757	 0.146578273761448 
758	 0.14682362390945 
759	 0.147094819123743 
760	 0.147539004271603 
761	 0.147914396632265 
762	 0.148148338899639 
763	 0.148407078276746 
764	 0.149076473425666 
765	 0.149704050780853 
766	 0.150079924442599 
767	 0.150128301723964 
768	 0.150179812255021 
769	 0.150595210438462 
770	 0.15112823139184 
771	 0.151693896498413 
772	 0.152304781650577 
773	 0.152476456727088 
774	 0.152044167786007 
775	 0.152566722159498 
776	 0.153564593191256 
777	 0.153778174538718 
778	 0.153924382491947 
779	 0.154145853753969 
780	 0.154127598287767 
781	 0.154322730746252 
782	 0.155033194355682 
783	 0.155456615028179 
784	 0.155564634503119 
785	 0.155572770748648 
786	 0.155804951109813 
787	 0.156283797248807 
788	 0.15643278888293 
789	 0.15653164608781 
790	 0.156853236217213 
791	 0.15708757324984 
792	 0.157277072914367 
793	 0.157712682935199 
794	 0.157832790204795 
795	 0.157543281792799 
796	 0.157430068697934 
797	 0.157609210383931 
798	 0.158133608149283 
799	 0.158653127898399 
800	 0.159077285736746 
801	 0.159415350442655 
802	 0.159552969763244 
803	 0.159568397046817 
804	 0.160109608125153 
805	 0.160734793355634 
806	 0.160943285375658 
807	 0.161225502244956 
808	 0.161621995052182 
809	 0.1619560270352 
810	 0.162288417871734 
811	 0.162600971034318 
812	 0.162717250760061 
813	 0.162503010500204 
814	 0.161834795859014 
815	 0.161834900625538 
816	 0.162663648607462 
817	 0.163719249409996 
818	 0.16438980920619 
819	 0.164558421358126 
820	 0.165510441373943 
821	 0.166328433855448 
822	 0.165865630110763 
823	 0.166115865468426 
824	 0.167159426988181 
825	 0.167989926716783 
826	 0.168313943489724 
827	 0.16807732230176 
828	 0.167852716380387 
829	 0.168048045387191 
830	 0.16902118701457 
831	 0.169328267742981 
832	 0.169137567629112 
833	 0.169967315628553 
834	 0.170540160075378 
835	 0.170399138702662 
836	 0.170151010007865 
837	 0.170361770549133 
838	 0.171553422639644 
839	 0.172474141117009 
840	 0.17283102920681 
841	 0.172613963965597 
842	 0.172627213217933 
843	 0.173154212601216 
844	 0.173445037900029 
845	 0.173620304992615 
846	 0.17388056738226 
847	 0.174122395211712 
848	 0.174190648121434 
849	 0.173589912839672 
850	 0.173596313165628 
851	 0.174511364493568 
852	 0.174628561969402 
853	 0.174370817384673 
854	 0.174357639101395 
855	 0.174722620150785 
856	 0.175123186107263 
857	 0.174560949927608 
858	 0.17433616573655 
859	 0.174826659459538 
860	 0.175429578049047 
861	 0.176010093212411 
862	 0.176430441042938 
863	 0.176194427959633 
864	 0.175772860816779 
865	 0.176521529256701 
866	 0.176790263929315 
867	 0.176390468829029 
868	 0.177208463560645 
869	 0.178152027909554 
870	 0.178366076888503 
871	 0.179331130402882 
872	 0.180251015815455 
873	 0.179140767274407 
874	 0.178555082063206 
875	 0.179299864547434 
876	 0.181110630901046 
877	 0.182568315403222 
878	 0.182739030709464 
879	 0.182875630111108 
880	 0.183441130093885 
881	 0.184884449748847 
882	 0.185581121607248 
883	 0.185403687270479 
884	 0.185658145432178 
885	 0.18596266244455 
886	 0.186229387856064 
887	 0.187235982215757 
888	 0.18846281564097 
889	 0.189120976492245 
890	 0.188736564798469 
891	 0.187854987533466 
892	 0.188462367337061 
893	 0.189921312300209 
894	 0.191337816673453 
895	 0.188955616045671 
896	 0.186741644803925 
897	 0.189651435128405 
898	 0.191144940120495 
899	 0.191045535001839 
900	 0.192868924735601 
901	 0.192653511624829 
902	 0.190462783692692 
903	 0.192525652096018 
904	 0.193979449240554 
905	 0.19150438650033 
906	 0.19244310978792 
907	 0.195166493701174 
908	 0.194920327587472 
909	 0.193812005934699 
910	 0.192447956353717 
911	 0.190706631813688 
912	 0.190374842857596 
913	 0.192079087802865 
914	 0.19245385312747 
915	 0.192486428078741 
916	 0.193735523361121 
917	 0.193226150165408 
918	 0.191856424739971 
919	 0.193730010761864 
920	 0.194723176607932 
921	 0.193891519331472 
922	 0.194184095369392 
923	 0.194997509660962 
924	 0.195611354109111 
925	 0.195605499771232 
926	 0.194771283324633 
927	 0.192946104445276 
928	 0.189678462591811 
929	 0.185590036283776 
930	 0.184604136353962 
931	 0.182921257275178 
932	 0.178889921810825 
933	 0.187596197790812 
934	 0.198836648584162 
935	 0.194099590521645 
936	 0.186451914765958 
937	 0.182262129651898 
938	 0.189140331576237 
939	 0.191483621559047 
940	 0.185346402131071 
941	 0.178551383639234 
942	 0.173521235337516 
943	 0.171777805772675 
944	 0.172551616491611 
945	 0.175791049278325 
946	 0.181656478312515 
947	 0.184049879634703 
948	 0.181678237085007 
949	 0.177050701730671 
950	 0.169447203571942 
951	 0.160983954268412 
952	 0.163149784258935 
953	 0.167555014554409 
954	 0.166515963775958 
955	 0.170126018102407 
956	 0.174162853183497 
957	 0.168569891575744 
958	 0.167448257717934 
959	 0.170501707707333 
960	 0.163962595867096 
961	 0.158736736344645 
962	 0.159538762686557 
963	 0.159685479522512 
964	 0.162559741979326 
965	 0.170958299264676 
966	 0.171920090205115 
967	 0.167305011956235 
968	 0.164924841681722 
969	 0.16520673731267 
970	 0.167823740605898 
971	 0.170706845431632 
972	 0.17068865802686 
973	 0.166809829660616 
974	 0.164805376207074 
975	 0.165012328308467 
976	 0.166864597642237 
977	 0.167399204217462 
978	 0.166772304030397 
979	 0.166753578454801 
980	 0.166330104316984 
981	 0.166465306743774 
982	 0.172024914458992 
983	 0.174443699746088 
984	 0.170263108924829 
985	 0.168080954772683 
986	 0.169595906256245 
987	 0.17507180781333 
988	 0.176188097560592 
989	 0.173573128894693 
990	 0.171546644383891 
991	 0.17102106491174 
992	 0.172588533562568 
993	 0.17666858497429 
994	 0.179363866249523 
995	 0.178997491181659 
996	 0.178853153147385 
997	 0.179196904130541 
998	 0.179888972288895 
999	 0.179397044285138 
1000	 0.177902561155651 
1001	 0.17613668475542 
1002	 0.177741761594286 
1003	 0.181109338145759 
1004	 0.177723737072808 
1005	 0.176038614634985 
1006	 0.179256127868104 
1007	 0.184195503510891 
1008	 0.187371445905683 
1009	 0.186457526969519 
1010	 0.185341502797128 
1011	 0.183268188880575 
1012	 0.178856740493385 
1013	 0.182100126745099 
1014	 0.190057027065998 
1015	 0.190694834861308 
1016	 0.186761581960563 
1017	 0.181829253407251 
1018	 0.187388299556947 
1019	 0.191441316839248 
1020	 0.188365178745641 
1021	 0.189458304279621 
1022	 0.191108543975382 
1023	 0.189787172804666 
1024	 0.197501494912403 
1025	 0.206527249519233 
1026	 0.201468885343362 
1027	 0.19464576251155 
1028	 0.188861715796056 
1029	 0.181262319489095 
1030	 0.180394990898776 
1031	 0.186435509890868 
1032	 0.184721741026823 
1033	 0.184001532965908 
1034	 0.190277486229533 
1035	 0.20325949848604 
1036	 0.213031290127971 
1037	 0.210271492918565 
1038	 0.207773503671725 
1039	 0.205868876956872 
1040	 0.201062153030696 
1041	 0.20282602588279 
1042	 0.208253393522147 
1043	 0.199696409867192 
1044	 0.199294168196348 
1045	 0.210178130552533 
1046	 0.210124912385143 
1047	 0.204259858869781 
1048	 0.197360508404118 
1049	 0.197725710648244 
1050	 0.206229525705872 
1051	 0.220130436573157 
1052	 0.218520928229227 
1053	 0.205054983821132 
1054	 0.192718404812159 
1055	 0.195634767590046 
1056	 0.2086382066162 
1057	 0.210857986092898 
1058	 0.201346826082363 
1059	 0.18636270967437 
1060	 0.194519653189587 
1061	 0.205890196019424 
1062	 0.209747249717557 
1063	 0.201421365595095 
1064	 0.194246866290421 
1065	 0.198180809964013 
1066	 0.20412861400936 
1067	 0.208523765270977 
1068	 0.208302940603779 
1069	 0.211892067713688 
1070	 0.215443709142858 
1071	 0.211041661678314 
1072	 0.202932973218703 
1073	 0.195794222861751 
1074	 0.197983810480246 
1075	 0.219722554074718 
