Wavelength	AVEI200133.asd
325	 3.00541249084352E-02 
326	 0.033881280834059 
327	 3.56444418662495E-02 
328	 3.71878015154064E-02 
329	 3.64682292606558E-02 
330	 3.36526201900399E-02 
331	 3.23662536371452E-02 
332	 3.25775833257078E-02 
333	 3.38551365949603E-02 
334	 3.26063201558029E-02 
335	 3.05521863281291E-02 
336	 3.38177187171507E-02 
337	 3.22628296988122E-02 
338	 2.62933378580362E-02 
339	 0.033354349490631 
340	 3.89745796754505E-02 
341	 3.22891116312181E-02 
342	 3.02890543211286E-02 
343	 3.28741274795377E-02 
344	 0.035067646855604 
345	 3.37783288633496E-02 
346	 3.02085750872191E-02 
347	 0.032696933642898 
348	 3.54984768999672E-02 
349	 3.46168407707155E-02 
350	 3.15794832551568E-02 
351	 2.88195038025457E-02 
352	 2.96196273554775E-02 
353	 3.11097687262686E-02 
354	 3.22393682396814E-02 
355	 3.22843491257649E-02 
356	 3.18835865574106E-02 
357	 3.16753532076541E-02 
358	 3.34256928512104E-02 
359	 3.49866281048222E-02 
360	 3.29311984154292E-02 
361	 3.25488302694572E-02 
362	 3.38238965189667E-02 
363	 3.18386860890424E-02 
364	 3.11682151622961E-02 
365	 3.36040019502893E-02 
366	 3.40148135506405E-02 
367	 3.29762637132899E-02 
368	 3.19586117827111E-02 
369	 3.10429921195211E-02 
370	 3.04921878524489E-02 
371	 3.07710342286242E-02 
372	 3.14708976688017E-02 
373	 0.032084296003463 
374	 3.09220604259202E-02 
375	 2.95036324476641E-02 
376	 3.00732562644425E-02 
377	 3.05898440473765E-02 
378	 3.03850419299788E-02 
379	 2.87066291166556E-02 
380	 2.86257552590002E-02 
381	 3.10698211740197E-02 
382	 3.10941885280944E-02 
383	 3.05734333945064E-02 
384	 3.24547659540085E-02 
385	 3.11582483095993E-02 
386	 0.027401528914766 
387	 0.027282882719847 
388	 0.02876626297521 
389	 3.03826775090379E-02 
390	 2.95497043867741E-02 
391	 2.84272383165749E-02 
392	 2.96875008905125E-02 
393	 3.04412124100176E-02 
394	 3.03156445647878E-02 
395	 3.01009863021046E-02 
396	 0.029770021132612 
397	 2.93388370105852E-02 
398	 2.85912511059726E-02 
399	 2.84980352336546E-02 
400	 0.029916734582256 
401	 2.94542591416673E-02 
402	 2.77641962603174E-02 
403	 2.78300548203161E-02 
404	 2.85569628625516E-02 
405	 2.92327738393075E-02 
406	 2.83018127303385E-02 
407	 2.71851256729122E-02 
408	 2.77471215762993E-02 
409	 2.82938992622158E-02 
410	 0.028396648972168 
411	 2.79969348528321E-02 
412	 2.75088273145346E-02 
413	 2.72424960767326E-02 
414	 2.76782971027947E-02 
415	 2.82133841677477E-02 
416	 0.028043276229917 
417	 2.80882675501486E-02 
418	 2.83076560251283E-02 
419	 2.78366508871658E-02 
420	 2.76306427664862E-02 
421	 2.81020805474304E-02 
422	 2.82542400590346E-02 
423	 2.81261312165042E-02 
424	 2.79481936187611E-02 
425	 2.77410021069423E-02 
426	 0.027609270342466 
427	 2.78764884599327E-02 
428	 2.79775160725561E-02 
429	 2.76270314364037E-02 
430	 2.77025411606306E-02 
431	 2.79797059032204E-02 
432	 2.78816792429749E-02 
433	 2.80022928105161E-02 
434	 2.82752718813177E-02 
435	 0.027885344932013 
436	 2.75492805086185E-02 
437	 2.77016791970936E-02 
438	 2.76583800493621E-02 
439	 2.75361040683869E-02 
440	 2.77343042409215E-02 
441	 2.78344695493022E-02 
442	 2.77768624479044E-02 
443	 2.79356205557628E-02 
444	 2.78599130188999E-02 
445	 2.72669638654702E-02 
446	 2.73088699431707E-02 
447	 2.77799087292301E-02 
448	 2.78003076906175E-02 
449	 2.77871699120507E-02 
450	 2.78301907482504E-02 
451	 2.77430509068349E-02 
452	 2.76843545975813E-02 
453	 2.78092342094859E-02 
454	 0.027933386134311 
455	 2.79736466566229E-02 
456	 2.77902715723553E-02 
457	 0.027725733105379 
458	 2.78951172464083E-02 
459	 0.02804101708475 
460	 0.02806249244239 
461	 2.78783971134156E-02 
462	 2.78391011716573E-02 
463	 0.027989559783222 
464	 2.82432403291594E-02 
465	 2.82138886981825E-02 
466	 2.77757025197601E-02 
467	 2.76336456794244E-02 
468	 2.76834836930818E-02 
469	 2.76439707141259E-02 
470	 2.77299684172209E-02 
471	 2.79208113831811E-02 
472	 2.80170160994412E-02 
473	 2.79356886961599E-02 
474	 2.76666305403356E-02 
475	 2.75848113968733E-02 
476	 2.75928218496469E-02 
477	 2.73865968651672E-02 
478	 2.76965086844207E-02 
479	 2.83964743543127E-02 
480	 2.80960614106805E-02 
481	 2.76391795518615E-02 
482	 2.77206796688047E-02 
483	 2.77824220994218E-02 
484	 2.78181694102476E-02 
485	 2.80280008429921E-02 
486	 2.82474214813405E-02 
487	 2.83484516130532E-02 
488	 2.80110607484455E-02 
489	 2.78385118365413E-02 
490	 2.84005972398046E-02 
491	 2.84406866374628E-02 
492	 0.028016712622185 
493	 2.79602156474343E-02 
494	 2.79878064017013E-02 
495	 2.79915428642324E-02 
496	 2.79422413425906E-02 
497	 0.028035309962533 
498	 2.85226656625108E-02 
499	 2.88455276282376E-02 
500	 2.89418406420363E-02 
501	 2.91198505362983E-02 
502	 2.94119240040712E-02 
503	 2.97546796726851E-02 
504	 2.94040100613974E-02 
505	 2.90624230377518E-02 
506	 3.00700612542354E-02 
507	 3.04991642259036E-02 
508	 3.01541738687089E-02 
509	 3.05974994007517E-02 
510	 3.12887022624222E-02 
511	 3.17461673015908E-02 
512	 3.19418818982728E-02 
513	 3.19646979368694E-02 
514	 3.19925233512116E-02 
515	 3.23030143832764E-02 
516	 3.29501380900307E-02 
517	 3.35311535578998E-02 
518	 3.39880647671023E-02 
519	 0.034304280420883 
520	 3.48137366307367E-02 
521	 3.55138111120748E-02 
522	 3.62535919886299E-02 
523	 3.67712086746231E-02 
524	 3.70113994107118E-02 
525	 3.75123539244866E-02 
526	 3.80856108781809E-02 
527	 3.83775379620166E-02 
528	 3.87316938817721E-02 
529	 3.91905327806271E-02 
530	 3.95711536937662E-02 
531	 4.00613575270611E-02 
532	 4.07237304547859E-02 
533	 4.09247903423202E-02 
534	 4.08540835221582E-02 
535	 4.10328555970851E-02 
536	 4.14480212586853E-02 
537	 4.20019248147286E-02 
538	 4.21954543863187E-02 
539	 4.23178115732341E-02 
540	 4.26629016294656E-02 
541	 4.30113774764534E-02 
542	 4.32684251139225E-02 
543	 4.32765895353376E-02 
544	 4.33974548986359E-02 
545	 4.37585632260043E-02 
546	 4.41102329425812E-02 
547	 4.42813338839348E-02 
548	 4.40880576417016E-02 
549	 4.40835202825416E-02 
550	 4.43795951679668E-02 
551	 4.48539212776108E-02 
552	 4.51268163712894E-02 
553	 4.50000496858954E-02 
554	 4.50578017882375E-02 
555	 4.52300594371952E-02 
556	 4.52203912015426E-02 
557	 4.52588692394189E-02 
558	 4.53737061397753E-02 
559	 4.53634543258534E-02 
560	 4.53199103183704E-02 
561	 4.53326823666219E-02 
562	 4.53393575101063E-02 
563	 4.53039883892059E-02 
564	 4.51607503544208E-02 
565	 4.50284138202539E-02 
566	 4.49152234397197E-02 
567	 4.45335511076835E-02 
568	 4.41387507367662E-02 
569	 4.40811407306435E-02 
570	 4.40083143774424E-02 
571	 4.38515502638695E-02 
572	 4.37040505513201E-02 
573	 4.35398783101632E-02 
574	 4.33492045801621E-02 
575	 4.32168687517469E-02 
576	 4.30245780373602E-02 
577	 4.25254625104281E-02 
578	 4.21649929050869E-02 
579	 4.20804995218354E-02 
580	 4.21707682458698E-02 
581	 4.21795581967935E-02 
582	 4.19004171707109E-02 
583	 4.16276267864754E-02 
584	 4.14717397859777E-02 
585	 0.041583611827358 
586	 4.16010585805243E-02 
587	 4.14018800289613E-02 
588	 0.041305787219109 
589	 4.12120007074693E-02 
590	 4.09581467422483E-02 
591	 4.06186159445759E-02 
592	 4.03634349492672E-02 
593	 4.06399293780862E-02 
594	 4.09135383685045E-02 
595	 4.08685624189969E-02 
596	 4.07607049276339E-02 
597	 4.06009010196944E-02 
598	 4.03247836153902E-02 
599	 4.03337002802299E-02 
600	 4.06275305658883E-02 
601	 4.06380813997152E-02 
602	 4.04633887309272E-02 
603	 4.02320700554719E-02 
604	 4.01722008926311E-02 
605	 4.02763406224815E-02 
606	 4.04404825182057E-02 
607	 4.04238292714349E-02 
608	 4.01612221369729E-02 
609	 4.00293754184035E-02 
610	 3.98590776787397E-02 
611	 3.94004992412062E-02 
612	 3.89467142804948E-02 
613	 3.86837060053155E-02 
614	 3.89793524883201E-02 
615	 3.91127434203289E-02 
616	 3.87102091586893E-02 
617	 3.86997519968971E-02 
618	 3.88394626704773E-02 
619	 3.84805751959089E-02 
620	 3.82432182503951E-02 
621	 0.038225822538077 
622	 3.80101985027072E-02 
623	 3.77607263062765E-02 
624	 3.76653823335575E-02 
625	 3.81005376740181E-02 
626	 3.86869132022802E-02 
627	 3.82716666637556E-02 
628	 3.78818791080507E-02 
629	 3.78917640707801E-02 
630	 3.78536618824775E-02 
631	 3.77839550186233E-02 
632	 3.77465132613675E-02 
633	 3.79145395892056E-02 
634	 3.81756223489215E-02 
635	 3.80593062838861E-02 
636	 3.78494576969665E-02 
637	 0.037699262772142 
638	 3.73888622201263E-02 
639	 3.70191781939693E-02 
640	 3.68171403642952E-02 
641	 3.65262737139855E-02 
642	 3.61100621870664E-02 
643	 3.57762611966693E-02 
644	 3.54005863216011E-02 
645	 3.48668977937075E-02 
646	 3.41631040937371E-02 
647	 0.033630809743404 
648	 3.42288845426192E-02 
649	 3.44902498149267E-02 
650	 3.39605707977282E-02 
651	 3.38895164757002E-02 
652	 3.38867507922561E-02 
653	 3.33751109318359E-02 
654	 3.31141086490981E-02 
655	 3.31991573276477E-02 
656	 3.33003016629521E-02 
657	 3.33976459113606E-02 
658	 3.33879337453891E-02 
659	 3.27252205048152E-02 
660	 3.19497638394238E-02 
661	 0.031997121589687 
662	 3.20112232226161E-02 
663	 3.17710773418742E-02 
664	 3.14340044494042E-02 
665	 3.11840017046946E-02 
666	 3.11510000618597E-02 
667	 3.10043616824051E-02 
668	 3.07288807477386E-02 
669	 3.03624788669296E-02 
670	 3.04095562003301E-02 
671	 0.03088792622744 
672	 0.030712339869783 
673	 3.03310314358546E-02 
674	 3.03568388661903E-02 
675	 3.07043899974112E-02 
676	 3.11138249570235E-02 
677	 3.08325753006496E-02 
678	 3.06080061974094E-02 
679	 3.08459430388698E-02 
680	 3.12939755414301E-02 
681	 3.17620440390096E-02 
682	 3.19979836414537E-02 
683	 3.23722749103906E-02 
684	 3.30066449988045E-02 
685	 3.39955719392859E-02 
686	 3.49083002807629E-02 
687	 3.53853909909483E-02 
688	 3.62680189369006E-02 
689	 3.75768476550145E-02 
690	 3.91446741927011E-02 
691	 4.06401077413146E-02 
692	 4.20792180101173E-02 
693	 4.38974166510915E-02 
694	 4.61535863972097E-02 
695	 4.87459856194826E-02 
696	 0.051079473436386 
697	 5.32157847275374E-02 
698	 5.57477854334357E-02 
699	 5.86516532111844E-02 
700	 6.17962965385132E-02 
701	 6.45619372476032E-02 
702	 6.71407466140604E-02 
703	 6.99162562446791E-02 
704	 7.27492069518853E-02 
705	 7.56379124307606E-02 
706	 7.85408826688902E-02 
707	 8.14549584618473E-02 
708	 8.43376109005513E-02 
709	 8.69063324705515E-02 
710	 8.93713375160569E-02 
711	 9.22146763176662E-02 
712	 9.49525769316787E-02 
713	 9.74250591385705E-02 
714	 9.97475691484796E-02 
715	 0.10189643412406 
716	 0.103953204062855 
717	 0.105800065389032 
718	 0.10772945975236 
719	 0.110330320416096 
720	 0.112799142479239 
721	 0.114660960151279 
722	 0.116040743437107 
723	 0.117519202622097 
724	 0.119593170811358 
725	 0.121201538811366 
726	 0.122267760417436 
727	 0.123876862060673 
728	 0.12526480580866 
729	 0.126143852905257 
730	 0.12728317720803 
731	 0.128489162869592 
732	 0.129373488254425 
733	 0.130301140838037 
734	 0.131356710052603 
735	 0.132466836403438 
736	 0.133552514343837 
737	 0.134518728843928 
738	 0.135463400792628 
739	 0.13626810499441 
740	 0.136681981073057 
741	 0.137051610083207 
742	 0.137566610364761 
743	 0.13848002531343 
744	 0.139360527066553 
745	 0.139856190820973 
746	 0.140270946156153 
747	 0.140668166500158 
748	 0.141056888340947 
749	 0.141504918741164 
750	 0.142010792035086 
751	 0.142391994431519 
752	 0.142818194619542 
753	 0.143459280284501 
754	 0.143745285267929 
755	 0.143796287896768 
756	 0.144308736861276 
757	 0.144759041278584 
758	 0.14493500361336 
759	 0.144868563235039 
760	 0.144913447920811 
761	 0.146035159083075 
762	 0.146425327259025 
763	 0.146242364003557 
764	 0.147260565750881 
765	 0.148119979052987 
766	 0.148408392859853 
767	 0.148736282573999 
768	 0.14917268491001 
769	 0.149762825036165 
770	 0.149927255270292 
771	 0.149801687202246 
772	 0.15047296683138 
773	 0.150976869520663 
774	 0.150754555849072 
775	 0.150898353576508 
776	 0.151416108745502 
777	 0.152045865633217 
778	 0.152591246992477 
779	 0.152897343291927 
780	 0.152692894176417 
781	 0.152635705729787 
782	 0.153215032780655 
783	 0.153751010086806 
784	 0.154067545838958 
785	 0.154039040675643 
786	 0.154066618705795 
787	 0.154331646703868 
788	 0.154933647874307 
789	 0.155369318927949 
790	 0.155208949302707 
791	 0.155300720863122 
792	 0.155680557872266 
793	 0.1560722712633 
794	 0.156163779767424 
795	 0.155930097658618 
796	 0.155939145632416 
797	 0.156116878701621 
798	 0.156367586011322 
799	 0.157095381377311 
800	 0.157933215872204 
801	 0.157674650045159 
802	 0.157498766991145 
803	 0.157855476698526 
804	 0.158370856813637 
805	 0.158907826747933 
806	 0.159348237016718 
807	 0.159651857911105 
808	 0.159852124912561 
809	 0.160008907939935 
810	 0.160527930920604 
811	 0.161359666021379 
812	 0.160942399498846 
813	 0.160037029590719 
814	 0.159876258772655 
815	 0.160628944580248 
816	 0.161829719240298 
817	 0.161739332921987 
818	 0.161881228451426 
819	 0.162754985355283 
820	 0.163234684804193 
821	 0.163488848896645 
822	 0.16380861012524 
823	 0.164501224887404 
824	 0.165459104095215 
825	 0.166346676367592 
826	 0.166711085778351 
827	 0.166418056812082 
828	 0.165858323100718 
829	 0.165685058088632 
830	 0.16658738859242 
831	 0.167471549035671 
832	 0.168060424267908 
833	 0.168408709157001 
834	 0.168661737008534 
835	 0.168867849123212 
836	 0.168801792541453 
837	 0.16883520515968 
838	 0.169383870815911 
839	 0.170089341126356 
840	 0.170715603780524 
841	 0.170890524524566 
842	 0.170865136785526 
843	 0.170782120953599 
844	 0.170634934688235 
845	 0.170995918304449 
846	 0.172397116379822 
847	 0.172557533052548 
848	 0.171664911343617 
849	 0.171687191427258 
850	 0.171979010264196 
851	 0.172241190103654 
852	 0.172037445507603 
853	 0.17182880423626 
854	 0.172128287623478 
855	 0.172486946411107 
856	 0.172640156536211 
857	 0.172052130144971 
858	 0.172193839932625 
859	 0.173306112994929 
860	 0.173692475054021 
861	 0.174141505269017 
862	 0.175340266785879 
863	 0.174958694694316 
864	 0.173701935510665 
865	 0.174271761214288 
866	 0.174591587334088 
867	 0.174251754464773 
868	 0.17461463333242 
869	 0.175364150460937 
870	 0.176174517389956 
871	 0.177065329776445 
872	 0.177617720459947 
873	 0.177025942221155 
874	 0.176855181004563 
875	 0.177624676371243 
876	 0.179241278034487 
877	 0.180424805302564 
878	 0.180345538338608 
879	 0.180119475594092 
880	 0.180516874737801 
881	 0.182488347165808 
882	 0.183556924837627 
883	 0.183408932053508 
884	 0.183790528939822 
885	 0.183445623663043 
886	 0.182192036390282 
887	 0.183643523673342 
888	 0.18603658928984 
889	 0.18653605600341 
890	 0.186340539763194 
891	 0.185909816206545 
892	 0.185684932132099 
893	 0.18677315759116 
894	 0.188932258678179 
895	 0.186713314433252 
896	 0.184207244381074 
897	 0.186705799315978 
898	 0.187732390766412 
899	 0.186971124868656 
900	 0.187198748309974 
901	 0.187997890638626 
902	 0.18909392852514 
903	 0.18975743421574 
904	 0.189546560062374 
905	 0.188345099364076 
906	 0.188040118228609 
907	 0.188537028120558 
908	 0.189120717478836 
909	 0.18956197158874 
910	 0.189523837235735 
911	 0.188032117624694 
912	 0.188106919878078 
913	 0.190744501043007 
914	 0.189934736418014 
915	 0.188280448579235 
916	 0.189601108669861 
917	 0.190588705564684 
918	 0.190912490550939 
919	 0.191695317529483 
920	 0.191627514651695 
921	 0.190527859884078 
922	 0.189549429186646 
923	 0.190094743846992 
924	 0.193009763666983 
925	 0.193309114106939 
926	 0.191047765503685 
927	 0.188443036298628 
928	 0.186506801260318 
929	 0.185610134363691 
930	 0.184643871270493 
931	 0.180846085245741 
932	 0.173296027510406 
933	 0.175782868650005 
934	 0.182494679239795 
935	 0.180870144457161 
936	 0.177310527124345 
937	 0.174268346728834 
938	 0.173725179320849 
939	 0.174906699747206 
940	 0.176473143367752 
941	 0.17450296454689 
942	 0.171215034892395 
943	 0.168741782056069 
944	 0.170540091661894 
945	 0.173870727902312 
946	 0.173830122059394 
947	 0.172186441213381 
948	 0.169862976074401 
949	 0.168765135446081 
950	 0.166190643109366 
951	 0.162011350268311 
952	 0.162190869741231 
953	 0.162855923518242 
954	 0.160687781538711 
955	 0.163332198848423 
956	 0.166943004950473 
957	 0.162761347068819 
958	 0.160654206995825 
959	 0.161942039278782 
960	 0.162089037743572 
961	 0.160915466887038 
962	 0.158999602603074 
963	 0.159829722859363 
964	 0.161563229416951 
965	 0.162226801949786 
966	 0.162189450419741 
967	 0.161115985758035 
968	 0.157989563162624 
969	 0.15852075493357 
970	 0.162748476232329 
971	 0.165268158686822 
972	 0.163896298266963 
973	 0.158677865373276 
974	 0.158207215911199 
975	 0.159109449058152 
976	 0.15700683345661 
977	 0.158051308412235 
978	 0.161547966820853 
979	 0.163826385034004 
980	 0.163615883826771 
981	 0.162233906506887 
982	 0.166629458889094 
983	 0.169131931155142 
984	 0.166349646841803 
985	 0.16458481047899 
986	 0.164289207460954 
987	 0.16543044363956 
988	 0.169939691792249 
989	 0.173882176492739 
990	 0.16893186877937 
991	 0.165243375594999 
992	 0.166225348732162 
993	 0.173012465298266 
994	 0.173869127275578 
995	 0.165939926433578 
996	 0.170818877081997 
997	 0.178216179306473 
998	 0.176611072354884 
999	 0.172194432950519 
1000	 0.169058395122732 
1001	 0.172399675916209 
1002	 0.177032362863545 
1003	 0.179870437957709 
1004	 0.176785411417517 
1005	 0.171224415289112 
1006	 0.167661303030987 
1007	 0.179321506211413 
1008	 0.186393911089285 
1009	 0.175556598930851 
1010	 0.174436755745401 
1011	 0.177460630650446 
1012	 0.172191210553134 
1013	 0.172756646270687 
1014	 0.17792337214903 
1015	 0.177173726858791 
1016	 0.180258889866511 
1017	 0.186376896205119 
1018	 0.179588153402128 
1019	 0.175007987580117 
1020	 0.180723504746261 
1021	 0.189419590908785 
1022	 0.192837232654863 
1023	 0.184920938423371 
1024	 0.184064731167617 
1025	 0.187362672536318 
1026	 0.184932538393588 
1027	 0.181541838112005 
1028	 0.178899808206653 
1029	 0.178531533047719 
1030	 0.17798882492106 
1031	 0.177605167467825 
1032	 0.182586909044789 
1033	 0.188770826357492 
1034	 0.193151718962831 
1035	 0.197613744934739 
1036	 0.197670597592912 
1037	 0.189656793606018 
1038	 0.186848019828354 
1039	 0.187825603076695 
1040	 0.185756294202077 
1041	 0.189577936753482 
1042	 0.196127234055372 
1043	 0.188211010526937 
1044	 0.186185031751584 
1045	 0.193776613575354 
1046	 0.192996720837863 
1047	 0.191153953161421 
1048	 0.191711541524243 
1049	 0.187889227072439 
1050	 0.184232409462996 
1051	 0.18411655179213 
1052	 0.169739228277333 
1053	 0.157873715624975 
1054	 0.177249293865811 
1055	 0.179831952735484 
1056	 0.170222627932264 
1057	 0.186766868422472 
1058	 0.18757523969725 
1059	 0.170145902400358 
1060	 0.174860741198533 
1061	 0.183131746553213 
1062	 0.183669466885721 
1063	 0.161527995299707 
1064	 0.156949345897542 
1065	 0.187723433823882 
1066	 0.162875187284033 
1067	 0.134101360659492 
1068	 0.166580911247176 
1069	 0.187151514405268 
1070	 0.190477887496275 
1071	 0.190775070244677 
1072	 0.195440093059325 
1073	 0.200138325217957 
1074	 0.187249006906139 
1075	 0.177629291743452 
