Wavelength	AVEI200252.asd
325	 3.09684661193311E-02 
326	 3.39975422980279E-02 
327	 3.93870208396701E-02 
328	 3.86996789051644E-02 
329	 3.76814337947453E-02 
330	 0.03868551726642 
331	 4.18226865768885E-02 
332	 4.51372186875608E-02 
333	 0.046857862047981 
334	 4.36562718565151E-02 
335	 3.83271532428285E-02 
336	 3.82610537908873E-02 
337	 0.038560298279131 
338	 0.037885936723619 
339	 3.66550810959902E-02 
340	 3.87502784661719E-02 
341	 4.62472214486695E-02 
342	 4.70746297952709E-02 
343	 4.33727329882258E-02 
344	 4.26284827714267E-02 
345	 4.31527418864649E-02 
346	 4.41081717960521E-02 
347	 4.38906904496485E-02 
348	 4.21780245608022E-02 
349	 0.039403759964059 
350	 4.06235026755928E-02 
351	 4.35048910404967E-02 
352	 4.35123312757996E-02 
353	 4.19115746513095E-02 
354	 3.95763896313393E-02 
355	 3.79463337703117E-02 
356	 3.92643462616623E-02 
357	 4.37598445528959E-02 
358	 4.28365262033318E-02 
359	 3.92082120264732E-02 
360	 3.84394546777661E-02 
361	 3.90400154678824E-02 
362	 4.00871463761755E-02 
363	 3.94166036909773E-02 
364	 3.91807949105792E-02 
365	 4.03044854024339E-02 
366	 4.08176678852334E-02 
367	 4.06076048210282E-02 
368	 3.98104710624566E-02 
369	 3.89559713270126E-02 
370	 3.82998310673312E-02 
371	 3.81673768439499E-02 
372	 3.75387340110337E-02 
373	 3.62747378343218E-02 
374	 0.037513115740483 
375	 3.93915347702839E-02 
376	 3.90005230804575E-02 
377	 3.82808753569387E-02 
378	 3.78450126405808E-02 
379	 3.81421160207456E-02 
380	 3.81760743105561E-02 
381	 3.78302434133837E-02 
382	 4.01133492679198E-02 
383	 0.04187994927491 
384	 3.88717142189578E-02 
385	 3.74208829000013E-02 
386	 3.80902373732791E-02 
387	 3.75021820693817E-02 
388	 3.60627958917931E-02 
389	 3.45090086757224E-02 
390	 3.61222012372223E-02 
391	 3.81991006487888E-02 
392	 3.74394110163886E-02 
393	 3.68455233721324E-02 
394	 3.69186553869408E-02 
395	 3.72771626210324E-02 
396	 3.70626517687124E-02 
397	 3.61622662053398E-02 
398	 3.63315538397916E-02 
399	 3.62852610872291E-02 
400	 3.46633350590075E-02 
401	 3.46170985025744E-02 
402	 3.56772923603195E-02 
403	 3.53587954925802E-02 
404	 3.47865580912238E-02 
405	 3.44460223014748E-02 
406	 0.03447490308802 
407	 3.44655909172935E-02 
408	 0.033917124200559 
409	 3.39399836426879E-02 
410	 3.44348714482244E-02 
411	 3.43505919749579E-02 
412	 3.44015996250054E-02 
413	 3.48498988496127E-02 
414	 3.51628504692957E-02 
415	 3.52127501075042E-02 
416	 3.49122172067427E-02 
417	 3.49391359283634E-02 
418	 3.52416447638253E-02 
419	 3.51626265358273E-02 
420	 3.47902861979204E-02 
421	 0.034292241012313 
422	 3.44715029163879E-02 
423	 3.49211470000476E-02 
424	 3.49359902803668E-02 
425	 3.45798034486416E-02 
426	 3.41308529646617E-02 
427	 3.45715325212372E-02 
428	 3.49322631131929E-02 
429	 3.46245217739897E-02 
430	 3.43499552016344E-02 
431	 3.42740475992613E-02 
432	 3.45076115065263E-02 
433	 3.46238190788398E-02 
434	 3.45618328952139E-02 
435	 3.46331292789159E-02 
436	 3.45688400712955E-02 
437	 3.42488902317831E-02 
438	 3.42821411017825E-02 
439	 3.45157154412752E-02 
440	 3.45090028907597E-02 
441	 3.45267213528826E-02 
442	 3.46240320467897E-02 
443	 3.47118201600935E-02 
444	 3.48125304013471E-02 
445	 3.49342074146097E-02 
446	 3.49699299389368E-02 
447	 3.48329356675698E-02 
448	 0.034310342947378 
449	 3.41363254955826E-02 
450	 3.44703558600072E-02 
451	 3.47131038619238E-02 
452	 3.46962784769356E-02 
453	 3.43271148202683E-02 
454	 3.42862897677344E-02 
455	 3.45922348119753E-02 
456	 3.49598239980898E-02 
457	 3.48955044915838E-02 
458	 3.43393685574928E-02 
459	 0.034286273823945 
460	 3.47170166675817E-02 
461	 3.54710678744678E-02 
462	 3.55050110709298E-02 
463	 3.48622334587659E-02 
464	 3.44191780515426E-02 
465	 3.45321488758494E-02 
466	 0.035209602846303 
467	 3.48698672421385E-02 
468	 3.42269246843305E-02 
469	 3.45863262313095E-02 
470	 3.48868819102765E-02 
471	 3.49530357123021E-02 
472	 3.52518178196775E-02 
473	 3.52229390776446E-02 
474	 3.46530849817612E-02 
475	 3.48653239491535E-02 
476	 3.55147527998982E-02 
477	 3.57118967410318E-02 
478	 3.55303983711139E-02 
479	 3.51072262863992E-02 
480	 3.49451658424915E-02 
481	 0.035031676682735 
482	 3.53252023706326E-02 
483	 3.56332105701462E-02 
484	 0.035836095088792 
485	 3.58273627160138E-02 
486	 3.53238129303078E-02 
487	 3.44758361285675E-02 
488	 3.45208136734685E-02 
489	 3.49586679773753E-02 
490	 3.51774657018311E-02 
491	 3.53167419323383E-02 
492	 3.54165931881487E-02 
493	 3.55652847649164E-02 
494	 0.035695374577815 
495	 3.57347137659449E-02 
496	 3.53408315778716E-02 
497	 3.52256383186209E-02 
498	 3.63233630871331E-02 
499	 3.67895996522623E-02 
500	 3.64481871804609E-02 
501	 3.63727592084155E-02 
502	 3.65817254548058E-02 
503	 3.70370433139983E-02 
504	 3.71947687807393E-02 
505	 3.72731985765475E-02 
506	 3.77585570251868E-02 
507	 3.83029822573631E-02 
508	 3.87626903758846E-02 
509	 3.90112092082234E-02 
510	 3.91457422042685E-02 
511	 3.92713118202895E-02 
512	 3.95703005444342E-02 
513	 4.00526662936049E-02 
514	 4.06763518100981E-02 
515	 4.12436565453087E-02 
516	 4.17189209348417E-02 
517	 4.24309177842665E-02 
518	 4.31072945732679E-02 
519	 4.34383416680757E-02 
520	 4.37974320692399E-02 
521	 4.42137282228043E-02 
522	 4.44898670484982E-02 
523	 4.49889263868382E-02 
524	 4.58282859748084E-02 
525	 4.65669205433362E-02 
526	 4.71958348246079E-02 
527	 0.047776122682859 
528	 4.81388633294312E-02 
529	 4.83841553736112E-02 
530	 4.89769562288545E-02 
531	 4.96724045856526E-02 
532	 5.02621179040609E-02 
533	 0.050418231169957 
534	 5.03747004829117E-02 
535	 5.06769707093902E-02 
536	 5.09873587900072E-02 
537	 5.12316982989886E-02 
538	 5.14874320424721E-02 
539	 5.19634272768815E-02 
540	 5.28075046014689E-02 
541	 5.31630469136935E-02 
542	 5.30864977269145E-02 
543	 5.32042587855883E-02 
544	 0.053363985101523 
545	 5.35620546869541E-02 
546	 5.40441982859898E-02 
547	 0.054510635395814 
548	 5.45530324523275E-02 
549	 5.46476578843037E-02 
550	 5.49070348231216E-02 
551	 5.52638721259731E-02 
552	 5.56511957960206E-02 
553	 5.59864627848455E-02 
554	 5.60234330303207E-02 
555	 5.59131939850313E-02 
556	 5.59855719078962E-02 
557	 5.61381549877413E-02 
558	 5.63274405875844E-02 
559	 5.65554427547563E-02 
560	 0.056406750652646 
561	 5.55992279975647E-02 
562	 0.055570973229128 
563	 0.056166952898759 
564	 5.62825489537784E-02 
565	 5.61695531372523E-02 
566	 5.59110786610575E-02 
567	 5.55937961531361E-02 
568	 5.53719128529867E-02 
569	 5.54165824538728E-02 
570	 5.52918102604816E-02 
571	 5.49181908218788E-02 
572	 5.44039970542675E-02 
573	 0.054113271197615 
574	 0.054195357875271 
575	 5.38704637607153E-02 
576	 5.33105295897641E-02 
577	 5.30182125576999E-02 
578	 5.28669228613867E-02 
579	 5.29004664176057E-02 
580	 5.34597491254947E-02 
581	 0.053799309812866 
582	 5.33085502455297E-02 
583	 5.30286803295426E-02 
584	 5.28824656163871E-02 
585	 0.052084486427786 
586	 5.14752374070004E-02 
587	 5.14571109132838E-02 
588	 5.21847015928733E-02 
589	 5.28027358451493E-02 
590	 5.21886654112534E-02 
591	 0.051820553495438 
592	 5.19921738352059E-02 
593	 5.23915858872131E-02 
594	 5.25299521961437E-02 
595	 5.21391378742861E-02 
596	 5.16306630339441E-02 
597	 5.13708267310483E-02 
598	 5.19308347156692E-02 
599	 5.17897055929394E-02 
600	 5.08947897852274E-02 
601	 5.12494376497942E-02 
602	 5.18569478699174E-02 
603	 5.17945510288965E-02 
604	 5.16933946477808E-02 
605	 5.16812265415528E-02 
606	 5.18804239031204E-02 
607	 5.17062505534775E-02 
608	 5.10373355404821E-02 
609	 5.07287304137867E-02 
610	 5.06516596815322E-02 
611	 5.05376439041463E-02 
612	 5.04009558847165E-02 
613	 5.02400871252646E-02 
614	 5.00921172246549E-02 
615	 4.98956315363819E-02 
616	 4.96565527513841E-02 
617	 4.97322976536095E-02 
618	 4.99073569374609E-02 
619	 4.97194277132753E-02 
620	 4.97067126840611E-02 
621	 4.98265877702222E-02 
622	 4.91633045200477E-02 
623	 4.85203344410424E-02 
624	 4.86317013920592E-02 
625	 4.89641371455175E-02 
626	 4.92329659392247E-02 
627	 4.89790261415908E-02 
628	 4.87765794423254E-02 
629	 4.88746369169379E-02 
630	 4.92226999492816E-02 
631	 4.94672031707207E-02 
632	 4.91918709090632E-02 
633	 4.88653869282929E-02 
634	 4.86775055251202E-02 
635	 4.87851968605584E-02 
636	 4.90837917080599E-02 
637	 4.93667768673102E-02 
638	 4.85809011466725E-02 
639	 4.75277056548368E-02 
640	 4.79072973574373E-02 
641	 4.77240614380439E-02 
642	 4.66754872756816E-02 
643	 4.62594563682039E-02 
644	 4.60617273196847E-02 
645	 4.56931618272551E-02 
646	 4.56161766370577E-02 
647	 4.56849938734445E-02 
648	 4.53508819179958E-02 
649	 4.48150213848087E-02 
650	 4.42798372940751E-02 
651	 4.43781338380918E-02 
652	 4.46181763181093E-02 
653	 4.43588919129926E-02 
654	 4.40207279619303E-02 
655	 4.37113060160161E-02 
656	 4.34475659966094E-02 
657	 4.34973803422393E-02 
658	 4.38506027923312E-02 
659	 4.33315418567095E-02 
660	 4.26076786928895E-02 
661	 4.30128392776519E-02 
662	 4.24426348393445E-02 
663	 0.040867698800146 
664	 4.07803906359076E-02 
665	 4.11582129079426E-02 
666	 4.10673593032414E-02 
667	 4.07086645619554E-02 
668	 4.02508636019123E-02 
669	 4.00297214359809E-02 
670	 3.99532799894656E-02 
671	 3.99764140305275E-02 
672	 4.00049976294492E-02 
673	 3.99336744464523E-02 
674	 3.96720701580243E-02 
675	 3.99578272375234E-02 
676	 4.06115795790203E-02 
677	 0.040551230997469 
678	 4.04958253432408E-02 
679	 4.08293774837102E-02 
680	 0.041315209097455 
681	 4.19333873569901E-02 
682	 4.27095053807015E-02 
683	 0.04319935343965 
684	 4.35268711744398E-02 
685	 4.47851195080299E-02 
686	 4.61882880749549E-02 
687	 4.70460213458963E-02 
688	 4.83466066244291E-02 
689	 5.00645243409875E-02 
690	 5.19755597566691E-02 
691	 5.39214264862791E-02 
692	 5.59372038048171E-02 
693	 0.05815794657827 
694	 6.08138785371513E-02 
695	 6.39624741441035E-02 
696	 6.64647487801617E-02 
697	 6.86007209770879E-02 
698	 7.18537287417762E-02 
699	 0.075435210603812 
700	 0.078869372513802 
701	 8.19278723315365E-02 
702	 8.49333550308925E-02 
703	 8.83878223352758E-02 
704	 9.19269825564423E-02 
705	 9.54388660970462E-02 
706	 9.87724777808979E-02 
707	 0.101963039212283 
708	 0.105029409433801 
709	 0.108056223592567 
710	 0.111174162879613 
711	 0.114586865164244 
712	 0.118056050214242 
713	 0.121343770267968 
714	 0.124075081060398 
715	 0.126281332674503 
716	 0.128166752631111 
717	 0.130727843924321 
718	 0.134099840909206 
719	 0.137259907125433 
720	 0.139557266007782 
721	 0.141004427186751 
722	 0.143326329207583 
723	 0.145984657758006 
724	 0.148095045897577 
725	 0.148992502802851 
726	 0.149300207374679 
727	 0.151735345802004 
728	 0.154196798165381 
729	 0.15566110216103 
730	 0.157020227811885 
731	 0.15801629406861 
732	 0.158203278819161 
733	 0.158929391393564 
734	 0.160282838935136 
735	 0.161361526171436 
736	 0.162454963802504 
737	 0.163655874273725 
738	 0.164441245551881 
739	 0.165027495141477 
740	 0.165960108406696 
741	 0.166616418653751 
742	 0.166942478665089 
743	 0.167461318527067 
744	 0.168276582058032 
745	 0.169419885621707 
746	 0.170364112144012 
747	 0.171012012292771 
748	 0.171330610008672 
749	 0.172029464627163 
750	 0.173123508904926 
751	 0.173132231151581 
752	 0.172869734521035 
753	 0.173303958152122 
754	 0.174152376505555 
755	 0.175079564892974 
756	 0.175256219583043 
757	 0.17571034576095 
758	 0.176871210219257 
759	 0.177571411105989 
760	 0.178013543009543 
761	 0.178525613845921 
762	 0.179746763401515 
763	 0.180628379666814 
764	 0.17852316214842 
765	 0.177634118194514 
766	 0.178934260430098 
767	 0.179774857512876 
768	 0.180410322306116 
769	 0.181372008617641 
770	 0.181571284996127 
771	 0.181169262201121 
772	 0.181708717958443 
773	 0.182437918975466 
774	 0.182878914473633 
775	 0.183654320910559 
776	 0.184177280272951 
777	 0.183190001966709 
778	 0.183286005192863 
779	 0.184743214160576 
780	 0.185005992921125 
781	 0.185339263819377 
782	 0.186660165839057 
783	 0.187141003639336 
784	 0.186933320008951 
785	 0.186972614706247 
786	 0.187098594592556 
787	 0.187494571125642 
788	 0.189134685656268 
789	 0.190328262589664 
790	 0.189571589490165 
791	 0.189298840342915 
792	 0.189679340558658 
793	 0.189937762796554 
794	 0.190088599823261 
795	 0.190281609021041 
796	 0.191445160589293 
797	 0.192511814661608 
798	 0.192416458532345 
799	 0.192109539984799 
800	 0.191976646032067 
801	 0.192503765712693 
802	 0.193016431778537 
803	 0.193285755524169 
804	 0.193754029619445 
805	 0.19410167621501 
806	 0.194026966750548 
807	 0.195180501731459 
808	 0.196861327302696 
809	 0.195983183901604 
810	 0.195392297998827 
811	 0.196254625120677 
812	 0.197260460101277 
813	 0.198133353173315 
814	 0.198615974937158 
815	 0.198803534626518 
816	 0.198723151758744 
817	 0.198264072568778 
818	 0.198547951164914 
819	 0.19991259579082 
820	 0.201512862354533 
821	 0.202317360471284 
822	 0.201240965979469 
823	 0.200595159023439 
824	 0.200850043848114 
825	 0.201515837826456 
826	 0.202266584127917 
827	 0.20281369745097 
828	 0.202382676626256 
829	 0.202020797727563 
830	 0.203052058480481 
831	 0.204528328756498 
832	 0.205713440746597 
833	 0.205298880300824 
834	 0.204600356449667 
835	 0.204343940417004 
836	 0.204938183794504 
837	 0.205598512612024 
838	 0.20544978067719 
839	 0.206093196478266 
840	 0.207190986020093 
841	 0.206812697326535 
842	 0.206568687526766 
843	 0.207028095194554 
844	 0.207196711878782 
845	 0.207265382715271 
846	 0.207540528727199 
847	 0.208301897194261 
848	 0.209030106401884 
849	 0.208095693565038 
850	 0.207104643736291 
851	 0.206680599689534 
852	 0.205924437019976 
853	 0.206129807586108 
854	 0.208457018436502 
855	 0.20832886689773 
856	 0.206825501635163 
857	 0.209180604105975 
858	 0.210524282789795 
859	 0.209684377212396 
860	 0.209486486136534 
861	 0.209969761336915 
862	 0.210878270478518 
863	 0.209834411525462 
864	 0.208241468658577 
865	 0.210565157943383 
866	 0.212148680948344 
867	 0.2116737990209 
868	 0.211022255512474 
869	 0.211186379763347 
870	 0.21272660126104 
871	 0.213342332616578 
872	 0.213535368574416 
873	 0.215084423803712 
874	 0.215571868971133 
875	 0.214864709528624 
876	 0.21556336058433 
877	 0.216357765260088 
878	 0.216370444308628 
879	 0.216707637503181 
880	 0.217368636571766 
881	 0.218105136385753 
882	 0.218965453936998 
883	 0.2197547022493 
884	 0.219875336238506 
885	 0.219712898632577 
886	 0.219781487795028 
887	 0.221908152516787 
888	 0.224051157744743 
889	 0.223366258066193 
890	 0.223341724488965 
891	 0.224216761295441 
892	 0.223895249802829 
893	 0.223964949585236 
894	 0.224965956934441 
895	 0.22531981100269 
896	 0.22499878165528 
897	 0.224234970883385 
898	 0.22423095985343 
899	 0.225497148721392 
900	 0.228793367967437 
901	 0.228816384098255 
902	 0.225621814577096 
903	 0.228121976245177 
904	 0.230433451819705 
905	 0.228214640686583 
906	 0.227664785181118 
907	 0.228340157687577 
908	 0.227741109099562 
909	 0.228631988862061 
910	 0.230943472311858 
911	 0.231386036114343 
912	 0.231452777043975 
913	 0.231690941726155 
914	 0.229333748591579 
915	 0.227803523665642 
916	 0.23114952728158 
917	 0.230663575001435 
918	 0.227072721689593 
919	 0.227216333275188 
920	 0.228121252648082 
921	 0.228826456845442 
922	 0.229348651804405 
923	 0.230394341970537 
924	 0.232377351526286 
925	 0.232356783656293 
926	 0.230877872000288 
927	 0.230312579644301 
928	 0.230905698309461 
929	 0.231906146937024 
930	 0.22866566992858 
931	 0.224448892931202 
932	 0.221987968562286 
933	 0.219516330613342 
934	 0.213519136994981 
935	 0.200102066356699 
936	 0.209313183920211 
937	 0.229984154845988 
938	 0.215097901126162 
939	 0.20773204659828 
940	 0.216147341261719 
941	 0.213202509222016 
942	 0.207009609800188 
943	 0.204062523624734 
944	 0.203069937075948 
945	 0.203788487530507 
946	 0.205866142683984 
947	 0.209108216803082 
948	 0.209730158500074 
949	 0.195794571829831 
950	 0.189918092955093 
951	 0.198423687127615 
952	 0.198641256893511 
953	 0.193263799745455 
954	 0.187260278240559 
955	 0.188922912751604 
956	 0.194075473328073 
957	 0.192766539198174 
958	 0.190951575626543 
959	 0.189851564949517 
960	 0.18863519350133 
961	 0.186376922767119 
962	 0.183555353173302 
963	 0.184384082120948 
964	 0.187352103855331 
965	 0.190255451851682 
966	 0.186250503235513 
967	 0.181255897591988 
968	 0.18917127232286 
969	 0.188204048683467 
970	 0.178583353614339 
971	 0.186073229151322 
972	 0.187243088788962 
973	 0.173311436392215 
974	 0.174262470199532 
975	 0.182015942926127 
976	 0.184627681871193 
977	 0.186623498749989 
978	 0.187955024905676 
979	 0.187374419829379 
980	 0.188183561029771 
981	 0.18934843945326 
982	 0.181619327803256 
983	 0.182081090114189 
984	 0.195916669481073 
985	 0.195857033251084 
986	 0.191530684919607 
987	 0.195053161024826 
988	 0.195305205132874 
989	 0.19370362129084 
990	 0.196906391690209 
991	 0.196986980249432 
992	 0.194269821170388 
993	 0.198967020385701 
994	 0.198799256711162 
995	 0.190417972626803 
996	 0.192917945851718 
997	 0.20182210780755 
998	 0.210512824109028 
999	 0.208840430770307 
1000	 0.203290940864697 
1001	 0.208186232654318 
1002	 0.210324398331947 
1003	 0.207049084809163 
1004	 0.200899605279013 
1005	 0.198795642166412 
1006	 0.202657875490976 
1007	 0.206209272406821 
1008	 0.209128157663047 
1009	 0.21063502410718 
1010	 0.204595473095223 
1011	 0.199554297085247 
1012	 0.207686822875921 
1013	 0.206253845083301 
1014	 0.197257072061831 
1015	 0.197472037590885 
1016	 0.204364167839698 
1017	 0.21410499434675 
1018	 0.213268965915966 
1019	 0.211352955029435 
1020	 0.213105655672352 
1021	 0.211449001529349 
1022	 0.211122583434628 
1023	 0.216338267186284 
1024	 0.215461874749756 
1025	 0.210124281788053 
1026	 0.206802713381249 
1027	 0.210264475470615 
1028	 0.2178933250696 
1029	 0.219972960246259 
1030	 0.214684239216095 
1031	 0.204648462495821 
1032	 0.205319571499679 
1033	 0.21223001735868 
1034	 0.221876965929469 
1035	 0.234638894283467 
1036	 0.235112109045704 
1037	 0.211579321348928 
1038	 0.211482092098331 
1039	 0.225963277339254 
1040	 0.22589293738709 
1041	 0.226112024053145 
1042	 0.229446126635019 
1043	 0.234863088333764 
1044	 0.237685658926685 
1045	 0.233843240555608 
1046	 0.21159847776044 
1047	 0.203259145440769 
1048	 0.222296839110992 
1049	 0.217445178037926 
1050	 0.209786795280356 
1051	 0.221538903249418 
1052	 0.227052989687943 
1053	 0.224564634816142 
1054	 0.217761707806252 
1055	 0.197732433248096 
1056	 0.185959161987852 
1057	 0.236526170671192 
1058	 0.240233578253118 
1059	 0.191899958057811 
1060	 0.227423938273498 
1061	 0.246771822361986 
1062	 0.222535079740249 
1063	 0.254723235803676 
1064	 0.267253545831773 
1065	 0.214946612962653 
1066	 0.20820979602459 
1067	 0.216704991918847 
1068	 0.198579861868824 
1069	 0.225007929814201 
1070	 0.257082461073106 
1071	 0.219149751564259 
1072	 0.202826600953413 
1073	 0.208613555345837 
1074	 0.182141946369543 
1075	 0.164083186828752 
