Wavelength	AVEI200278.asd
325	 8.47199508188091E-02 
326	 9.02020179348128E-02 
327	 9.67638342319586E-02 
328	 8.02229573228808E-02 
329	 7.18369164518769E-02 
330	 7.89166579773959E-02 
331	 7.59604405990414E-02 
332	 7.29946442162012E-02 
333	 8.05372276836867E-02 
334	 8.10680447280427E-02 
335	 0.077327694877826 
336	 8.25625448409318E-02 
337	 8.65945105342453E-02 
338	 0.086216428008846 
339	 8.19966389082192E-02 
340	 7.98200231927158E-02 
341	 8.38020858571562E-02 
342	 8.48922993756897E-02 
343	 0.084176348328211 
344	 8.66060359966298E-02 
345	 8.65832267360652E-02 
346	 8.39677112565241E-02 
347	 8.41018742385646E-02 
348	 8.44877026989897E-02 
349	 0.083340354034977 
350	 8.09747737439621E-02 
351	 7.93169694282849E-02 
352	 8.11621843716344E-02 
353	 8.35232718848502E-02 
354	 8.52018530706685E-02 
355	 8.53494957573339E-02 
356	 8.43458499025484E-02 
357	 8.29022573947846E-02 
358	 8.42537945468493E-02 
359	 8.62159915576592E-02 
360	 8.49676954227649E-02 
361	 0.084984708334305 
362	 8.65822197014683E-02 
363	 8.73211335419518E-02 
364	 8.63352633072886E-02 
365	 8.39022881710992E-02 
366	 8.48480031356198E-02 
367	 8.67552100661739E-02 
368	 0.085823430979326 
369	 0.085785365010519 
370	 8.67881705629678E-02 
371	 8.65009278048463E-02 
372	 8.58599451099253E-02 
373	 8.54778199747249E-02 
374	 8.60706888178267E-02 
375	 8.63722593334381E-02 
376	 8.46280120471838E-02 
377	 8.50813830580649E-02 
378	 8.70528056585996E-02 
379	 8.47095184678072E-02 
380	 8.35805601402483E-02 
381	 8.60625583404147E-02 
382	 8.82596565702864E-02 
383	 8.92208164997678E-02 
384	 8.82637931400208E-02 
385	 8.61951440172187E-02 
386	 8.45205086862783E-02 
387	 8.68662347096747E-02 
388	 8.82332494172494E-02 
389	 8.66250429610795E-02 
390	 8.46759596991586E-02 
391	 8.45414752202065E-02 
392	 8.82150425551062E-02 
393	 8.81855786634692E-02 
394	 8.53757823961006E-02 
395	 8.74442780649406E-02 
396	 8.82144647636108E-02 
397	 8.58114295234434E-02 
398	 8.52017954879868E-02 
399	 8.53274858473072E-02 
400	 8.46948066140655E-02 
401	 8.49717624012551E-02 
402	 0.0858504889518 
403	 8.58922588565515E-02 
404	 8.61873325683373E-02 
405	 8.70579781684574E-02 
406	 0.087706111375219 
407	 8.78589697853617E-02 
408	 8.72973027868132E-02 
409	 8.65057117609977E-02 
410	 8.59355288888479E-02 
411	 8.64205060117135E-02 
412	 8.68603900776826E-02 
413	 8.68808361902855E-02 
414	 0.087822710056201 
415	 8.87913320995795E-02 
416	 8.85211235307222E-02 
417	 0.088238388937515 
418	 8.82116962590646E-02 
419	 8.82582079523991E-02 
420	 8.85061766616894E-02 
421	 8.89700860647038E-02 
422	 8.92830352835668E-02 
423	 8.94847387146827E-02 
424	 8.96994229532219E-02 
425	 9.00976186563406E-02 
426	 9.05478647411181E-02 
427	 9.03838227754729E-02 
428	 9.02706582076716E-02 
429	 9.06362213074519E-02 
430	 9.11778062194519E-02 
431	 9.16543661175914E-02 
432	 9.17580901644747E-02 
433	 9.16159666309993E-02 
434	 9.14068447273001E-02 
435	 9.15419641907211E-02 
436	 9.18289187576755E-02 
437	 9.21334781829188E-02 
438	 9.25025360494337E-02 
439	 9.28624310931171E-02 
440	 9.30931509315026E-02 
441	 9.31844948986966E-02 
442	 9.32020915802445E-02 
443	 9.33892915633468E-02 
444	 9.37046536150788E-02 
445	 9.41243664870327E-02 
446	 9.49079099429534E-02 
447	 9.57595991298274E-02 
448	 0.095999768611771 
449	 9.58699613259869E-02 
450	 9.56719059204548E-02 
451	 9.64236621716263E-02 
452	 9.73021291539058E-02 
453	 9.74447156848795E-02 
454	 9.71524670101662E-02 
455	 9.68549885935923E-02 
456	 9.75734552122393E-02 
457	 9.81471936697327E-02 
458	 9.81830416154568E-02 
459	 9.85293785299492E-02 
460	 9.87801007045091E-02 
461	 9.84079586542531E-02 
462	 9.86219856505774E-02 
463	 9.94132356853753E-02 
464	 9.98565037176338E-02 
465	 0.100289787354704 
466	 0.100766834572396 
467	 0.100529259859801 
468	 0.100233794164833 
469	 0.100941951358765 
470	 0.101327297483268 
471	 0.101219678428214 
472	 0.101334040376159 
473	 0.101461076915391 
474	 0.101516179525054 
475	 0.101951894253918 
476	 0.102382029661682 
477	 0.10203954144668 
478	 0.101735793647825 
479	 0.101752367816805 
480	 0.102105504682243 
481	 0.102534029595485 
482	 0.102832248142794 
483	 0.103242464313566 
484	 0.103621832210789 
485	 0.103541987732706 
486	 0.103414268024675 
487	 0.103422088549633 
488	 0.103596341970337 
489	 0.103829399430469 
490	 0.104008529144182 
491	 0.104142039190256 
492	 0.104349883369536 
493	 0.105040838392324 
494	 0.105286332910952 
495	 0.104863541637352 
496	 0.105079068928312 
497	 0.105856306057356 
498	 0.106925970242919 
499	 0.107211702121638 
500	 0.106809842371868 
501	 0.107052998591829 
502	 0.107551893515992 
503	 0.108022801084636 
504	 0.108190848513293 
505	 0.108172143323167 
506	 0.108189441856399 
507	 0.108776181926573 
508	 0.109775871814084 
509	 0.109912851681831 
510	 0.109893410480344 
511	 0.110280731050687 
512	 0.110440267522555 
513	 0.110593220537818 
514	 0.111579675217274 
515	 0.11200584469646 
516	 0.111612895615944 
517	 0.112047890247874 
518	 0.112624343217454 
519	 0.112505784335858 
520	 0.112728132259982 
521	 0.113232898692539 
522	 0.113257182205652 
523	 0.113452479041591 
524	 0.114045861508711 
525	 0.114442527260369 
526	 0.114718811914366 
527	 0.115076622032135 
528	 0.115180315418558 
529	 0.115146494626264 
530	 0.115662888531418 
531	 0.116191335978333 
532	 0.116377602150869 
533	 0.116442722885166 
534	 0.116563795810689 
535	 0.117023717240661 
536	 0.117428387395564 
537	 0.117702764919676 
538	 0.118142307002179 
539	 0.1186316800508 
540	 0.119029674051206 
541	 0.119105755031206 
542	 0.119078488107593 
543	 0.119686374567086 
544	 0.120059372127334 
545	 0.119953425181038 
546	 0.120287937108501 
547	 0.120797256489954 
548	 0.121028367717334 
549	 0.121136962870132 
550	 0.121248758163071 
551	 0.121691284331942 
552	 0.122030050077186 
553	 0.122033704789368 
554	 0.12225526820596 
555	 0.122611445854175 
556	 0.122778346664889 
557	 0.123250719176174 
558	 0.123933942037982 
559	 0.123683467554324 
560	 0.12331990358934 
561	 0.123631446344319 
562	 0.124143214305585 
563	 0.12460372642836 
564	 0.124591399858587 
565	 0.124633453473191 
566	 0.124911349177774 
567	 0.125060008882332 
568	 0.125178520581588 
569	 0.125431422936423 
570	 0.125542360473223 
571	 0.125570848424056 
572	 0.125971125613316 
573	 0.126283575883086 
574	 0.126271888938169 
575	 0.126459177603495 
576	 0.126767654150743 
577	 0.126924690752132 
578	 0.127052945907355 
579	 0.127139501650023 
580	 0.126973736602238 
581	 0.126867761965517 
582	 0.127082079257394 
583	 0.127210269518391 
584	 0.127278281557332 
585	 0.127536177013113 
586	 0.127928367257788 
587	 0.128354913150054 
588	 0.128374392175713 
589	 0.128173363255503 
590	 0.128061771577149 
591	 0.128052476154005 
592	 0.128179960178724 
593	 0.128522532615937 
594	 0.128757188651972 
595	 0.128711032000695 
596	 0.128695371121392 
597	 0.128715617638718 
598	 0.128706405698458 
599	 0.128631313500744 
600	 0.128540496164257 
601	 0.128765741484142 
602	 0.128718809333099 
603	 0.127984866427145 
604	 0.128251680509273 
605	 0.129183458559093 
606	 0.129214077337315 
607	 0.128889322772415 
608	 0.128497638858335 
609	 0.128587090343512 
610	 0.128923893584414 
611	 0.129137614075266 
612	 0.129102161396699 
613	 0.128897243894134 
614	 0.128946729429434 
615	 0.128978626960936 
616	 0.128835242949484 
617	 0.12864910054163 
618	 0.128498062507312 
619	 0.128453074099108 
620	 0.128769152182666 
621	 0.129290108606913 
622	 0.129005093877399 
623	 0.128698386909328 
624	 0.129075540894327 
625	 0.129397740413737 
626	 0.129475511625208 
627	 0.129115488157663 
628	 0.129135750897141 
629	 0.129768004837849 
630	 0.130153218372876 
631	 0.130225866026282 
632	 0.130017064846416 
633	 0.129992652757123 
634	 0.130090249262557 
635	 0.129656421717823 
636	 0.129245000040992 
637	 0.129224599376319 
638	 0.1296647456138 
639	 0.13019832962165 
640	 0.130151613182079 
641	 0.130376577848809 
642	 0.13088438088942 
643	 0.130490979955748 
644	 0.130260688464063 
645	 0.131079495879066 
646	 0.131383580501861 
647	 0.131050030036751 
648	 0.130480782895031 
649	 0.130395205876 
650	 0.13095094062502 
651	 0.131008171183138 
652	 0.130797666137389 
653	 0.130710257796583 
654	 0.13022289468457 
655	 0.129544844862404 
656	 0.129900742458259 
657	 0.130154168955153 
658	 0.129649322900862 
659	 0.128970611350246 
660	 0.128370048792966 
661	 0.128142087294377 
662	 0.127667240258227 
663	 0.127019776022819 
664	 0.127419596477912 
665	 0.127379255032996 
666	 0.125798588416877 
667	 0.125331915281721 
668	 0.125780066502345 
669	 0.125501868863398 
670	 0.125027925046183 
671	 0.124618210145497 
672	 0.12479186793125 
673	 0.125263473789025 
674	 0.125641329329466 
675	 0.125308546400404 
676	 0.124654700804303 
677	 0.125346915615968 
678	 0.125955006364437 
679	 0.125839030124556 
680	 0.126369235744436 
681	 0.127091077145496 
682	 0.127025981363637 
683	 0.127427454254484 
684	 0.128340522322607 
685	 0.128396052720668 
686	 0.128775869891505 
687	 0.130470199932512 
688	 0.131620120485187 
689	 0.132201570151685 
690	 0.133316690459806 
691	 0.133939126478633 
692	 0.134059724504334 
693	 0.135085529971845 
694	 0.136207799156239 
695	 0.136491088280369 
696	 0.136911082586526 
697	 0.137483993621493 
698	 0.137749508210162 
699	 0.137905152504251 
700	 0.138062001360626 
701	 0.138348920566376 
702	 0.138707064298692 
703	 0.139027952955512 
704	 0.139606405825226 
705	 0.140159947017431 
706	 0.139498274810976 
707	 0.138730444895881 
708	 0.138645586162911 
709	 0.1393263601354 
710	 0.140180862286599 
711	 0.140087195181097 
712	 0.140367916558237 
713	 0.141162721133322 
714	 0.141140967937674 
715	 0.141162667413804 
716	 0.142102714859884 
717	 0.143491064610035 
718	 0.144722396332716 
719	 0.144119108408089 
720	 0.143382677851261 
721	 0.143259906260197 
722	 0.143270790232338 
723	 0.143597218999438 
724	 0.144490791131 
725	 0.14477705463287 
726	 0.144407106646734 
727	 0.144296595694739 
728	 0.144353980383269 
729	 0.144480142045344 
730	 0.144154164472612 
731	 0.143744970261885 
732	 0.14382513245636 
733	 0.143729519343164 
734	 0.143442727826063 
735	 0.143413731400342 
736	 0.143512526244997 
737	 0.143619268327356 
738	 0.143478268563729 
739	 0.143237950310884 
740	 0.143251009302907 
741	 0.143148823843458 
742	 0.142933629434768 
743	 0.14309327714155 
744	 0.1432750451747 
745	 0.143195951103774 
746	 0.14328911928504 
747	 0.14359112445774 
748	 0.144008623594285 
749	 0.144530872163603 
750	 0.144999813433673 
751	 0.144746886789585 
752	 0.144382485528685 
753	 0.144586574607708 
754	 0.144941079812461 
755	 0.145171028633332 
756	 0.144754764205598 
757	 0.144262613937056 
758	 0.144047344842822 
759	 0.144780604865872 
760	 0.147209407147708 
761	 0.150333419862924 
762	 0.150860785393921 
763	 0.149252269350815 
764	 0.148327611487513 
765	 0.147853089528568 
766	 0.147611795984117 
767	 0.146722735832139 
768	 0.145929675018226 
769	 0.146164238389389 
770	 0.146463248084493 
771	 0.146571635611469 
772	 0.146487094528389 
773	 0.146283791387282 
774	 0.146094465350544 
775	 0.146575124573915 
776	 0.14724675069512 
777	 0.147069309444242 
778	 0.147301868922844 
779	 0.14802004516859 
780	 0.147988829460636 
781	 0.147428970374227 
782	 0.146647399318636 
783	 0.146551517997985 
784	 0.147135787223448 
785	 0.14809726929278 
786	 0.148425428187765 
787	 0.148031844074107 
788	 0.148560692831253 
789	 0.149042049466912 
790	 0.148581612885508 
791	 0.148783374691279 
792	 0.149413729761772 
793	 0.149242679442188 
794	 0.148540797525747 
795	 0.147777508961731 
796	 0.148925643228494 
797	 0.150019836189602 
798	 0.14909786091124 
799	 0.148798071811137 
800	 0.149295025030035 
801	 0.149629059626692 
802	 0.149933695100969 
803	 0.150117055912664 
804	 0.149669177019968 
805	 0.149257331886455 
806	 0.149597133020607 
807	 0.149933638086623 
808	 0.150133508558632 
809	 0.150312998373385 
810	 0.150284103700024 
811	 0.150129832432759 
812	 0.150849612157133 
813	 0.151940539298461 
814	 0.152575900042973 
815	 0.152621157373842 
816	 0.152502176170836 
817	 0.15379951782986 
818	 0.154843378007333 
819	 0.154755739738228 
820	 0.153117063102834 
821	 0.151605160998171 
822	 0.152181077392437 
823	 0.152731372865484 
824	 0.152637753392535 
825	 0.151528171510907 
826	 0.151330619850016 
827	 0.152588819795053 
828	 0.153006375193079 
829	 0.152971624957571 
830	 0.153228494612643 
831	 0.153709234472949 
832	 0.154267659882681 
833	 0.154765989497984 
834	 0.153793455747599 
835	 0.151350449717981 
836	 0.150825448739227 
837	 0.151702285078446 
838	 0.152976063732316 
839	 0.152114940900812 
840	 0.150102815196828 
841	 0.151478560983975 
842	 0.152549653943971 
843	 0.151961269227764 
844	 0.151557084823347 
845	 0.151575726569664 
846	 0.152071601628405 
847	 0.151801927431071 
848	 0.151170612229315 
849	 0.152238180737051 
850	 0.152777542937811 
851	 0.152127863867046 
852	 0.152202300647106 
853	 0.152728573590696 
854	 0.153153516662967 
855	 0.151744709731936 
856	 0.149679422195037 
857	 0.150728752384091 
858	 0.151808922553197 
859	 0.151951168366731 
860	 0.151852058492897 
861	 0.152173300469958 
862	 0.153345398424482 
863	 0.152735880034721 
864	 0.151228818076051 
865	 0.152138766840668 
866	 0.152536548145708 
867	 0.15187508403461 
868	 0.152500685751069 
869	 0.153127041392007 
870	 0.152711177025575 
871	 0.152360439887506 
872	 0.152105752239964 
873	 0.151574882446584 
874	 0.152202447389207 
875	 0.153897974322952 
876	 0.154567339164567 
877	 0.154541311181151 
878	 0.154058607880382 
879	 0.152805031757675 
880	 0.151637573327874 
881	 0.151931880955325 
882	 0.152335899832116 
883	 0.152350171279774 
884	 0.151458014795145 
885	 0.151683480370138 
886	 0.153783281133361 
887	 0.154488209972053 
888	 0.154234118577888 
889	 0.154096313979603 
890	 0.153108537565333 
891	 0.151854787748316 
892	 0.152744498203426 
893	 0.153439084405323 
894	 0.15312457794806 
895	 0.154153950843511 
896	 0.156241528475656 
897	 0.158602259227135 
898	 0.158833841737372 
899	 0.157345047484027 
900	 0.156545454340563 
901	 0.157083541046331 
902	 0.15846462304132 
903	 0.156983583563244 
904	 0.156032465054593 
905	 0.157895952955856 
906	 0.157263528960199 
907	 0.155656444951406 
908	 0.157259229314643 
909	 0.157113573235645 
910	 0.15512925853692 
911	 0.156818092800929 
912	 0.15831238847756 
913	 0.157497992320802 
914	 0.156135539403348 
915	 0.156437139657821 
916	 0.160442441409117 
917	 0.159056751480447 
918	 0.155276149657565 
919	 0.163352883271249 
920	 0.164558384624811 
921	 0.155606785067696 
922	 0.15551168699519 
923	 0.157745458775715 
924	 0.155863251968283 
925	 0.153774039683764 
926	 0.153196778765848 
927	 0.156722679669897 
928	 0.157555098516947 
929	 0.154360243815784 
930	 0.155534166813746 
931	 0.155419062253174 
932	 0.151102392650006 
933	 0.161014588115374 
934	 0.17379672512033 
935	 0.167776735973884 
936	 0.16505500395913 
937	 0.167819936875675 
938	 0.167024261308235 
939	 0.166958848479604 
940	 0.168356077519469 
941	 0.169910697506073 
942	 0.168134763022915 
943	 0.161495083341781 
944	 0.158637872887021 
945	 0.158321871239139 
946	 0.156738759781199 
947	 0.159417554557211 
948	 0.164067132988347 
949	 0.158895313151354 
950	 0.156085858683024 
951	 0.160254755281605 
952	 0.164618064930707 
953	 0.168954198583902 
954	 0.172578691820611 
955	 0.16786227054999 
956	 0.159492885014976 
957	 0.157317590807701 
958	 0.162110862512131 
959	 0.168358973602802 
960	 0.156084838819995 
961	 0.154973958809477 
962	 0.172102338755287 
963	 0.165858035783307 
964	 0.15565862233522 
965	 0.161890399736661 
966	 0.16452276723531 
967	 0.162740792268511 
968	 0.161279379180934 
969	 0.158161255199645 
970	 0.155272135272225 
971	 0.161220120379987 
972	 0.164560099221737 
973	 0.160217426052199 
974	 0.15859010237407 
975	 0.160593306334701 
976	 0.165512120103698 
977	 0.165850650070876 
978	 0.163124675033251 
979	 0.164434115421902 
980	 0.158855482356341 
981	 0.149086177785856 
982	 0.156850414893975 
983	 0.164465931504784 
984	 0.163185806262491 
985	 0.162893086338877 
986	 0.159461021719904 
987	 0.149021744020486 
988	 0.149140095428659 
989	 0.156955153741239 
990	 0.159833662312926 
991	 0.161244021610854 
992	 0.160937749068053 
993	 0.155056557052401 
994	 0.152959158954776 
995	 0.157450424387481 
996	 0.154146741103457 
997	 0.15149323363658 
998	 0.157853908402059 
999	 0.160833641070097 
1000	 0.159729165458447 
1001	 0.157016766990393 
1002	 0.162211078729859 
1003	 0.1718432110094 
1004	 0.165867597191329 
1005	 0.16189096299218 
1006	 0.165220663896022 
1007	 0.163684381099306 
1008	 0.160923467518959 
1009	 0.159542005025233 
1010	 0.151650109554693 
1011	 0.147530986560176 
1012	 0.160999398125956 
1013	 0.159534220999361 
1014	 0.146689056370861 
1015	 0.148969150351201 
1016	 0.156039777712782 
1017	 0.162735001108683 
1018	 0.162568769071585 
1019	 0.158929774877037 
1020	 0.155093650312267 
1021	 0.156433643178857 
1022	 0.163464436652672 
1023	 0.174137671611075 
1024	 0.16727571462979 
1025	 0.154280689286835 
1026	 0.160392007424022 
1027	 0.165371156816739 
1028	 0.16475546251697 
1029	 0.159236325657075 
1030	 0.159683692049913 
1031	 0.165926617115523 
1032	 0.156781775031161 
1033	 0.155385851858467 
1034	 0.171513847414781 
1035	 0.160512727454721 
1036	 0.148611218936411 
1037	 0.166569686647723 
1038	 0.17799878470533 
1039	 0.174015818772897 
1040	 0.149496827721516 
1041	 0.149264948744481 
1042	 0.171358279470243 
1043	 0.174932416927391 
1044	 0.170312008545515 
1045	 0.161462600447274 
1046	 0.148142790245195 
1047	 0.156316680397244 
1048	 0.190606332095608 
1049	 0.183328410352519 
1050	 0.155457881408909 
1051	 0.137266550110872 
1052	 0.152636879034674 
1053	 0.1717385381228 
1054	 0.14844575627684 
1055	 0.141800598167068 
1056	 0.153149411668678 
1057	 0.146251979350694 
1058	 0.155375430837976 
1059	 0.172920331704861 
1060	 0.122892427063254 
1061	 0.110826267615079 
1062	 0.164205181304432 
1063	 0.177838664697238 
1064	 0.143260215727959 
1065	 7.72744479158892E-02 
1066	 0.120750248789785 
1067	 0.185518858179662 
1068	 0.167142325981311 
1069	 0.181174564872209 
1070	 0.1929627644209 
1071	 0.124089729231668 
1072	 0.101019771296028 
1073	 0.133695493263364 
1074	 0.160254950028286 
1075	 0.159355006460966 
