Wavelength	AVEI200226.asd
325	 6.69056236445075E-02 
326	 6.85505283041576E-02 
327	 7.13412142297405E-02 
328	 7.24631723877711E-02 
329	 7.11200220177281E-02 
330	 6.70059814765629E-02 
331	 5.90955883449953E-02 
332	 5.41161221103414E-02 
333	 5.78469930199061E-02 
334	 6.28345764907906E-02 
335	 6.63025699508017E-02 
336	 6.58305764698089E-02 
337	 6.37961766678084E-02 
338	 6.17697816786951E-02 
339	 6.26829711175397E-02 
340	 6.29800611007385E-02 
341	 6.01875259780372E-02 
342	 0.061878321907864 
343	 6.53760153969027E-02 
344	 6.36096216089384E-02 
345	 0.062496005818822 
346	 6.34447973032688E-02 
347	 6.56273723105045E-02 
348	 6.64856492926064E-02 
349	 6.47176568525662E-02 
350	 6.42537999601512E-02 
351	 6.49682643346909E-02 
352	 6.58195021038674E-02 
353	 6.63057511253405E-02 
354	 6.62875447874728E-02 
355	 6.59371816092171E-02 
356	 6.55801011356399E-02 
357	 6.54324460496177E-02 
358	 6.52763777830242E-02 
359	 6.57447942081587E-02 
360	 6.78963333663179E-02 
361	 6.64602801748719E-02 
362	 6.26292662288969E-02 
363	 6.48342997639896E-02 
364	 6.70767471059964E-02 
365	 6.64380425456238E-02 
366	 6.67647068737318E-02 
367	 6.69834121314479E-02 
368	 6.51714981953234E-02 
369	 6.54211556282676E-02 
370	 0.067495379292829 
371	 6.73173263762196E-02 
372	 0.06739300114498 
373	 6.86703924096564E-02 
374	 6.80572515801343E-02 
375	 0.066821310371822 
376	 6.70863481900761E-02 
377	 6.74026286325962E-02 
378	 6.73685325702542E-02 
379	 6.66832144939386E-02 
380	 6.67333446899612E-02 
381	 6.78978736978183E-02 
382	 6.76793597072968E-02 
383	 6.72322860941493E-02 
384	 6.83176110498019E-02 
385	 6.78325400221273E-02 
386	 6.60026924926415E-02 
387	 6.57225470598318E-02 
388	 6.61842761819036E-02 
389	 0.06692732741885 
390	 6.75527659265294E-02 
391	 6.80188657060715E-02 
392	 6.83519648554655E-02 
393	 6.82985280272656E-02 
394	 6.80192385260733E-02 
395	 6.81511540505492E-02 
396	 6.78511294394764E-02 
397	 6.70516655769732E-02 
398	 6.74363253218532E-02 
399	 6.79185625123927E-02 
400	 6.73231551527587E-02 
401	 6.74496362908894E-02 
402	 6.82733330165766E-02 
403	 6.90587694955088E-02 
404	 6.93368854612321E-02 
405	 6.90860886033451E-02 
406	 0.069622977061964 
407	 7.00033405884073E-02 
408	 6.89689940084346E-02 
409	 6.86935038015124E-02 
410	 6.91971441336608E-02 
411	 6.90208826613334E-02 
412	 6.89247112823599E-02 
413	 6.92122726018203E-02 
414	 6.94817377445012E-02 
415	 6.96212573022659E-02 
416	 6.95408665471172E-02 
417	 6.99240206527368E-02 
418	 7.05258958095409E-02 
419	 6.99840282213985E-02 
420	 6.98512580118635E-02 
421	 7.07960920175228E-02 
422	 7.11148989671025E-02 
423	 7.11288688624799E-02 
424	 7.15992939738363E-02 
425	 7.16361442023039E-02 
426	 7.13399251322306E-02 
427	 7.18287023751256E-02 
428	 7.24912750466734E-02 
429	 7.28905981521773E-02 
430	 7.30620366440304E-02 
431	 7.30081955940398E-02 
432	 7.27335207148151E-02 
433	 0.072546944449778 
434	 7.25780671709094E-02 
435	 7.28899142507439E-02 
436	 7.31623752712673E-02 
437	 7.32247226757238E-02 
438	 7.35498548672177E-02 
439	 0.074041994897292 
440	 7.44163179650858E-02 
441	 7.47397239281245E-02 
442	 7.50014030274089E-02 
443	 7.51105272507887E-02 
444	 7.52455643598905E-02 
445	 7.55428581814757E-02 
446	 0.075790644359626 
447	 7.60286752845223E-02 
448	 7.64616335673004E-02 
449	 7.66440573595182E-02 
450	 7.65452037444834E-02 
451	 7.67896909335739E-02 
452	 7.72427681579302E-02 
453	 7.77114062389653E-02 
454	 7.77805175598071E-02 
455	 0.077629495352517 
456	 7.80090171558495E-02 
457	 7.82972533238684E-02 
458	 7.83132780935994E-02 
459	 7.85670269648565E-02 
460	 0.078907794611382 
461	 7.91109571998612E-02 
462	 7.92555583434837E-02 
463	 0.079378150805028 
464	 0.07955627910858 
465	 7.96678756224972E-02 
466	 7.96799783922425E-02 
467	 7.98383136613383E-02 
468	 8.00256276233186E-02 
469	 8.00312938889977E-02 
470	 8.00967121541946E-02 
471	 8.02473411048278E-02 
472	 0.080326813883056 
473	 8.04291512907304E-02 
474	 8.06362115515214E-02 
475	 0.08110716273276 
476	 0.081623583552614 
477	 8.17963751522796E-02 
478	 8.17483891061318E-02 
479	 0.081619847711681 
480	 8.17761926615567E-02 
481	 0.082123386594486 
482	 0.082533658600001 
483	 8.25362009105824E-02 
484	 8.23170670444665E-02 
485	 8.25577236524926E-02 
486	 8.25430131262587E-02 
487	 8.21712809302645E-02 
488	 8.23019589893769E-02 
489	 8.25801108554074E-02 
490	 8.26079285440169E-02 
491	 0.083014506630155 
492	 8.36047844065101E-02 
493	 8.35423695858135E-02 
494	 8.35100954571315E-02 
495	 8.37698347626816E-02 
496	 8.39534765257699E-02 
497	 8.41424289938461E-02 
498	 8.44810533036537E-02 
499	 8.49224769785659E-02 
500	 8.53478460567639E-02 
501	 8.54292939908227E-02 
502	 8.54526128004257E-02 
503	 8.55936296107692E-02 
504	 8.57240612796351E-02 
505	 8.58738124698617E-02 
506	 8.61119107465071E-02 
507	 8.64072703560606E-02 
508	 8.66822783049649E-02 
509	 0.08665343457125 
510	 8.67263012969443E-02 
511	 8.71965509499164E-02 
512	 8.75148428987026E-02 
513	 8.77278897850119E-02 
514	 8.81982232825071E-02 
515	 8.85136857167876E-02 
516	 8.85947946154795E-02 
517	 8.89035074363526E-02 
518	 8.91688178695941E-02 
519	 8.90834113850329E-02 
520	 8.91519780065197E-02 
521	 8.94142773897172E-02 
522	 8.96682892207473E-02 
523	 8.99847504402457E-02 
524	 9.03493702800885E-02 
525	 9.05321692931527E-02 
526	 9.05127773126357E-02 
527	 9.02907291859965E-02 
528	 9.03625619883569E-02 
529	 9.07891310391794E-02 
530	 9.12714066051517E-02 
531	 9.17297550464721E-02 
532	 9.20854247162437E-02 
533	 9.21609209293894E-02 
534	 0.092139751757272 
535	 9.24180028512485E-02 
536	 0.092720698642136 
537	 9.29525801353141E-02 
538	 9.30828423294833E-02 
539	 9.32399826199915E-02 
540	 9.35297795232513E-02 
541	 9.35285210762284E-02 
542	 9.34159518631681E-02 
543	 9.39271915172665E-02 
544	 9.42537706519657E-02 
545	 9.41405710743972E-02 
546	 9.42650450720128E-02 
547	 9.45576690913397E-02 
548	 9.48431603613555E-02 
549	 9.51842590672793E-02 
550	 9.55026444549913E-02 
551	 0.095516984502755 
552	 9.55320192388042E-02 
553	 9.57550373849697E-02 
554	 9.61864798476168E-02 
555	 9.65795521087993E-02 
556	 9.64740859356542E-02 
557	 9.64603772730873E-02 
558	 0.096675172888204 
559	 9.67651536168988E-02 
560	 9.68788083970143E-02 
561	 9.71446148661516E-02 
562	 9.72218439509444E-02 
563	 9.72024237991811E-02 
564	 9.74860064937779E-02 
565	 9.78298269630897E-02 
566	 9.80975461252808E-02 
567	 9.81166485747366E-02 
568	 0.098063005490148 
569	 9.81813892572306E-02 
570	 9.83780837637714E-02 
571	 9.85741456354073E-02 
572	 9.85749031581468E-02 
573	 9.86100485335001E-02 
574	 9.87975335307024E-02 
575	 9.88374204707597E-02 
576	 9.88484289332773E-02 
577	 9.91348313582691E-02 
578	 9.92166555594431E-02 
579	 9.90568450075454E-02 
580	 9.92249097071435E-02 
581	 9.93357275714318E-02 
582	 9.90885253893342E-02 
583	 9.94106727576688E-02 
584	 0.100006599292066 
585	 9.96615455339243E-02 
586	 9.94142491671954E-02 
587	 9.96203752691089E-02 
588	 9.97095455548841E-02 
589	 9.97256224091214E-02 
590	 9.97891414347044E-02 
591	 0.100090695635549 
592	 0.100493883503063 
593	 0.100425449648381 
594	 0.100353807480873 
595	 0.100532884598123 
596	 0.10064224319609 
597	 0.100646430141797 
598	 0.100530238542167 
599	 0.1007706918637 
600	 0.101278454006132 
601	 0.101004430057064 
602	 0.100501979099943 
603	 0.100311999064423 
604	 0.100369467808367 
605	 0.100645423827048 
606	 0.101192502164258 
607	 0.101179107121971 
608	 0.100479582601198 
609	 0.100689188060906 
610	 0.101158415862156 
611	 0.100895660865758 
612	 0.100784285428945 
613	 0.100900229458482 
614	 0.10079725961586 
615	 0.10056289395203 
616	 0.100302136175284 
617	 0.100394203643546 
618	 0.100679150245939 
619	 0.100798093923937 
620	 0.100811131485025 
621	 0.100744954777247 
622	 0.100671171783754 
623	 0.10065733893987 
624	 0.100765170676844 
625	 0.101034244521274 
626	 0.101328272500877 
627	 0.101300931640704 
628	 0.101238777556297 
629	 0.101243931810341 
630	 0.101180281814792 
631	 0.101110543653208 
632	 0.101122613146178 
633	 0.101253576379065 
634	 0.101497670368447 
635	 0.101888340966073 
636	 0.101902919576309 
637	 0.101357479794015 
638	 0.10145805200045 
639	 0.101962569413546 
640	 0.102160659477977 
641	 0.102182200166784 
642	 0.102099519546787 
643	 0.102150156423096 
644	 0.102212965300996 
645	 0.102199258601756 
646	 0.102519028665432 
647	 0.103022043943505 
648	 0.103170428589076 
649	 0.102984571441901 
650	 0.102584532775564 
651	 0.102663590801332 
652	 0.102833032379004 
653	 0.102563646558773 
654	 0.102267036506686 
655	 0.102082480583413 
656	 0.102262194564682 
657	 0.101996158917675 
658	 0.100987329329789 
659	 0.100590903169226 
660	 0.100673684831335 
661	 0.100801792386878 
662	 0.100666477878867 
663	 0.100229190738949 
664	 9.98729070680162E-02 
665	 9.95231224344581E-02 
666	 9.91340212603472E-02 
667	 0.099053487467867 
668	 9.90943247919964E-02 
669	 9.85797869766962E-02 
670	 9.85181464964077E-02 
671	 9.90450847409782E-02 
672	 9.86720922699905E-02 
673	 9.81693533104726E-02 
674	 0.098523809200371 
675	 9.86512478012532E-02 
676	 9.84735245076155E-02 
677	 9.85130516083072E-02 
678	 9.86006453337242E-02 
679	 9.86933553573884E-02 
680	 0.09910589541214 
681	 9.95964025755356E-02 
682	 9.97190995323112E-02 
683	 0.100249860036615 
684	 0.1011385589054 
685	 0.101267130847155 
686	 0.101500858682528 
687	 0.10254931920522 
688	 0.10304951910399 
689	 0.103105778194586 
690	 0.103615029636345 
691	 0.104307409036001 
692	 0.105063209159666 
693	 0.10562042685639 
694	 0.105932384849343 
695	 0.105976363577055 
696	 0.106187577597044 
697	 0.106569557121871 
698	 0.106864678823365 
699	 0.107197016732654 
700	 0.107582862466491 
701	 0.107835041916762 
702	 0.10792845376456 
703	 0.107866165031466 
704	 0.107979026300384 
705	 0.1082641523706 
706	 0.108412574900095 
707	 0.108402946395459 
708	 0.108278697523599 
709	 0.108532660859969 
710	 0.10900197267979 
711	 0.109285898831043 
712	 0.109273433865847 
713	 0.109078089808471 
714	 0.109425993077068 
715	 0.109806385795147 
716	 0.109765725956914 
717	 0.110261703205492 
718	 0.111133098781509 
719	 0.111015127325338 
720	 0.110824886777568 
721	 0.110884947218808 
722	 0.110764176708689 
723	 0.1108360832322 
724	 0.111553373339524 
725	 0.111966225677831 
726	 0.112043718601781 
727	 0.112739508969777 
728	 0.112659317306756 
729	 0.11140946581876 
730	 0.111386306027444 
731	 0.11193516884354 
732	 0.111789477396707 
733	 0.111592263081949 
734	 0.111465883550501 
735	 0.111273950256241 
736	 0.111518065511898 
737	 0.112381803093581 
738	 0.112394393688336 
739	 0.11186462001195 
740	 0.111747665072877 
741	 0.111757792994197 
742	 0.111878880156902 
743	 0.112342370375375 
744	 0.112593185289481 
745	 0.112209167220063 
746	 0.111970374284708 
747	 0.111949075790979 
748	 0.11192569900144 
749	 0.112094833938323 
750	 0.112453710156402 
751	 0.112624917809547 
752	 0.112805097273081 
753	 0.113207058252682 
754	 0.113172896459553 
755	 0.11287301626898 
756	 0.113212272548375 
757	 0.113329132446678 
758	 0.112958496567503 
759	 0.113430215131629 
760	 0.114906866087921 
761	 0.115720930962228 
762	 0.116081348919398 
763	 0.116027410577018 
764	 0.115286290570345 
765	 0.114866530451712 
766	 0.114988828477013 
767	 0.11479201566141 
768	 0.114547122397635 
769	 0.114633216882592 
770	 0.11477517720216 
771	 0.114884948641425 
772	 0.114867084336107 
773	 0.114974795349481 
774	 0.115318735586503 
775	 0.115293227369739 
776	 0.115098966850048 
777	 0.11526424597073 
778	 0.115243689394507 
779	 0.115074594101114 
780	 0.115591880826736 
781	 0.116153013629174 
782	 0.116236525013482 
783	 0.116156396434055 
784	 0.11610781247874 
785	 0.116436233863376 
786	 0.116383384166815 
787	 0.11583792642904 
788	 0.115537286478814 
789	 0.115643245568466 
790	 0.116219494774217 
791	 0.11652639076445 
792	 0.116587340235226 
793	 0.116887244510769 
794	 0.116971219979351 
795	 0.116737568069775 
796	 0.11648599807796 
797	 0.116369615494431 
798	 0.116523567797198 
799	 0.117023515206411 
800	 0.11764470502852 
801	 0.11785105034039 
802	 0.117520048245431 
803	 0.116882128355216 
804	 0.117511620114876 
805	 0.118293269532884 
806	 0.117952754806824 
807	 0.117634359785423 
808	 0.117527141030746 
809	 0.117439525189763 
810	 0.117590544373637 
811	 0.117997375573055 
812	 0.118118440043861 
813	 0.118162405724762 
814	 0.11846983707158 
815	 0.118845759124715 
816	 0.119230384566228 
817	 0.11970227048709 
818	 0.11969567796487 
819	 0.119077987851906 
820	 0.118363312218637 
821	 0.118113076927031 
822	 0.118920161544249 
823	 0.119843693304076 
824	 0.120361861551644 
825	 0.119920463952438 
826	 0.119259862716711 
827	 0.118797552821078 
828	 0.118933865114365 
829	 0.11931952418384 
830	 0.119458771686471 
831	 0.119243333152876 
832	 0.118951356559314 
833	 0.119505291669119 
834	 0.119817761393995 
835	 0.119469040782509 
836	 0.118868563199673 
837	 0.118774175839558 
838	 0.119900225322628 
839	 0.119635856106123 
840	 0.118460220698852 
841	 0.119445726429823 
842	 0.120264902063554 
843	 0.11993957440821 
844	 0.118904876878052 
845	 0.11811970074496 
846	 0.118574079674869 
847	 0.11912707906341 
848	 0.119450133862374 
849	 0.119316142432487 
850	 0.119514679007361 
851	 0.12022504662098 
852	 0.12039492468797 
853	 0.120173166319249 
854	 0.11985695163399 
855	 0.120109092930971 
856	 0.120553349505653 
857	 0.119877883315167 
858	 0.119338851075643 
859	 0.119283812057627 
860	 0.119102021996703 
861	 0.11894293444943 
862	 0.118975377479273 
863	 0.119091184613812 
864	 0.119332558344061 
865	 0.119842010815227 
866	 0.12045248888726 
867	 0.12093237843695 
868	 0.120612531190337 
869	 0.120415437746067 
870	 0.120960255168031 
871	 0.120267009342431 
872	 0.119198543957607 
873	 0.120013729278654 
874	 0.120456833221866 
875	 0.120283951022879 
876	 0.121646256302916 
877	 0.122054445752699 
878	 0.120136150526652 
879	 0.120128206369905 
880	 0.12093262634457 
881	 0.119771974454151 
882	 0.119742495320893 
883	 0.121068466301044 
884	 0.12161307262721 
885	 0.121770675191344 
886	 0.121706815913109 
887	 0.121080501509244 
888	 0.120718402735703 
889	 0.121677049890406 
890	 0.120771163788542 
891	 0.118609596333425 
892	 0.119516928757624 
893	 0.121493589325649 
894	 0.12328335106482 
895	 0.123346141134804 
896	 0.122083351971637 
897	 0.120415104377623 
898	 0.121298052393982 
899	 0.12353201246907 
900	 0.122407982209479 
901	 0.120984256462356 
902	 0.120474923100795 
903	 0.12170251995829 
904	 0.122134682047343 
905	 0.120161225280267 
906	 0.120365298025312 
907	 0.121654654721249 
908	 0.120810020497904 
909	 0.121314214441803 
910	 0.123072297843192 
911	 0.121810492976373 
912	 0.120698380802242 
913	 0.121458600296639 
914	 0.122036905238669 
915	 0.122481898577232 
916	 0.123134219194985 
917	 0.125078206402748 
918	 0.127040919486862 
919	 0.125086814753278 
920	 0.123454622720682 
921	 0.123206333936836 
922	 0.121357977175194 
923	 0.119530262709046 
924	 0.119396980957653 
925	 0.120966142035028 
926	 0.122957648512874 
927	 0.122481157408449 
928	 0.122406129707217 
929	 0.123951537413539 
930	 0.127537844292094 
931	 0.13043445848825 
932	 0.130141673411682 
933	 0.129169063792873 
934	 0.127813360598213 
935	 0.126169436080075 
936	 0.125011340861745 
937	 0.126326588022666 
938	 0.135990891215596 
939	 0.134121793598371 
940	 0.120374043907571 
941	 0.121749453650795 
942	 0.12629820459014 
943	 0.124989046242483 
944	 0.124892550923391 
945	 0.125594817620858 
946	 0.125118144483384 
947	 0.127302373379733 
948	 0.130639811230056 
949	 0.127780826583154 
950	 0.123957272433013 
951	 0.121246442503772 
952	 0.116464178744009 
953	 0.115567390175297 
954	 0.122839303243983 
955	 0.12360555771757 
956	 0.120949301807434 
957	 0.124572808329976 
958	 0.125993486335761 
959	 0.124205688739518 
960	 0.123141575288391 
961	 0.122454246471885 
962	 0.122411183320499 
963	 0.124111431946584 
964	 0.129788667388846 
965	 0.139999946106192 
966	 0.133999265915926 
967	 0.120349771061588 
968	 0.12188871431633 
969	 0.127317909418548 
970	 0.13152390642572 
971	 0.126909396260628 
972	 0.124110815296699 
973	 0.127733317929937 
974	 0.126186660504678 
975	 0.123356208261804 
976	 0.124401136056262 
977	 0.123102275592554 
978	 0.121067144855366 
979	 0.123921474654111 
980	 0.128132675763526 
981	 0.131048064586686 
982	 0.126945784835526 
983	 0.124737570734246 
984	 0.1279437704887 
985	 0.125167839107642 
986	 0.122918239616543 
987	 0.128331728507519 
988	 0.130542044336355 
989	 0.1281146405293 
990	 0.122009852673552 
991	 0.120619537966698 
992	 0.125360543426783 
993	 0.131541442055294 
994	 0.135044011304248 
995	 0.133238370752446 
996	 0.124478448277591 
997	 0.119351102700461 
998	 0.126865337897584 
999	 0.130572091473407 
1000	 0.12967892923202 
1001	 0.128175805815943 
1002	 0.126861978816333 
1003	 0.126356132251809 
1004	 0.127238609648335 
1005	 0.128282434571026 
1006	 0.128469985559114 
1007	 0.125684597878812 
1008	 0.12418137887711 
1009	 0.126884454107421 
1010	 0.128714060397343 
1011	 0.127840174363456 
1012	 0.12318658418702 
1013	 0.123925227838246 
1014	 0.128895858603897 
1015	 0.130437341962269 
1016	 0.130628671704389 
1017	 0.129725672832344 
1018	 0.126698973212618 
1019	 0.12577255061026 
1020	 0.127746496336936 
1021	 0.120729559513433 
1022	 0.114639584721157 
1023	 0.119518444517503 
1024	 0.124003990255148 
1025	 0.125585261697934 
1026	 0.1230954610291 
1027	 0.127722002309072 
1028	 0.136572221544008 
1029	 0.133503774587236 
1030	 0.136271191796174 
1031	 0.146713144713966 
1032	 0.145682784342027 
1033	 0.132796754059107 
1034	 0.112568227657266 
1035	 0.116448665088739 
1036	 0.126311634781838 
1037	 0.120290942776804 
1038	 0.11825498772298 
1039	 0.123095548843898 
1040	 0.134102369762993 
1041	 0.124818919938189 
1042	 0.105933333961555 
1043	 0.130045826230885 
1044	 0.14540195615373 
1045	 0.133805553571854 
1046	 0.104438059318339 
1047	 9.96795589581104E-02 
1048	 0.134079483845598 
1049	 0.138928988950729 
1050	 0.127974315866177 
1051	 0.120989054043278 
1052	 0.112899291618115 
1053	 0.116898823702629 
1054	 0.149057753752983 
1055	 0.127873269771717 
1056	 8.05086020242723E-02 
1057	 0.128569369339687 
1058	 0.152211589953636 
1059	 0.134257151481494 
1060	 0.140571262845586 
1061	 0.120460441490827 
1062	 6.61837521059359E-02 
1063	 6.41902074968954E-02 
1064	 9.21207134301122E-02 
1065	 0.121111283817993 
1066	 0.113766852486446 
1067	 8.45812952501076E-02 
1068	 5.56284790246974E-02 
1069	 7.86191952483602E-02 
1070	 0.120157128384092 
1071	 0.122917552337738 
1072	 0.112952397727561 
1073	 0.097103166049816 
1074	 7.61153347235678E-02 
1075	 7.96617775361067E-02 
