Wavelength	AVEI200086.asd
325	 2.31249422434094E-02 
326	 2.39856959887201E-02 
327	 2.97751448824544E-02 
328	 2.69467537506318E-02 
329	 2.61994791209193E-02 
330	 2.95638918065948E-02 
331	 2.53755143714318E-02 
332	 2.08753386061039E-02 
333	 2.31654633160739E-02 
334	 2.65410589392435E-02 
335	 2.79850543440278E-02 
336	 2.23629723326638E-02 
337	 2.03822823031813E-02 
338	 2.37578482051002E-02 
339	 2.33362920358344E-02 
340	 2.28190850186333E-02 
341	 2.51012581839736E-02 
342	 2.35486725889071E-02 
343	 2.02360399657822E-02 
344	 2.06575080988632E-02 
345	 2.27605455811511E-02 
346	 2.49823884576542E-02 
347	 2.40039572170338E-02 
348	 2.19330657073902E-02 
349	 2.04922815621352E-02 
350	 2.07532004769624E-02 
351	 2.17658059604522E-02 
352	 2.18565503063042E-02 
353	 2.20181116794765E-02 
354	 0.022160384675607 
355	 2.10030122059291E-02 
356	 2.06295634604165E-02 
357	 2.20593810686144E-02 
358	 2.27845904820287E-02 
359	 2.29704763681468E-02 
360	 2.33853862119636E-02 
361	 0.022871759487115 
362	 2.16552858161738E-02 
363	 2.12288633079093E-02 
364	 0.021516672571158 
365	 2.21773734221426E-02 
366	 2.13731412707344E-02 
367	 2.02232862982042E-02 
368	 0.020429510542221 
369	 0.020645217879307 
370	 2.07199713854357E-02 
371	 2.10886968355476E-02 
372	 2.22931621558106E-02 
373	 2.40045247890308E-02 
374	 2.19044181341267E-02 
375	 1.89467528696771E-02 
376	 1.96925915067421E-02 
377	 2.01724183988612E-02 
378	 1.98275936846917E-02 
379	 2.01386106037534E-02 
380	 2.00009293451352E-02 
381	 1.91133890511731E-02 
382	 1.91944829340836E-02 
383	 0.01980709850104 
384	 2.01669682926046E-02 
385	 1.99452714550141E-02 
386	 1.95751975509548E-02 
387	 2.08087808141396E-02 
388	 2.13629265876335E-02 
389	 0.020507298033152 
390	 2.06925722227133E-02 
391	 2.12968010133997E-02 
392	 2.13517461825508E-02 
393	 0.02047416771304 
394	 1.93173556924479E-02 
395	 1.98595639782167E-02 
396	 2.07283454245573E-02 
397	 0.021205080181759 
398	 2.09879407793251E-02 
399	 2.06557063719162E-02 
400	 2.08022614749566E-02 
401	 2.06353057163188E-02 
402	 2.02948531681634E-02 
403	 2.04568150214408E-02 
404	 0.020677267018577 
405	 2.07696656593636E-02 
406	 2.07499092306291E-02 
407	 2.07986723992969E-02 
408	 2.11260580903697E-02 
409	 0.021030615285477 
410	 2.06762870793112E-02 
411	 2.10447165168576E-02 
412	 2.11861199156489E-02 
413	 0.020785923164644 
414	 2.09131053302642E-02 
415	 2.11765685818263E-02 
416	 2.09577650661668E-02 
417	 2.03077262332244E-02 
418	 0.0197653121147 
419	 2.10216951709127E-02 
420	 2.18812638537129E-02 
421	 2.12818655514794E-02 
422	 2.08833417959249E-02 
423	 2.08217881701894E-02 
424	 2.10028711801729E-02 
425	 2.10232097970502E-02 
426	 2.07882460153171E-02 
427	 2.03186231350235E-02 
428	 2.03536003334234E-02 
429	 2.11586426685255E-02 
430	 2.06557181225575E-02 
431	 1.98593753296071E-02 
432	 2.09338430946115E-02 
433	 2.14846465277706E-02 
434	 2.10945882715169E-02 
435	 2.07472990745825E-02 
436	 0.020682832144277 
437	 2.09958735300912E-02 
438	 2.10864421197235E-02 
439	 2.09996725280398E-02 
440	 2.09804404342446E-02 
441	 2.10350364952069E-02 
442	 2.11538392914308E-02 
443	 0.021263810184447 
444	 2.12942174732112E-02 
445	 2.11972431193205E-02 
446	 2.10319590105335E-02 
447	 2.09285196022399E-02 
448	 2.11629513898154E-02 
449	 2.12410231219438E-02 
450	 2.10988004182215E-02 
451	 2.13561281644272E-02 
452	 0.021608722236421 
453	 2.14532694220194E-02 
454	 0.021550963742475 
455	 2.17880658114121E-02 
456	 2.14572173491955E-02 
457	 2.12797700175874E-02 
458	 2.15177110668413E-02 
459	 2.18153263521495E-02 
460	 2.19772686107314E-02 
461	 2.18219734011742E-02 
462	 2.17204856102135E-02 
463	 2.17142398919184E-02 
464	 2.16132025237466E-02 
465	 2.15810336979515E-02 
466	 2.16812165191208E-02 
467	 2.17456212422603E-02 
468	 2.17115291049632E-02 
469	 2.15145551402254E-02 
470	 2.17216751292009E-02 
471	 2.22031221853049E-02 
472	 2.19548678891972E-02 
473	 2.16447334724644E-02 
474	 2.17190053390214E-02 
475	 0.022067751710781 
476	 0.022438442980305 
477	 2.24379380863718E-02 
478	 2.22320040615859E-02 
479	 2.19908848640713E-02 
480	 2.21830587730932E-02 
481	 2.23722071472747E-02 
482	 0.022214684489872 
483	 2.20732849509201E-02 
484	 2.21028627708499E-02 
485	 2.25659059104153E-02 
486	 2.27240658925626E-02 
487	 2.24548862371815E-02 
488	 2.27628099232129E-02 
489	 2.31308428577798E-02 
490	 2.29808289379423E-02 
491	 2.26560723787937E-02 
492	 2.24217277778389E-02 
493	 2.28082717659531E-02 
494	 0.02307293908703 
495	 2.29298132183075E-02 
496	 2.28440724359602E-02 
497	 2.28399163236294E-02 
498	 0.022887679565149 
499	 2.31444462757594E-02 
500	 2.35013345666073E-02 
501	 2.34924896154242E-02 
502	 0.023423827757794 
503	 0.023462462575465 
504	 2.33244211816295E-02 
505	 0.023189490626887 
506	 2.33934721106686E-02 
507	 2.37490481321036E-02 
508	 2.41147920363147E-02 
509	 2.41992225172866E-02 
510	 2.41852575057512E-02 
511	 2.42481186674638E-02 
512	 2.46149254621382E-02 
513	 0.025004822208833 
514	 2.46480883882851E-02 
515	 2.44222829829848E-02 
516	 2.46274147806531E-02 
517	 2.49719808754944E-02 
518	 2.52453021139785E-02 
519	 2.52514022286607E-02 
520	 2.52363640744855E-02 
521	 2.52627311158414E-02 
522	 2.53152089182635E-02 
523	 2.54787127500897E-02 
524	 2.57487823594147E-02 
525	 2.58326541878891E-02 
526	 0.025808370292881 
527	 2.58235448415288E-02 
528	 2.60940719219168E-02 
529	 2.65293649968813E-02 
530	 2.66242207487873E-02 
531	 2.66643753743453E-02 
532	 2.68456721360031E-02 
533	 0.027131799496636 
534	 2.73461340919138E-02 
535	 2.71466211125277E-02 
536	 2.69734802556518E-02 
537	 2.70180384946173E-02 
538	 2.74210885262453E-02 
539	 2.77675347405248E-02 
540	 2.76739470458708E-02 
541	 2.77180361296703E-02 
542	 2.78735783487784E-02 
543	 2.76959961497016E-02 
544	 2.78038830941801E-02 
545	 2.83245321801766E-02 
546	 2.83420558509623E-02 
547	 2.81252590962782E-02 
548	 2.81337034900048E-02 
549	 2.82118809649478E-02 
550	 2.83249872585711E-02 
551	 2.84374789966171E-02 
552	 2.86202863045183E-02 
553	 2.88879347633589E-02 
554	 0.029005089025111 
555	 2.89681816627827E-02 
556	 2.88114380007994E-02 
557	 2.88977534917998E-02 
558	 0.029229682590938 
559	 0.029213038886458 
560	 2.90287954614242E-02 
561	 2.89054230900712E-02 
562	 2.93108679239958E-02 
563	 2.99787802457408E-02 
564	 3.00199410840664E-02 
565	 0.02988667068395 
566	 2.97870625552493E-02 
567	 0.029892003457612 
568	 2.99417223097049E-02 
569	 2.95863248052299E-02 
570	 2.93861259536947E-02 
571	 0.029444353143768 
572	 2.95809235385972E-02 
573	 2.96856157195108E-02 
574	 2.97087249721107E-02 
575	 2.99072795648418E-02 
576	 3.01550469479018E-02 
577	 3.01721837646641E-02 
578	 3.00376208209618E-02 
579	 2.98647832679821E-02 
580	 2.99945401379714E-02 
581	 3.02655199356532E-02 
582	 3.05064244182029E-02 
583	 3.05887989756032E-02 
584	 3.05536648071154E-02 
585	 3.05650369836872E-02 
586	 3.06715109903595E-02 
587	 3.08286276025022E-02 
588	 3.05804041797783E-02 
589	 3.02573727088554E-02 
590	 3.03505636286654E-02 
591	 3.03729566697646E-02 
592	 3.03550687414405E-02 
593	 3.08011802381261E-02 
594	 0.031243826393079 
595	 3.13608929127654E-02 
596	 3.09380736631122E-02 
597	 3.05006458485759E-02 
598	 3.10193916380281E-02 
599	 3.12796561756458E-02 
600	 3.10698635762974E-02 
601	 3.11897247401074E-02 
602	 3.15147666661198E-02 
603	 3.18904263176991E-02 
604	 3.21572227506255E-02 
605	 3.22478133139558E-02 
606	 3.20621308824166E-02 
607	 3.19912200895301E-02 
608	 3.21720771572789E-02 
609	 3.23228523590774E-02 
610	 3.23115856249621E-02 
611	 3.20161113960074E-02 
612	 3.20302438718543E-02 
613	 3.24091459552442E-02 
614	 3.28293160344159E-02 
615	 3.30597771551785E-02 
616	 3.29633820868835E-02 
617	 3.27919229189547E-02 
618	 0.032660972846654 
619	 0.03268525588215 
620	 3.27831184493237E-02 
621	 3.29042623790589E-02 
622	 3.29618051280473E-02 
623	 3.29987514625399E-02 
624	 3.30538625304771E-02 
625	 3.30557074680227E-02 
626	 3.30686431294713E-02 
627	 3.32875043530714E-02 
628	 3.35248552235497E-02 
629	 3.37012769217782E-02 
630	 3.38919357737231E-02 
631	 3.39527357669987E-02 
632	 3.37115057994012E-02 
633	 3.39684013065824E-02 
634	 3.46178692978893E-02 
635	 3.46889205597975E-02 
636	 3.45788617011259E-02 
637	 3.45221713039426E-02 
638	 3.43923363108777E-02 
639	 3.43554980224109E-02 
640	 3.47369932859044E-02 
641	 3.48950727517359E-02 
642	 3.47222084884291E-02 
643	 3.47446171692611E-02 
644	 3.47597563368561E-02 
645	 3.46128093665402E-02 
646	 3.49273960286128E-02 
647	 3.54799095962309E-02 
648	 3.53646833682534E-02 
649	 3.52724031591377E-02 
650	 3.54418432278245E-02 
651	 3.56013053210081E-02 
652	 3.56456784557792E-02 
653	 3.54805460139867E-02 
654	 0.035271720006576 
655	 3.51059359363883E-02 
656	 3.50842516591247E-02 
657	 3.53013696005405E-02 
658	 3.56986156938552E-02 
659	 3.56141420543966E-02 
660	 3.53190331510752E-02 
661	 3.53534950635582E-02 
662	 3.53986972336934E-02 
663	 3.54053296638365E-02 
664	 3.55281292303885E-02 
665	 3.56409134163645E-02 
666	 3.56331957617361E-02 
667	 0.035525261790368 
668	 3.54000173105219E-02 
669	 3.54256416374536E-02 
670	 0.035538783093489 
671	 3.57169499260065E-02 
672	 3.59707299296788E-02 
673	 3.61578413374635E-02 
674	 3.61252779263179E-02 
675	 0.035993305075987 
676	 3.59155109145442E-02 
677	 3.62197414698292E-02 
678	 0.036655351679599 
679	 0.037038225958753 
680	 3.71378815701564E-02 
681	 3.71524016217585E-02 
682	 3.74525062364363E-02 
683	 3.74714319540029E-02 
684	 3.73103130497447E-02 
685	 3.80269571715037E-02 
686	 3.88620009586987E-02 
687	 3.91516648343985E-02 
688	 3.96985725940019E-02 
689	 4.04223454373681E-02 
690	 4.09343436262024E-02 
691	 4.14482961263915E-02 
692	 0.042047578978704 
693	 0.042698867679484 
694	 4.34540363527277E-02 
695	 4.43190937802882E-02 
696	 0.045000610153621 
697	 0.045642942678291 
698	 4.68872186030659E-02 
699	 4.79484645862765E-02 
700	 0.048494947128558 
701	 4.91709641028806E-02 
702	 5.00989471002219E-02 
703	 0.051338653615053 
704	 5.23002207655183E-02 
705	 5.29505059690907E-02 
706	 5.37233597597941E-02 
707	 5.44067650957911E-02 
708	 5.49428698355685E-02 
709	 5.60812228023978E-02 
710	 0.057376921443599 
711	 5.78131567903256E-02 
712	 5.84762863399902E-02 
713	 5.95086566809259E-02 
714	 6.00312651237978E-02 
715	 6.02475040352873E-02 
716	 6.03972625404085E-02 
717	 6.06221564793085E-02 
718	 6.10891572945144E-02 
719	 6.19912359651268E-02 
720	 6.29004081612374E-02 
721	 6.35917672409552E-02 
722	 6.43579020284771E-02 
723	 6.50330565242257E-02 
724	 6.53538704166355E-02 
725	 0.065887663728337 
726	 6.66018259320081E-02 
727	 0.06711632583115 
728	 6.73863378842747E-02 
729	 6.74803407646599E-02 
730	 6.79697838993184E-02 
731	 6.88135385845614E-02 
732	 6.98391449696889E-02 
733	 7.05914065021268E-02 
734	 7.10245234788857E-02 
735	 7.13264694350088E-02 
736	 7.16398306689082E-02 
737	 7.20647320961104E-02 
738	 7.26245123412405E-02 
739	 7.32843948556066E-02 
740	 7.40085888804011E-02 
741	 7.43595716749393E-02 
742	 7.44148113116973E-02 
743	 7.51438071772345E-02 
744	 7.58783102764704E-02 
745	 7.60631452986123E-02 
746	 0.07630494648386 
747	 7.66716825096548E-02 
748	 7.70738352338745E-02 
749	 0.077423850852852 
750	 0.077758450951655 
751	 7.84923385182444E-02 
752	 7.92131605154838E-02 
753	 7.94706837052628E-02 
754	 0.079651890748971 
755	 7.98686404578962E-02 
756	 8.02411659715998E-02 
757	 8.03281762068717E-02 
758	 7.99824511915713E-02 
759	 7.98204280874121E-02 
760	 8.00973907797078E-02 
761	 8.10799432288209E-02 
762	 8.18655626832215E-02 
763	 8.21286259789056E-02 
764	 0.082116349688183 
765	 8.24860205926965E-02 
766	 8.33136905503618E-02 
767	 8.40584905458476E-02 
768	 8.45968988240278E-02 
769	 8.47944686237741E-02 
770	 8.51889948373027E-02 
771	 8.57849669461941E-02 
772	 0.08608196305038 
773	 8.63699443107044E-02 
774	 8.68538956157923E-02 
775	 8.75676743015631E-02 
776	 8.82226997937457E-02 
777	 8.83102704206702E-02 
778	 8.83654851128987E-02 
779	 8.86378656301035E-02 
780	 8.93777514088926E-02 
781	 9.01195784328104E-02 
782	 9.04958258364914E-02 
783	 0.090845116761378 
784	 9.10954602751766E-02 
785	 9.09266376106439E-02 
786	 9.11585018637072E-02 
787	 0.091907933792104 
788	 9.22546920717201E-02 
789	 9.23449967015452E-02 
790	 9.24129394001736E-02 
791	 9.32328921548631E-02 
792	 0.094256271670044 
793	 0.093730114486269 
794	 9.36747777857973E-02 
795	 9.46015552666989E-02 
796	 9.51251339001957E-02 
797	 0.095355645693344 
798	 9.55007072234749E-02 
799	 9.57063945220005E-02 
800	 9.60293973980378E-02 
801	 9.65105000308262E-02 
802	 9.69113872914327E-02 
803	 9.71636371576669E-02 
804	 9.75075368492647E-02 
805	 9.79277423039886E-02 
806	 9.83943985384314E-02 
807	 9.90692890927557E-02 
808	 9.96890231523187E-02 
809	 9.93596440490424E-02 
810	 9.92671714896661E-02 
811	 9.98670005295807E-02 
812	 0.100312902296019 
813	 0.100588119217804 
814	 0.100749969544703 
815	 0.10061686438053 
816	 0.100488311291035 
817	 0.101382586415116 
818	 0.102235234029717 
819	 0.102612441746925 
820	 0.103050707338904 
821	 0.103543531753792 
822	 0.104040111996383 
823	 0.104949566054181 
824	 0.10596353811089 
825	 0.106083632350912 
826	 0.106142096193186 
827	 0.106569022716425 
828	 0.107594358954827 
829	 0.108534751425302 
830	 0.10854312479097 
831	 0.108538891610069 
832	 0.108807883115227 
833	 0.109495931540865 
834	 0.11024863189216 
835	 0.110850079506055 
836	 0.111211537311601 
837	 0.111266289330036 
838	 0.110998783299846 
839	 0.111781721344878 
840	 0.113359633627585 
841	 0.114245045498281 
842	 0.114622779240881 
843	 0.114529965080445 
844	 0.113897412539539 
845	 0.113718397925384 
846	 0.114995114839577 
847	 0.115343643891451 
848	 0.114909370658035 
849	 0.11562222196871 
850	 0.116552167534685 
851	 0.117176945059209 
852	 0.116739598733171 
853	 0.116178990397887 
854	 0.116548606694995 
855	 0.117010022447754 
856	 0.117496881141134 
857	 0.118249823192358 
858	 0.119159432377145 
859	 0.120061857534683 
860	 0.120549376083902 
861	 0.120279925621353 
862	 0.119106904207918 
863	 0.119244944291959 
864	 0.120309980213924 
865	 0.120278554485127 
866	 0.120732414829619 
867	 0.121710318013726 
868	 0.120850206151144 
869	 0.120597395606367 
870	 0.122762775208882 
871	 0.124038735292385 
872	 0.124455406213154 
873	 0.125103745917248 
874	 0.12597260296023 
875	 0.126756251742408 
876	 0.126053357880698 
877	 0.125470705672101 
878	 0.126178648350983 
879	 0.127650031239936 
880	 0.128915810033529 
881	 0.128588575591255 
882	 0.128256044446926 
883	 0.128462464274402 
884	 0.129379036622368 
885	 0.130356728930857 
886	 0.130995737475296 
887	 0.131477468406474 
888	 0.132022683802557 
889	 0.132884163646341 
890	 0.13285656613315 
891	 0.132093151443323 
892	 0.131916342945456 
893	 0.13253048230808 
894	 0.133656396992165 
895	 0.132487417441688 
896	 0.130992901731287 
897	 0.131822049365611 
898	 0.133318690220481 
899	 0.134887510481693 
900	 0.136218446096109 
901	 0.135912769930939 
902	 0.134497325201215 
903	 0.136512041610796 
904	 0.137973322501661 
905	 0.135997407393243 
906	 0.1352253262101 
907	 0.135331424767635 
908	 0.13441933736879 
909	 0.135081797983425 
910	 0.137277845499468 
911	 0.137839310268469 
912	 0.1385558772326 
913	 0.139847970080953 
914	 0.137191823349692 
915	 0.134926367675989 
916	 0.138442076894099 
917	 0.138854377064381 
918	 0.136418621399239 
919	 0.136604157027398 
920	 0.139246640630047 
921	 0.142772623189046 
922	 0.139095036621299 
923	 0.135550296273518 
924	 0.138583855111396 
925	 0.139517327807945 
926	 0.137424819765321 
927	 0.133510767841155 
928	 0.13199104928648 
929	 0.13406081698941 
930	 0.136084969207515 
931	 0.132507550874799 
932	 0.120211412689703 
933	 0.118236811877301 
934	 0.122630167995537 
935	 0.121654310140803 
936	 0.120830821749102 
937	 0.121839198647182 
938	 0.127085225200746 
939	 0.126116688628705 
940	 0.118963766250423 
941	 0.121122849443084 
942	 0.124177943398258 
943	 0.121754829026161 
944	 0.117666223340825 
945	 0.114367726057714 
946	 0.114923021167501 
947	 0.118801147617328 
948	 0.123325333357916 
949	 0.120661353497676 
950	 0.119096238478424 
951	 0.121454939845277 
952	 0.122126575977434 
953	 0.122621552011495 
954	 0.124403723343708 
955	 0.124741705055143 
956	 0.123431415640798 
957	 0.120700359510603 
958	 0.122252065423233 
959	 0.126042219971891 
960	 0.12025717054376 
961	 0.115320293110224 
962	 0.11667700170998 
963	 0.125380033987066 
964	 0.130041487740055 
965	 0.121009182099011 
966	 0.116638937585193 
967	 0.119842973461011 
968	 0.130147228355813 
969	 0.130094579743858 
970	 0.120123556393284 
971	 0.121956188634788 
972	 0.125951150861956 
973	 0.126882363278313 
974	 0.127814394809363 
975	 0.12745233032124 
976	 0.124465154947149 
977	 0.12318125098322 
978	 0.12441742863763 
979	 0.128116522687314 
980	 0.127588125565643 
981	 0.123683521182207 
982	 0.127760637056416 
983	 0.132023050670487 
984	 0.132166705423542 
985	 0.129879945885657 
986	 0.126928113891849 
987	 0.125357514429235 
988	 0.129261864968775 
989	 0.13545818618875 
990	 0.136647552661966 
991	 0.133660308903076 
992	 0.128920942949781 
993	 0.129706919572071 
994	 0.133441094834676 
995	 0.137463983039857 
996	 0.135853557169491 
997	 0.132802584289511 
998	 0.132911056866231 
999	 0.135339554905065 
1000	 0.136823178037434 
1001	 0.131892246206313 
1002	 0.137346838475607 
1003	 0.149554337999566 
1004	 0.142461888401098 
1005	 0.133777799781465 
1006	 0.131281362505408 
1007	 0.133346121152455 
1008	 0.140400015986907 
1009	 0.150483156112807 
1010	 0.151976889747334 
1011	 0.145464119017714 
1012	 0.134527966955174 
1013	 0.135899183334071 
1014	 0.145387362419748 
1015	 0.142713608265993 
1016	 0.140486911971675 
1017	 0.140609271092357 
1018	 0.134971705887681 
1019	 0.131105772037844 
1020	 0.133345343275647 
1021	 0.139763806162121 
1022	 0.141706343472899 
1023	 0.133333240439141 
1024	 0.143601856899064 
1025	 0.159706709288045 
1026	 0.153684312408658 
1027	 0.136671295522686 
1028	 0.121760839986907 
1029	 0.141872601557433 
1030	 0.151369106268744 
1031	 0.14115536376214 
1032	 0.148546515402695 
1033	 0.157946553932726 
1034	 0.159159900838716 
1035	 0.155060495947708 
1036	 0.149090960912923 
1037	 0.14567048180419 
1038	 0.157535222212327 
1039	 0.166669922114659 
1040	 0.141915456453867 
1041	 0.131419279707924 
1042	 0.140962492883658 
1043	 0.145754771808878 
1044	 0.144767360114528 
1045	 0.139042060061635 
1046	 0.139813203949631 
1047	 0.137475914372842 
1048	 0.128971856247347 
1049	 0.133487809423041 
1050	 0.13848324551187 
1051	 0.131635859609125 
1052	 0.129383586153683 
1053	 0.135504878112995 
1054	 0.151444146384124 
1055	 0.150506947169739 
1056	 0.133543792494614 
1057	 0.120720681009597 
1058	 0.129177014024741 
1059	 0.152781497617532 
1060	 0.146447511606379 
1061	 0.140177470914892 
1062	 0.146556727272049 
1063	 0.156822957801249 
1064	 0.151472966336092 
1065	 0.126036793849411 
1066	 0.148774551761361 
1067	 0.189538767450767 
1068	 0.202301124205384 
1069	 0.193884332709072 
1070	 0.178462436795033 
1071	 0.180695322773617 
1072	 0.162363019600755 
1073	 0.128279646646046 
1074	 0.119495725315676 
1075	 0.106072608850461 
