Wavelength	AVEI200042.asd
325	 3.42527361777434E-02 
326	 3.21545177739462E-02 
327	 3.11059488383354E-02 
328	 2.62763545850905E-02 
329	 2.48772992613533E-02 
330	 2.83355466409945E-02 
331	 2.92576042642863E-02 
332	 2.75934274371218E-02 
333	 2.41956181064894E-02 
334	 2.60465967534724E-02 
335	 3.05000439523302E-02 
336	 2.86938315831804E-02 
337	 2.72926499140021E-02 
338	 0.027825100533798 
339	 2.72644500846754E-02 
340	 0.026874919922502 
341	 2.76733770857304E-02 
342	 2.81072026917002E-02 
343	 2.79928168311931E-02 
344	 2.75673576480876E-02 
345	 2.63260422475962E-02 
346	 2.46016910947072E-02 
347	 2.39073686135819E-02 
348	 2.34211896027898E-02 
349	 2.28461660946722E-02 
350	 2.52078198101555E-02 
351	 2.76853298946198E-02 
352	 2.54067883495977E-02 
353	 2.47729129848165E-02 
354	 2.60626986873326E-02 
355	 2.40661583526655E-02 
356	 2.23490663369962E-02 
357	 0.02302825671093 
358	 2.45272868436985E-02 
359	 2.57436309635666E-02 
360	 2.54397151806588E-02 
361	 2.41515938009801E-02 
362	 2.29139585209705E-02 
363	 2.46116901041088E-02 
364	 2.57364379615872E-02 
365	 2.46495829276523E-02 
366	 0.024267233438893 
367	 2.39681547820717E-02 
368	 2.25257497081722E-02 
369	 0.021926135937273 
370	 2.25809505070488E-02 
371	 2.44136591899688E-02 
372	 2.52083310889774E-02 
373	 0.023892154367038 
374	 2.23709102561726E-02 
375	 2.14568317591083E-02 
376	 2.18705486688454E-02 
377	 2.34979513518013E-02 
378	 2.51196392267634E-02 
379	 2.31200198678011E-02 
380	 2.13145412487036E-02 
381	 2.15840963658701E-02 
382	 2.18634577154193E-02 
383	 2.22587057783779E-02 
384	 2.31374459626385E-02 
385	 2.24970496259101E-02 
386	 2.11633182042363E-02 
387	 2.33358915799459E-02 
388	 2.46824880823875E-02 
389	 2.35099527062316E-02 
390	 0.022644287591697 
391	 2.25431876164837E-02 
392	 2.33674728905779E-02 
393	 2.35456173328722E-02 
394	 2.31984117882339E-02 
395	 2.38313009827252E-02 
396	 2.40041957792016E-02 
397	 2.32976805664669E-02 
398	 2.30240818980285E-02 
399	 2.27802488220334E-02 
400	 2.20562516503289E-02 
401	 2.21439663673526E-02 
402	 2.27399169052737E-02 
403	 0.022519519972082 
404	 2.24997607445994E-02 
405	 2.29691189217973E-02 
406	 2.31104500422763E-02 
407	 2.29162040152496E-02 
408	 2.24771489724238E-02 
409	 2.18542035204359E-02 
410	 2.14585488813556E-02 
411	 2.24212227394228E-02 
412	 0.022964721972262 
413	 2.24144654210252E-02 
414	 2.23938463155276E-02 
415	 2.25300068110279E-02 
416	 2.21435150034806E-02 
417	 2.19778970266217E-02 
418	 2.21387866285631E-02 
419	 2.24311808015045E-02 
420	 2.25988205587138E-02 
421	 2.24906304104186E-02 
422	 2.21113538411887E-02 
423	 2.19245160269771E-02 
424	 2.25890175325789E-02 
425	 2.27235788406685E-02 
426	 2.22359344561395E-02 
427	 2.21080694883424E-02 
428	 2.23654478979269E-02 
429	 2.28751350617847E-02 
430	 2.23603035455935E-02 
431	 2.16571826143546E-02 
432	 2.24572139947772E-02 
433	 2.27208793307893E-02 
434	 2.22129924883734E-02 
435	 2.21886274799359E-02 
436	 2.23943492614719E-02 
437	 2.26248253709835E-02 
438	 2.27347469644512E-02 
439	 2.27147889279827E-02 
440	 0.022570857886698 
441	 2.26923008637913E-02 
442	 0.023094419948517 
443	 2.33219504212833E-02 
444	 2.32948702835124E-02 
445	 0.023010494737742 
446	 2.30193654441486E-02 
447	 2.32146170842436E-02 
448	 2.31567130321255E-02 
449	 0.022959864492717 
450	 2.27139029634442E-02 
451	 2.26697006813982E-02 
452	 0.022760146770272 
453	 2.29015175890176E-02 
454	 2.31206206471679E-02 
455	 2.33347438194306E-02 
456	 2.33221984533895E-02 
457	 2.33545547636195E-02 
458	 2.35017607240116E-02 
459	 2.34799474174323E-02 
460	 2.33258954702943E-02 
461	 2.31189767225626E-02 
462	 2.32119744092778E-02 
463	 2.34484733697355E-02 
464	 2.30290273205942E-02 
465	 2.28537651011391E-02 
466	 0.023297420680584 
467	 2.34528469399413E-02 
468	 0.023378524763562 
469	 2.33141035633599E-02 
470	 2.34252569176781E-02 
471	 2.36624881277215E-02 
472	 2.36514429277447E-02 
473	 2.36390621830988E-02 
474	 2.37664510681765E-02 
475	 2.38198109891952E-02 
476	 2.37977636939491E-02 
477	 2.37438531441583E-02 
478	 2.37244340900204E-02 
479	 2.37730279375253E-02 
480	 2.39537871886328E-02 
481	 2.39563150258617E-02 
482	 0.023592300369795 
483	 2.37332690518976E-02 
484	 2.41747167224581E-02 
485	 2.40137704682923E-02 
486	 2.42253338761471E-02 
487	 0.024913601774186 
488	 2.47651409075803E-02 
489	 2.42687393580186E-02 
490	 2.40289107272282E-02 
491	 2.40420428099699E-02 
492	 2.42335195874896E-02 
493	 2.43857308852697E-02 
494	 2.45032996582241E-02 
495	 2.45715383657427E-02 
496	 2.45741622758746E-02 
497	 2.45522280100148E-02 
498	 2.45586129075619E-02 
499	 2.45108819351244E-02 
500	 2.45307841394369E-02 
501	 2.51546683036758E-02 
502	 2.54387567771556E-02 
503	 2.49187086396648E-02 
504	 2.47993189227392E-02 
505	 2.50245575468701E-02 
506	 2.52343999629314E-02 
507	 0.025228535223707 
508	 2.51083055070887E-02 
509	 2.56175671054964E-02 
510	 2.60170735833828E-02 
511	 2.57666455888166E-02 
512	 2.58998451655272E-02 
513	 2.62505714150526E-02 
514	 2.59792537027412E-02 
515	 0.025954120091913 
516	 2.63890432095022E-02 
517	 2.66589286766996E-02 
518	 2.66865850519158E-02 
519	 2.64693232383571E-02 
520	 2.65946284475829E-02 
521	 2.70170974326292E-02 
522	 2.72991912348526E-02 
523	 2.73811570656657E-02 
524	 2.72853246801481E-02 
525	 2.74405668849255E-02 
526	 2.76765233198495E-02 
527	 2.76808924131922E-02 
528	 2.78385319639257E-02 
529	 2.81552019629534E-02 
530	 2.83247410701301E-02 
531	 2.84122163983404E-02 
532	 2.84743967046668E-02 
533	 2.85950921030105E-02 
534	 2.87827122577005E-02 
535	 2.90489403075758E-02 
536	 2.90776421993177E-02 
537	 2.89097823104535E-02 
538	 2.92549033080526E-02 
539	 2.96543858256921E-02 
540	 2.96471633081463E-02 
541	 2.96562972507229E-02 
542	 2.97005944585263E-02 
543	 2.95717085702801E-02 
544	 2.95825814283498E-02 
545	 2.98482430656713E-02 
546	 3.02066695376108E-02 
547	 3.04146684500105E-02 
548	 3.01867740287129E-02 
549	 0.030256980568269 
550	 3.06213996546462E-02 
551	 3.05961600215075E-02 
552	 3.04782625027379E-02 
553	 3.04708752030447E-02 
554	 3.05872607181014E-02 
555	 3.08224057552746E-02 
556	 0.031172701765883 
557	 3.14297744848589E-02 
558	 3.14715318339937E-02 
559	 3.11630940508758E-02 
560	 3.07961531753685E-02 
561	 3.06744951633815E-02 
562	 3.10887621211373E-02 
563	 3.17487134239997E-02 
564	 3.18206943459549E-02 
565	 3.16477589934887E-02 
566	 3.14398977212273E-02 
567	 3.16622281128731E-02 
568	 3.19132151707133E-02 
569	 3.16286483116085E-02 
570	 3.14198223217809E-02 
571	 3.14384278692597E-02 
572	 0.031660812434973 
573	 3.17421544895737E-02 
574	 3.15128985534129E-02 
575	 3.15150225472454E-02 
576	 3.16166586772755E-02 
577	 3.14279230641397E-02 
578	 3.13509230729362E-02 
579	 3.14864748085641E-02 
580	 3.16768704515836E-02 
581	 3.18740037768263E-02 
582	 0.032029204929887 
583	 0.032027116908817 
584	 3.19336480021639E-02 
585	 3.19555902111709E-02 
586	 3.20515713091023E-02 
587	 3.21564962363623E-02 
588	 3.19393601269046E-02 
589	 3.16779123580186E-02 
590	 3.17789177727539E-02 
591	 3.20641938736493E-02 
592	 3.23703247065986E-02 
593	 3.23573796890624E-02 
594	 3.23368029582226E-02 
595	 0.03247849963017 
596	 0.03255926206991 
597	 3.26149777289486E-02 
598	 3.27765468594761E-02 
599	 3.26633100623694E-02 
600	 0.032365561797904 
601	 3.28133995340585E-02 
602	 3.32489862181643E-02 
603	 3.30151741168772E-02 
604	 0.032954090657371 
605	 3.30809121768982E-02 
606	 3.30196706279872E-02 
607	 3.30427839178685E-02 
608	 3.32281218672853E-02 
609	 3.34378801406475E-02 
610	 0.033384049706773 
611	 3.27440141135376E-02 
612	 3.29877414405144E-02 
613	 3.39184017538424E-02 
614	 3.36056302727719E-02 
615	 0.033157277417526 
616	 3.32294420318559E-02 
617	 0.033316577979928 
618	 3.33402384106205E-02 
619	 3.32588900247276E-02 
620	 3.33775599562743E-02 
621	 3.36704834320093E-02 
622	 3.36260632130838E-02 
623	 3.34118815028208E-02 
624	 3.32169043651282E-02 
625	 3.32536908169001E-02 
626	 3.34982503604915E-02 
627	 3.38350777136128E-02 
628	 3.37947311077662E-02 
629	 3.33438758102927E-02 
630	 3.36220835258972E-02 
631	 3.40487899188821E-02 
632	 3.37922584750699E-02 
633	 0.033918052116413 
634	 3.44328513543068E-02 
635	 3.45068877764222E-02 
636	 3.46109310052597E-02 
637	 0.034951636440976 
638	 3.48866683133408E-02 
639	 3.45719912780474E-02 
640	 0.034418303461601 
641	 3.43136884250124E-02 
642	 3.43081346245736E-02 
643	 3.47045789705883E-02 
644	 3.49958722476434E-02 
645	 3.47797527843772E-02 
646	 3.50336877980452E-02 
647	 3.55396452996009E-02 
648	 3.51911749206848E-02 
649	 3.49982502523102E-02 
650	 3.52570734764728E-02 
651	 3.52121508628873E-02 
652	 3.49712112222479E-02 
653	 0.034736117765587 
654	 3.47015440540556E-02 
655	 3.48350956857781E-02 
656	 3.47900041534593E-02 
657	 3.48073655481788E-02 
658	 3.49933133369982E-02 
659	 3.50988514566613E-02 
660	 3.50338144412792E-02 
661	 0.034674213159499 
662	 3.46301182471913E-02 
663	 3.49150374247023E-02 
664	 3.47649200678231E-02 
665	 3.45055398098518E-02 
666	 3.44136930705795E-02 
667	 3.41716040586744E-02 
668	 3.38709212082744E-02 
669	 3.38094783123343E-02 
670	 3.39925390208471E-02 
671	 3.43575079015617E-02 
672	 3.45490732360624E-02 
673	 3.45370374024738E-02 
674	 3.43384720385016E-02 
675	 3.43057211015647E-02 
676	 3.44699334457142E-02 
677	 3.46237262481392E-02 
678	 0.034807212445832 
679	 3.50410623372415E-02 
680	 0.035376968240813 
681	 3.56843983282588E-02 
682	 3.57549888698098E-02 
683	 3.57774212398107E-02 
684	 3.59368467507233E-02 
685	 3.67185470477147E-02 
686	 0.037623912728249 
687	 3.81806957088811E-02 
688	 3.85321244907233E-02 
689	 3.88551213277323E-02 
690	 3.95617948859186E-02 
691	 4.02584347217005E-02 
692	 4.08809491348039E-02 
693	 4.16277908223852E-02 
694	 4.25427786773416E-02 
695	 4.35991503236183E-02 
696	 4.44396902318916E-02 
697	 4.51367955201069E-02 
698	 4.61327194065346E-02 
699	 4.71623145563555E-02 
700	 4.80870043545411E-02 
701	 4.89431905786495E-02 
702	 4.98405926861192E-02 
703	 5.09308102804968E-02 
704	 5.17721665431242E-02 
705	 5.24612891313241E-02 
706	 0.053752543856722 
707	 5.47172630761102E-02 
708	 0.054850309421475 
709	 5.53073087762235E-02 
710	 5.61352844669044E-02 
711	 5.71182527495715E-02 
712	 5.79250157023788E-02 
713	 5.85030871574942E-02 
714	 5.92949978287834E-02 
715	 0.059913387846306 
716	 6.00205905276379E-02 
717	 6.01504415077894E-02 
718	 6.05531819599991E-02 
719	 6.14393802725847E-02 
720	 6.24283737781667E-02 
721	 6.31791232426032E-02 
722	 6.34097526128155E-02 
723	 6.35380631701513E-02 
724	 6.39953417046268E-02 
725	 6.46125909912092E-02 
726	 6.52188013528996E-02 
727	 6.55711651743593E-02 
728	 0.065881482595805 
729	 6.62503846028583E-02 
730	 6.65183008464076E-02 
731	 6.68875925817807E-02 
732	 6.76365989513223E-02 
733	 6.81174878057565E-02 
734	 6.83115441080001E-02 
735	 6.86067636619993E-02 
736	 6.90562086742599E-02 
737	 6.96690515172401E-02 
738	 7.02879003980044E-02 
739	 7.08111698293391E-02 
740	 0.071106327272502 
741	 7.14032554696922E-02 
742	 7.17796231718561E-02 
743	 7.22471217531912E-02 
744	 7.25569782672365E-02 
745	 7.25405568542114E-02 
746	 7.27584723921514E-02 
747	 7.31674483861023E-02 
748	 7.33826905083271E-02 
749	 7.38243935197079E-02 
750	 7.44798048250946E-02 
751	 7.44761592758094E-02 
752	 7.43846229005225E-02 
753	 7.48484137803266E-02 
754	 7.50681379945015E-02 
755	 7.50976653460192E-02 
756	 0.075598146939578 
757	 7.59081185760659E-02 
758	 7.58046892414952E-02 
759	 7.60205064812103E-02 
760	 7.66950247670184E-02 
761	 7.72287851090815E-02 
762	 7.71798765800589E-02 
763	 7.69383855274585E-02 
764	 7.74310011919818E-02 
765	 7.81246109215167E-02 
766	 7.86747081841157E-02 
767	 7.85722964700148E-02 
768	 7.85160396351828E-02 
769	 7.93420849946055E-02 
770	 7.98274902836396E-02 
771	 0.079877875622897 
772	 8.02981988019447E-02 
773	 0.080680748678785 
774	 8.08452421217328E-02 
775	 8.18214274473592E-02 
776	 8.28223565083318E-02 
777	 8.21985714848921E-02 
778	 8.16912593441813E-02 
779	 8.17990421466633E-02 
780	 8.20591244388177E-02 
781	 8.26484447383187E-02 
782	 8.35968322965649E-02 
783	 8.36931176746664E-02 
784	 8.33124181854114E-02 
785	 8.36782266966448E-02 
786	 8.41447403604296E-02 
787	 8.45516005462524E-02 
788	 8.51591051590473E-02 
789	 8.55193449729692E-02 
790	 8.52546001680713E-02 
791	 8.51937899380084E-02 
792	 8.54319103707463E-02 
793	 8.57634079973804E-02 
794	 8.62206706151605E-02 
795	 8.67033196738335E-02 
796	 8.67136611829338E-02 
797	 8.68537139235653E-02 
798	 8.76847370458055E-02 
799	 8.78086665981014E-02 
800	 8.74587867995548E-02 
801	 8.80576010618561E-02 
802	 8.84326401845481E-02 
803	 8.83032597100325E-02 
804	 8.87697439267454E-02 
805	 8.93306508996591E-02 
806	 8.93976734540334E-02 
807	 8.97797397060009E-02 
808	 9.02285940867356E-02 
809	 8.94410238766184E-02 
810	 8.92100805596948E-02 
811	 9.01311316546431E-02 
812	 9.03549578584665E-02 
813	 9.03264574382161E-02 
814	 9.08169115440019E-02 
815	 9.03589250057111E-02 
816	 8.94756626856926E-02 
817	 9.10683397597776E-02 
818	 9.20598488553317E-02 
819	 9.15138542450481E-02 
820	 9.23863659900061E-02 
821	 0.093514750911442 
822	 0.093329994991344 
823	 9.37375291379038E-02 
824	 9.46410368689041E-02 
825	 9.45509130781028E-02 
826	 0.09468674254359 
827	 0.095369592246818 
828	 9.51325977914128E-02 
829	 9.48655408487796E-02 
830	 9.57617051293542E-02 
831	 9.62333560548344E-02 
832	 9.62415529771771E-02 
833	 9.66768783592055E-02 
834	 9.73802526094718E-02 
835	 9.81239866403557E-02 
836	 9.79649265061926E-02 
837	 9.77756226093568E-02 
838	 9.85746049217231E-02 
839	 9.89253080745465E-02 
840	 9.89093242087254E-02 
841	 9.97310542268225E-02 
842	 0.10007812876505 
843	 9.96220536732035E-02 
844	 9.99460438756671E-02 
845	 0.100419994786619 
846	 0.100215296792357 
847	 9.98533152804376E-02 
848	 9.97137203842178E-02 
849	 0.100583516138296 
850	 0.101262298249999 
851	 0.101267917561937 
852	 0.101110644133089 
853	 0.101085638815745 
854	 0.10142390370191 
855	 0.101165885404966 
856	 0.100789746133842 
857	 0.101943205666533 
858	 0.103221348369497 
859	 0.104001211659321 
860	 0.103862495042006 
861	 0.103624841993392 
862	 0.1040199484261 
863	 0.10368946835343 
864	 0.102926048924725 
865	 0.1029235446756 
866	 0.103496635266159 
867	 0.104355508019981 
868	 0.104346531027108 
869	 0.104566900081527 
870	 0.105796562787914 
871	 0.106162530072238 
872	 0.105870686738206 
873	 0.105833444451644 
874	 0.106587056905492 
875	 0.107678290147203 
876	 0.106264259860358 
877	 0.105753741509648 
878	 0.108216059805027 
879	 0.109266558130386 
880	 0.109263862548505 
881	 0.109815040969234 
882	 0.110447011877508 
883	 0.110973748354401 
884	 0.111154402829456 
885	 0.110738781785787 
886	 0.109925017848332 
887	 0.110917544683337 
888	 0.112554947820543 
889	 0.112987307374646 
890	 0.11230935183183 
891	 0.111161080480474 
892	 0.111526237735055 
893	 0.112310975277631 
894	 0.112785095784792 
895	 0.111811935522636 
896	 0.110587683975549 
897	 0.110722385874958 
898	 0.111838600557139 
899	 0.113455352461518 
900	 0.114831168161811 
901	 0.114456895108488 
902	 0.112622783545163 
903	 0.112836590583822 
904	 0.114003908222918 
905	 0.114955877375682 
906	 0.114148265179048 
907	 0.112332916339558 
908	 0.11117481586165 
909	 0.113226521368505 
910	 0.117120203457111 
911	 0.114196534412594 
912	 0.112521446971163 
913	 0.115993232794503 
914	 0.116544198248168 
915	 0.11512686077148 
916	 0.113993661366016 
917	 0.114947657571037 
918	 0.116982333671129 
919	 0.116275014277698 
920	 0.115516354219802 
921	 0.115622075764921 
922	 0.116285781418756 
923	 0.1165004818537 
924	 0.115503770740614 
925	 0.115531338435613 
926	 0.115962041029801 
927	 0.114456921403787 
928	 0.113743515587105 
929	 0.114758136864909 
930	 0.117112409771806 
931	 0.115717746817276 
932	 0.107043596358791 
933	 0.102392977799442 
934	 0.103570784608399 
935	 0.10904414068562 
936	 0.110120505158151 
937	 0.108182769358176 
938	 0.114405290390074 
939	 0.113274701892336 
940	 0.103302667140434 
941	 9.84727206612421E-02 
942	 0.102164023011385 
943	 0.113657795935823 
944	 0.108755099477797 
945	 9.59677204333567E-02 
946	 9.40807505939518E-02 
947	 9.75892523966079E-02 
948	 0.103993305392354 
949	 0.109829817014373 
950	 0.109345164414278 
951	 0.102811163828951 
952	 0.105898725301547 
953	 0.110462123558637 
954	 0.108621725485986 
955	 0.104708309448545 
956	 0.10129850561497 
957	 0.101369201546931 
958	 0.105068889029692 
959	 0.108603727649945 
960	 0.10008042382077 
961	 9.36014460475023E-02 
962	 9.54451182355799E-02 
963	 9.95552302248691E-02 
964	 0.103638334388962 
965	 0.105822874193847 
966	 0.102953495027009 
967	 9.98180089693825E-02 
968	 0.106392495144856 
969	 0.109548988714407 
970	 0.106892015175437 
971	 0.104026775744409 
972	 0.100566751420084 
973	 0.097660780573174 
974	 0.103377621758823 
975	 0.110809948994007 
976	 0.111860956615311 
977	 0.109854595867733 
978	 0.106281798989403 
979	 0.102546483681294 
980	 0.103811093826358 
981	 0.109040158239038 
982	 0.10806096533669 
983	 0.107034076673524 
984	 0.1086488801714 
985	 0.107831619513017 
986	 0.10449371281322 
987	 9.97909345563203E-02 
988	 0.104267486602427 
989	 0.11249175139565 
990	 0.110198214619752 
991	 0.107361524794937 
992	 0.107048563203707 
993	 0.109502812147604 
994	 0.1127453222657 
995	 0.114632991116515 
996	 0.110219076020295 
997	 0.107372497812507 
998	 0.113166192733885 
999	 0.114492260038562 
1000	 0.111911601414774 
1001	 0.110395431629007 
1002	 0.114534981430032 
1003	 0.121593027011675 
1004	 0.118502803455069 
1005	 0.114173478273387 
1006	 0.113295908432488 
1007	 0.119156696400873 
1008	 0.125015692276633 
1009	 0.125462313720923 
1010	 0.126145591203194 
1011	 0.122711485412063 
1012	 0.109123340823916 
1013	 0.110546124778931 
1014	 0.121775334238735 
1015	 0.115864811318637 
1016	 0.10997595178384 
1017	 0.108975970966254 
1018	 0.110410162839884 
1019	 0.113218819244019 
1020	 0.117040375311787 
1021	 0.125692729544987 
1022	 0.130183829335412 
1023	 0.123240402563949 
1024	 0.12515684954201 
1025	 0.129222746714552 
1026	 0.119024485937709 
1027	 0.11011203368117 
1028	 0.108683618775235 
1029	 0.121665341986825 
1030	 0.127736490104101 
1031	 0.122412047820517 
1032	 0.124029242828884 
1033	 0.125282528927556 
1034	 0.122809101006643 
1035	 0.126999956620497 
1036	 0.130425643346005 
1037	 0.125222645760405 
1038	 0.127355766484285 
1039	 0.129690036275707 
1040	 0.116267591360609 
1041	 0.10641938823795 
1042	 0.107174869868663 
1043	 0.12168705891514 
1044	 0.127651848348612 
1045	 0.121049591041535 
1046	 0.124984024860808 
1047	 0.128483212742634 
1048	 0.125741052643151 
1049	 0.126076690678131 
1050	 0.126784776700889 
1051	 0.124142803851333 
1052	 0.11102522239431 
1053	 0.111705265345011 
1054	 0.159952353443765 
1055	 0.152471898110525 
1056	 0.102561162668024 
1057	 0.111748084895191 
1058	 0.120064549223771 
1059	 0.116695272353988 
1060	 0.124781386688525 
1061	 0.131640946867895 
1062	 0.131071657171222 
1063	 0.121087039591837 
1064	 0.123090555600434 
1065	 0.146082065199244 
1066	 0.134302237620269 
1067	 0.128077186072883 
1068	 0.170124007056294 
1069	 0.172157136512129 
1070	 0.150606848148306 
1071	 0.157242916490807 
1072	 0.138704720430579 
1073	 0.105888477221712 
1074	 0.122661154117485 
1075	 0.125843363651572 
