Wavelength	AVEI200005.asd
325	 3.95612729711902E-02 
326	 4.09307709034804E-02 
327	 4.05582609814924E-02 
328	 3.90004685771258E-02 
329	 3.68632365875586E-02 
330	 3.47780171469111E-02 
331	 3.34016382703303E-02 
332	 3.39106012512537E-02 
333	 3.70734890268858E-02 
334	 3.86254064811783E-02 
335	 3.81639791551026E-02 
336	 3.62397049752023E-02 
337	 3.65551416231233E-02 
338	 0.038623188982324 
339	 3.41581746152216E-02 
340	 3.03069204686949E-02 
341	 3.27304060182082E-02 
342	 3.42105342355363E-02 
343	 3.41393071289654E-02 
344	 0.033695734224127 
345	 0.032391945469815 
346	 3.09610334476247E-02 
347	 3.23768053321722E-02 
348	 3.33614507710405E-02 
349	 3.20430171366979E-02 
350	 3.29175180571531E-02 
351	 3.41925402885363E-02 
352	 3.21803108980894E-02 
353	 3.09547861604472E-02 
354	 3.13296139852934E-02 
355	 0.032353023189701 
356	 3.28802969789687E-02 
357	 3.22617700065008E-02 
358	 3.11813047630386E-02 
359	 3.04791090716237E-02 
360	 3.12346420243947E-02 
361	 3.08600022853013E-02 
362	 2.98363948071082E-02 
363	 3.22833409627438E-02 
364	 3.33845333906214E-02 
365	 3.10758392492913E-02 
366	 3.02142324242337E-02 
367	 2.99013050278357E-02 
368	 2.82449407524247E-02 
369	 2.86511677893389E-02 
370	 3.10196360796061E-02 
371	 0.03265575262566 
372	 3.31778393695534E-02 
373	 3.23569234612846E-02 
374	 3.07016837570299E-02 
375	 2.93780811327287E-02 
376	 2.97735413184132E-02 
377	 3.06730087856008E-02 
378	 3.13548518643194E-02 
379	 3.05748216748852E-02 
380	 3.01943864382007E-02 
381	 3.09433215707406E-02 
382	 3.07568284621562E-02 
383	 3.02698444136399E-02 
384	 3.05447404171705E-02 
385	 3.07795893304759E-02 
386	 3.10076239351151E-02 
387	 3.20040844496632E-02 
388	 3.25043760086559E-02 
389	 3.20203329209336E-02 
390	 3.14384435140707E-02 
391	 3.10791397574232E-02 
392	 3.11728306739009E-02 
393	 3.05746970497128E-02 
394	 2.98132432900931E-02 
395	 3.11200409101129E-02 
396	 3.21150254145833E-02 
397	 3.18529543558008E-02 
398	 3.13513253057075E-02 
399	 3.08923067792617E-02 
400	 3.06393093173168E-02 
401	 3.00794745225414E-02 
402	 2.94388698664084E-02 
403	 2.94741499554503E-02 
404	 2.96237426900109E-02 
405	 2.96256527162847E-02 
406	 2.93623754893477E-02 
407	 2.92467456177518E-02 
408	 2.97754496470438E-02 
409	 2.99896545250788E-02 
410	 0.029832405531515 
411	 2.98243294683886E-02 
412	 2.97773780041697E-02 
413	 2.96802662962631E-02 
414	 3.00898410369111E-02 
415	 3.02781218390269E-02 
416	 2.92768917203372E-02 
417	 2.87115744153469E-02 
418	 2.89204175186091E-02 
419	 2.97487592207348E-02 
420	 3.01284090856813E-02 
421	 2.95891978863584E-02 
422	 2.93491117301243E-02 
423	 2.94906524697357E-02 
424	 2.99177963108001E-02 
425	 0.030022319484407 
426	 2.97112151126835E-02 
427	 2.92565500546277E-02 
428	 0.029094441627467 
429	 2.94565647155988E-02 
430	 2.96868179023562E-02 
431	 2.97864932433943E-02 
432	 0.029930683342107 
433	 2.99163166191359E-02 
434	 2.97587857026522E-02 
435	 2.96880734172874E-02 
436	 2.96375334365888E-02 
437	 2.95858335991728E-02 
438	 2.98256778178035E-02 
439	 3.00523757896136E-02 
440	 2.96075617948679E-02 
441	 2.94932667413733E-02 
442	 2.98825153104862E-02 
443	 3.01169107618034E-02 
444	 3.02164204556169E-02 
445	 3.02356621065652E-02 
446	 3.04151942344643E-02 
447	 3.06338229137053E-02 
448	 3.05407500279283E-02 
449	 3.03157121686607E-02 
450	 0.030115895154986 
451	 3.03595028330372E-02 
452	 3.06750639770589E-02 
453	 3.06862178737179E-02 
454	 0.030769785078238 
455	 3.09446255080153E-02 
456	 3.10532539726123E-02 
457	 3.12361163110886E-02 
458	 3.14549344179651E-02 
459	 3.11630901337398E-02 
460	 3.08516195229233E-02 
461	 3.11308949242028E-02 
462	 3.11746497735305E-02 
463	 3.09816619136109E-02 
464	 3.11468093940727E-02 
465	 3.13543226752166E-02 
466	 3.14534469031961E-02 
467	 3.15981197821405E-02 
468	 3.16984601562232E-02 
469	 3.16015715069774E-02 
470	 3.17810847137251E-02 
471	 3.21159590026754E-02 
472	 3.16760495664961E-02 
473	 3.14313459853597E-02 
474	 3.19437123088789E-02 
475	 3.23682682500325E-02 
476	 3.25804072556931E-02 
477	 3.25827847910253E-02 
478	 3.25667741988298E-02 
479	 3.25888954467946E-02 
480	 3.25951981952065E-02 
481	 3.25095318917875E-02 
482	 3.22928929795886E-02 
483	 3.21976645064742E-02 
484	 3.22749792935117E-02 
485	 3.25412769803558E-02 
486	 3.27444331122913E-02 
487	 3.28637567736715E-02 
488	 3.34492726973268E-02 
489	 3.38227899795712E-02 
490	 3.33220231677256E-02 
491	 3.30866441835267E-02 
492	 3.31832108973624E-02 
493	 3.31262203667988E-02 
494	 3.30519635792892E-02 
495	 3.30463486562771E-02 
496	 3.33139400422833E-02 
497	 3.36378082765551E-02 
498	 3.37202398452821E-02 
499	 3.37693759663457E-02 
500	 3.38779950913795E-02 
501	 3.41885620314665E-02 
502	 3.44429405895295E-02 
503	 3.44948911780488E-02 
504	 3.45604661868672E-02 
505	 0.03463110272151 
506	 3.46332836539327E-02 
507	 3.47371553095725E-02 
508	 3.49940718641902E-02 
509	 3.53916163671752E-02 
510	 3.57788040326984E-02 
511	 3.60345485517203E-02 
512	 3.62424668470552E-02 
513	 3.63615711738945E-02 
514	 3.62378985080241E-02 
515	 3.61943640724137E-02 
516	 3.63871812538058E-02 
517	 3.69220608689883E-02 
518	 0.037296712908332 
519	 3.70059714150203E-02 
520	 3.70554918955541E-02 
521	 3.75189328606785E-02 
522	 3.80481579065409E-02 
523	 3.83178862442565E-02 
524	 3.82354991259055E-02 
525	 0.038387306750132 
526	 3.86212977146464E-02 
527	 3.86233547406543E-02 
528	 3.88515362764641E-02 
529	 3.93116388296017E-02 
530	 3.96466474100211E-02 
531	 3.98194950980514E-02 
532	 3.98546476965822E-02 
533	 4.02425070988486E-02 
534	 4.07263786983026E-02 
535	 4.06458564020352E-02 
536	 4.06877729232379E-02 
537	 4.10008730046035E-02 
538	 4.11646558773867E-02 
539	 4.13521810729587E-02 
540	 0.041726203378074 
541	 4.18605080142153E-02 
542	 4.18059557598143E-02 
543	 4.18788061927384E-02 
544	 4.22264911814435E-02 
545	 4.28122760278954E-02 
546	 4.29678022645509E-02 
547	 4.29033150242999E-02 
548	 4.29759961856448E-02 
549	 4.30724789287728E-02 
550	 0.043213350642106 
551	 4.35419918301508E-02 
552	 4.37760770472547E-02 
553	 4.37735877172337E-02 
554	 4.39621834730684E-02 
555	 4.43018913751654E-02 
556	 4.46214062818476E-02 
557	 4.48093502714771E-02 
558	 4.48032454705786E-02 
559	 4.45465664285381E-02 
560	 4.43775862460006E-02 
561	 4.46010117681979E-02 
562	 4.49939183621951E-02 
563	 4.53887621130462E-02 
564	 4.54818471563265E-02 
565	 4.56268689082197E-02 
566	 4.59119640564313E-02 
567	 4.59352815548028E-02 
568	 4.58630164019808E-02 
569	 4.59504544910355E-02 
570	 4.58044801588837E-02 
571	 4.55343828590019E-02 
572	 4.58308900784524E-02 
573	 4.60929999185039E-02 
574	 4.60022787064628E-02 
575	 4.61819583022371E-02 
576	 4.65123077539302E-02 
577	 4.66275710705757E-02 
578	 0.046716252996612 
579	 4.68056633014757E-02 
580	 4.67508478922311E-02 
581	 4.68046638685411E-02 
582	 4.71686904165724E-02 
583	 4.74386128497301E-02 
584	 4.75809734275237E-02 
585	 4.77563996469897E-02 
586	 4.77433161437976E-02 
587	 4.74860945104063E-02 
588	 4.72200261881463E-02 
589	 0.047041639062515 
590	 0.047047261681408 
591	 4.73823183107621E-02 
592	 4.79330837744628E-02 
593	 4.83249877083541E-02 
594	 4.84831857375892E-02 
595	 4.83935931266041E-02 
596	 4.83702734069809E-02 
597	 4.84531807446563E-02 
598	 4.86342928581064E-02 
599	 0.048630214165007 
600	 0.048512347242583 
601	 4.90265013731129E-02 
602	 4.95012637289994E-02 
603	 4.93622732984272E-02 
604	 4.94405836611727E-02 
605	 4.96946033144447E-02 
606	 4.96464834255074E-02 
607	 4.94784219645643E-02 
608	 4.93078215576317E-02 
609	 4.94130485163438E-02 
610	 0.049564507196575 
611	 4.94453921880261E-02 
612	 4.96918375022277E-02 
613	 5.01865016920238E-02 
614	 5.00198509460318E-02 
615	 4.98118613662155E-02 
616	 4.99456613266124E-02 
617	 5.02947038630535E-02 
618	 5.04512339629014E-02 
619	 4.96959733303341E-02 
620	 4.96034077825074E-02 
621	 5.03258077898265E-02 
622	 5.02734342936879E-02 
623	 4.99854573467912E-02 
624	 5.00059246463201E-02 
625	 5.03411535597115E-02 
626	 0.050762195186299 
627	 0.050648902452317 
628	 0.050588510738865 
629	 5.07968034425852E-02 
630	 5.10517722294217E-02 
631	 5.11981660010189E-02 
632	 5.10766375619637E-02 
633	 5.13445269311415E-02 
634	 5.19156700104613E-02 
635	 5.19336575957623E-02 
636	 5.21030683759534E-02 
637	 5.27284355813848E-02 
638	 5.27165171075199E-02 
639	 5.23973466218666E-02 
640	 5.26167663711194E-02 
641	 5.26464650715178E-02 
642	 5.24565663297712E-02 
643	 5.28926228124572E-02 
644	 5.33162149701961E-02 
645	 0.053172863829469 
646	 5.31398441220425E-02 
647	 5.32688138855736E-02 
648	 5.33061511420895E-02 
649	 5.35880431729676E-02 
650	 5.40993463043372E-02 
651	 5.40666380240336E-02 
652	 5.37050994145591E-02 
653	 5.33501697205159E-02 
654	 5.29950282444149E-02 
655	 5.27745545569262E-02 
656	 5.31589659413225E-02 
657	 5.33195267879267E-02 
658	 5.28659500745201E-02 
659	 5.29041264217057E-02 
660	 0.053121281129388 
661	 5.28382122694413E-02 
662	 5.23405872695722E-02 
663	 5.17985310504363E-02 
664	 5.15541076262291E-02 
665	 5.14347862776945E-02 
666	 5.12636136245916E-02 
667	 5.08069554469828E-02 
668	 5.02870661550446E-02 
669	 5.03311191349887E-02 
670	 5.05075426347704E-02 
671	 5.06073008577095E-02 
672	 5.04421394395542E-02 
673	 5.01762632031781E-02 
674	 5.00229799330162E-02 
675	 5.01564199148011E-02 
676	 5.04970836266145E-02 
677	 5.06471688323488E-02 
678	 5.09116095527894E-02 
679	 5.13956474436138E-02 
680	 5.16126467380123E-02 
681	 5.17941944816029E-02 
682	 5.23935424231823E-02 
683	 5.30204064585045E-02 
684	 5.36343391308684E-02 
685	 5.45903884716534E-02 
686	 5.55990512146441E-02 
687	 5.63960984201495E-02 
688	 5.72788032659215E-02 
689	 5.82509945373972E-02 
690	 5.93384582412914E-02 
691	 6.07597555450782E-02 
692	 0.062416620035394 
693	 6.32995742565275E-02 
694	 6.41167991494621E-02 
695	 6.55920846485416E-02 
696	 6.68947679683119E-02 
697	 6.80435460118877E-02 
698	 6.96860455820575E-02 
699	 7.09802622297172E-02 
700	 7.16279907176526E-02 
701	 7.28227915678202E-02 
702	 7.40895091609232E-02 
703	 7.46112763421596E-02 
704	 7.51835796417778E-02 
705	 7.61041501419453E-02 
706	 7.76543192406509E-02 
707	 7.90432480138719E-02 
708	 7.97826666259358E-02 
709	 8.04975236546754E-02 
710	 8.12983743230865E-02 
711	 8.22311530363373E-02 
712	 8.30173334181206E-02 
713	 0.083555348671513 
714	 0.083846963353276 
715	 8.41903544066364E-02 
716	 8.48640387146331E-02 
717	 8.50773519259848E-02 
718	 8.50685569064165E-02 
719	 8.60646951838042E-02 
720	 8.77083156303696E-02 
721	 8.93160227365074E-02 
722	 8.94973709993436E-02 
723	 8.92782162005388E-02 
724	 8.97750154550245E-02 
725	 9.02804931746891E-02 
726	 9.06646163391051E-02 
727	 9.11053311878226E-02 
728	 9.16725280034091E-02 
729	 9.23460922082175E-02 
730	 0.092655867381168 
731	 9.30279713762816E-02 
732	 9.40929041525153E-02 
733	 9.46366169059056E-02 
734	 9.46959486323505E-02 
735	 9.52954885124685E-02 
736	 0.095927595246548 
737	 9.62997245591247E-02 
738	 9.71640276301253E-02 
739	 9.81277846145684E-02 
740	 0.09827223194664 
741	 9.85864507644787E-02 
742	 9.92608830321488E-02 
743	 9.97317076317078E-02 
744	 0.100125379290023 
745	 0.100575430124831 
746	 0.101192165570436 
747	 0.101789822105288 
748	 0.101855897506678 
749	 0.102067734150283 
750	 0.10260346615706 
751	 0.102941373043651 
752	 0.103256951634231 
753	 0.103757573931972 
754	 0.103951430069334 
755	 0.104091923673951 
756	 0.105248356711201 
757	 0.106133878095348 
758	 0.106190913722072 
759	 0.105737726295187 
760	 0.104968428922961 
761	 0.105278864699554 
762	 0.105860796482417 
763	 0.106364809080918 
764	 0.107051918238569 
765	 0.107879288201113 
766	 0.108698229371895 
767	 0.109172428124313 
768	 0.109531689748908 
769	 0.110027393520713 
770	 0.110573396732586 
771	 0.111114989562594 
772	 0.111535282332612 
773	 0.111919508292799 
774	 0.112336890940307 
775	 0.112896207158684 
776	 0.113416168416034 
777	 0.113531668312215 
778	 0.113951559144978 
779	 0.114699983129178 
780	 0.114873359276579 
781	 0.115115045391727 
782	 0.115894838702123 
783	 0.116361077109442 
784	 0.116515010251995 
785	 0.11664124361534 
786	 0.116931328729647 
787	 0.11742405749108 
788	 0.1178416338223 
789	 0.118235699874322 
790	 0.118670545325211 
791	 0.119289764379092 
792	 0.119838528229169 
793	 0.119567584816047 
794	 0.11981828484078 
795	 0.120835147331115 
796	 0.121145828996166 
797	 0.121205240464913 
798	 0.121560299593195 
799	 0.12208028516711 
800	 0.122605966158875 
801	 0.122755935983354 
802	 0.122808450849243 
803	 0.122960757966274 
804	 0.123560465102325 
805	 0.124356424373218 
806	 0.125044111492208 
807	 0.125550444616791 
808	 0.12577891473849 
809	 0.125454728016533 
810	 0.125417520522871 
811	 0.125996974138443 
812	 0.126518775801717 
813	 0.126844809545376 
814	 0.12685390081076 
815	 0.126435159839142 
816	 0.12606955834234 
817	 0.127229187283494 
818	 0.12836219189477 
819	 0.128882614392055 
820	 0.129986538278659 
821	 0.130760013624758 
822	 0.130078665160031 
823	 0.130186199586145 
824	 0.13121608657955 
825	 0.132049740150585 
826	 0.13250567549142 
827	 0.132579768780166 
828	 0.132844934091105 
829	 0.13342421149805 
830	 0.134339856872047 
831	 0.134460033778807 
832	 0.133995514239681 
833	 0.134157102728593 
834	 0.135067991108428 
835	 0.136464595289156 
836	 0.136495111053363 
837	 0.136116529495226 
838	 0.136567061961959 
839	 0.137393032508313 
840	 0.138120779203423 
841	 0.137609628467362 
842	 0.137416194426097 
843	 0.138060313542543 
844	 0.138184240105385 
845	 0.138476550139226 
846	 0.139735969740896 
847	 0.139670844008061 
848	 0.138628850692153 
849	 0.138992338322336 
850	 0.139560300678891 
851	 0.13984231854365 
852	 0.139798782120159 
853	 0.139832587016568 
854	 0.140338328459715 
855	 0.140322438934289 
856	 0.140113101329586 
857	 0.141056610367954 
858	 0.141766327919038 
859	 0.141919955780005 
860	 0.142529179641843 
861	 0.142925772206656 
862	 0.142501037193674 
863	 0.142516168052947 
864	 0.142865254667377 
865	 0.142689495455949 
866	 0.142677037554626 
867	 0.142985550088232 
868	 0.143066908291792 
869	 0.143768063354957 
870	 0.145600954250537 
871	 0.146476383766895 
872	 0.146753790244564 
873	 0.147833140335736 
874	 0.148311074712794 
875	 0.147967209312506 
876	 0.147503109670444 
877	 0.147843386165683 
878	 0.149428115896608 
879	 0.150139129402115 
880	 0.150423624560992 
881	 0.15151500343703 
882	 0.152488465163831 
883	 0.153109668872234 
884	 0.153496603984192 
885	 0.153641005090272 
886	 0.153692336042239 
887	 0.15449500429216 
888	 0.155769672158652 
889	 0.157000042268278 
890	 0.156882858884941 
891	 0.15590652141405 
892	 0.156804752799473 
893	 0.157337588843836 
894	 0.156511647167153 
895	 0.155223558366341 
896	 0.154560733577467 
897	 0.155667507929127 
898	 0.156742966895936 
899	 0.157759094198713 
900	 0.160084083986508 
901	 0.159756261492257 
902	 0.156963670035868 
903	 0.158592172300521 
904	 0.160653464261884 
905	 0.160078298679456 
906	 0.160384978822737 
907	 0.161274811466296 
908	 0.161359120029159 
909	 0.160936165076332 
910	 0.160028971196452 
911	 0.158114843631756 
912	 0.15845820121666 
913	 0.162043483956739 
914	 0.161954314408011 
915	 0.160922377603865 
916	 0.162983651475623 
917	 0.163411346933978 
918	 0.162349813284699 
919	 0.162662992636328 
920	 0.163712473263574 
921	 0.16497991384922 
922	 0.165001788427226 
923	 0.163979171953293 
924	 0.162333233220907 
925	 0.162210812363963 
926	 0.163008813742817 
927	 0.162441569899406 
928	 0.161460435739111 
929	 0.160844105081881 
930	 0.163614555840287 
931	 0.161917397868496 
932	 0.150379555345768 
933	 0.146308416784824 
934	 0.14900894410183 
935	 0.151807163684813 
936	 0.152085312860535 
937	 0.150848915425264 
938	 0.154100266818621 
939	 0.152242153071805 
940	 0.145442984635867 
941	 0.147502698993103 
942	 0.151909338014795 
943	 0.152954194186588 
944	 0.147559288024883 
945	 0.141725449381513 
946	 0.145522744661145 
947	 0.150093888292665 
948	 0.152691292538366 
949	 0.153361388639509 
950	 0.148400009649027 
951	 0.139287460654258 
952	 0.142369204912527 
953	 0.147339282842247 
954	 0.144793357743176 
955	 0.145190369550908 
956	 0.14748122317495 
957	 0.147145572066588 
958	 0.144967500974274 
959	 0.142366881690239 
960	 0.143122138600533 
961	 0.14376385289251 
962	 0.142768342017454 
963	 0.141860777343282 
964	 0.139982180576222 
965	 0.136363455229995 
966	 0.135839384545747 
967	 0.14001492126191 
968	 0.150886156115412 
969	 0.153420461450895 
970	 0.147341219575277 
971	 0.149059362729061 
972	 0.149889574354487 
973	 0.146444701700608 
974	 0.149529452991532 
975	 0.151686528448926 
976	 0.144608160848386 
977	 0.14373703393549 
978	 0.148145429875359 
979	 0.149437131353982 
980	 0.148515085074725 
981	 0.146424446313637 
982	 0.146504259943599 
983	 0.14862997100427 
984	 0.151993650612742 
985	 0.152825329342117 
986	 0.150782074579183 
987	 0.146552123341339 
988	 0.147253583981763 
989	 0.152439127388151 
990	 0.158957632732628 
991	 0.157162127849115 
992	 0.149770341113161 
993	 0.157831321071623 
994	 0.164091638067889 
995	 0.160350638898277 
996	 0.154697324586559 
997	 0.154011712773617 
998	 0.163006545362686 
999	 0.163573412426833 
1000	 0.158699805019898 
1001	 0.159248639368813 
1002	 0.162566907544608 
1003	 0.166804422927345 
1004	 0.168464316554257 
1005	 0.165029098470796 
1006	 0.157573931398586 
1007	 0.156006591539493 
1008	 0.160750528925798 
1009	 0.170051288712482 
1010	 0.176018095124521 
1011	 0.174825524383471 
1012	 0.163271006835932 
1013	 0.160593855323416 
1014	 0.166059926989975 
1015	 0.166525151636779 
1016	 0.160549578206887 
1017	 0.151696844433513 
1018	 0.157499052338979 
1019	 0.166151612404786 
1020	 0.170447237391767 
1021	 0.174304828390518 
1022	 0.174743710792203 
1023	 0.169337113430253 
1024	 0.165026916485858 
1025	 0.16444250506406 
1026	 0.169084394511774 
1027	 0.16477824706567 
1028	 0.155239715145213 
1029	 0.164334458092168 
1030	 0.171788865360495 
1031	 0.170511236046161 
1032	 0.161503001761668 
1033	 0.160812663625042 
1034	 0.17412986558783 
1035	 0.169356349697866 
1036	 0.161518592280917 
1037	 0.169564540713603 
1038	 0.185321835114869 
1039	 0.19374623432314 
1040	 0.175207378788818 
1041	 0.170463770506748 
1042	 0.180347662921571 
1043	 0.170940498854845 
1044	 0.168068532929574 
1045	 0.17537708499211 
1046	 0.170353420167259 
1047	 0.163297720376409 
1048	 0.159553261860318 
1049	 0.147405325058162 
1050	 0.140338869420515 
1051	 0.151524890410636 
1052	 0.170723976650694 
1053	 0.18924025818314 
1054	 0.198010674230843 
1055	 0.177851144988886 
1056	 0.145833451500534 
1057	 0.155364599467701 
1058	 0.169939715813812 
1059	 0.176583352781756 
1060	 0.167565999137913 
1061	 0.162184897169878 
1062	 0.16790934758552 
1063	 0.172876919466609 
1064	 0.169625418587282 
1065	 0.157647812373832 
1066	 0.168574583067 
1067	 0.189670511604686 
1068	 0.200464504545882 
1069	 0.205759157777343 
1070	 0.20257199245506 
1071	 0.185074081954652 
1072	 0.16676044395791 
1073	 0.158006548907194 
1074	 0.181230097862878 
1075	 0.160793199584185 
