Wavelength	AVEI200272.asd
325	 8.04560808229019E-02 
326	 7.87995834923212E-02 
327	 7.34604127191107E-02 
328	 7.98171101392663E-02 
329	 0.082322140829295 
330	 7.69523268658571E-02 
331	 7.31322134276663E-02 
332	 7.21480915978573E-02 
333	 0.074359779676566 
334	 7.77953847677528E-02 
335	 8.00684733821022E-02 
336	 7.68715557229245E-02 
337	 7.44086535950097E-02 
338	 7.38977613196096E-02 
339	 6.99839618785228E-02 
340	 6.85639288105069E-02 
341	 7.39326639857103E-02 
342	 7.74975801419364E-02 
343	 7.81133776245163E-02 
344	 7.61011530319382E-02 
345	 7.59934130239807E-02 
346	 7.77781930824738E-02 
347	 0.075440516482703 
348	 0.074832693025684 
349	 7.90214326619935E-02 
350	 7.82702157698794E-02 
351	 7.53237273614261E-02 
352	 0.076365329943884 
353	 7.79766039407207E-02 
354	 7.86880521296209E-02 
355	 7.60706138480209E-02 
356	 7.50386168960141E-02 
357	 7.79225504556347E-02 
358	 7.81525981320291E-02 
359	 7.69938055602309E-02 
360	 7.75211886766323E-02 
361	 7.78147831109302E-02 
362	 7.82305571054094E-02 
363	 8.19545979703877E-02 
364	 8.26986395674114E-02 
365	 7.83192069162501E-02 
366	 7.84188979946716E-02 
367	 8.01042180143831E-02 
368	 7.82640026198952E-02 
369	 7.81033425260847E-02 
370	 7.95271501943443E-02 
371	 7.81976350923645E-02 
372	 7.71571085600708E-02 
373	 7.80012044289858E-02 
374	 7.98766530008971E-02 
375	 8.06605813704487E-02 
376	 7.77788728830649E-02 
377	 0.078125520392111 
378	 8.07255229030851E-02 
379	 7.63816011267791E-02 
380	 7.39815214406512E-02 
381	 7.74993295635087E-02 
382	 8.12628009165915E-02 
383	 8.30526159523897E-02 
384	 8.08550772986638E-02 
385	 7.96202822483097E-02 
386	 0.080008676212262 
387	 7.96525208470221E-02 
388	 0.079289958041958 
389	 0.079189398876083 
390	 7.90719693623368E-02 
391	 7.89975550526569E-02 
392	 7.90558760828336E-02 
393	 7.89806112405125E-02 
394	 7.88436988946618E-02 
395	 7.89199650069536E-02 
396	 7.95209385639094E-02 
397	 8.04002810278174E-02 
398	 7.96356861113804E-02 
399	 7.85171463148573E-02 
400	 7.84426770362728E-02 
401	 7.89544915095299E-02 
402	 7.96200119109176E-02 
403	 7.95739530230906E-02 
404	 7.98819028432259E-02 
405	 8.07957732469494E-02 
406	 8.10022128752175E-02 
407	 0.080937811558434 
408	 8.12690385545186E-02 
409	 8.08687694875225E-02 
410	 0.080062459978286 
411	 8.04940242788043E-02 
412	 8.07378988297761E-02 
413	 8.02909167455475E-02 
414	 8.05081425342844E-02 
415	 8.10669260752635E-02 
416	 8.13888248479944E-02 
417	 8.18769929637579E-02 
418	 8.24394634733434E-02 
419	 8.25605423970411E-02 
420	 8.25766785159871E-02 
421	 8.26930970841962E-02 
422	 8.29825303193759E-02 
423	 8.31837169093837E-02 
424	 8.29017305994883E-02 
425	 8.29782785646616E-02 
426	 8.34591801716125E-02 
427	 8.36061639013622E-02 
428	 0.08401204942016 
429	 8.48952848003729E-02 
430	 8.48031924992385E-02 
431	 8.43632854077939E-02 
432	 0.084943177436024 
433	 8.52192093432654E-02 
434	 0.085006313767679 
435	 8.49560460455831E-02 
436	 8.49698003807886E-02 
437	 0.085035574511752 
438	 8.57296771878023E-02 
439	 8.65505257376768E-02 
440	 8.64370519058696E-02 
441	 8.64623350565324E-02 
442	 0.086812630178515 
443	 8.67664710773735E-02 
444	 8.68687868235139E-02 
445	 8.75430312347381E-02 
446	 8.82903410634754E-02 
447	 0.08881993647784 
448	 0.088697209019509 
449	 8.85047154808098E-02 
450	 8.85244175350787E-02 
451	 8.89353355722329E-02 
452	 8.95198582801931E-02 
453	 9.00226704008841E-02 
454	 8.99363582844553E-02 
455	 8.95910789373459E-02 
456	 9.01875265234459E-02 
457	 9.07318269096151E-02 
458	 9.08700004570363E-02 
459	 9.11314450177897E-02 
460	 9.13203733023295E-02 
461	 0.091179542283514 
462	 9.15855647080932E-02 
463	 9.24247123572675E-02 
464	 9.27609850751138E-02 
465	 0.09282638560564 
466	 9.27542426113357E-02 
467	 9.26606205278626E-02 
468	 0.092783895464119 
469	 0.093433388649931 
470	 9.34637863906407E-02 
471	 9.30007983445757E-02 
472	 9.37184259246455E-02 
473	 9.40549665568701E-02 
474	 9.32415409029532E-02 
475	 9.37049025888354E-02 
476	 0.094663520404262 
477	 9.41677574985085E-02 
478	 9.39904792188844E-02 
479	 9.44291767569822E-02 
480	 0.094423812336133 
481	 9.45274492075892E-02 
482	 9.51391111180037E-02 
483	 9.52317875804805E-02 
484	 9.50558547129701E-02 
485	 9.56815419274886E-02 
486	 9.59391090227718E-02 
487	 9.56228400986322E-02 
488	 9.60502540221327E-02 
489	 9.65389866538796E-02 
490	 9.63529409712518E-02 
491	 9.63293884976558E-02 
492	 9.66006825406413E-02 
493	 0.097134792377304 
494	 9.73112965044377E-02 
495	 9.69795275427275E-02 
496	 9.70719324181906E-02 
497	 9.75790866857901E-02 
498	 9.83635961105454E-02 
499	 9.86183502678575E-02 
500	 9.84428268372468E-02 
501	 9.89496927040313E-02 
502	 9.95306103237878E-02 
503	 9.97957830197182E-02 
504	 9.97814718981874E-02 
505	 0.099748553718212 
506	 0.100117396128836 
507	 0.100438425438788 
508	 0.10065410072671 
509	 0.101108018073071 
510	 0.101453295823897 
511	 0.101463920334955 
512	 0.101898885349517 
513	 0.10262804730161 
514	 0.103120735149998 
515	 0.103192650718294 
516	 0.102920110594785 
517	 0.103275426373401 
518	 0.103609901680716 
519	 0.103198493367964 
520	 0.103390791048417 
521	 0.104224830441678 
522	 0.105176810184101 
523	 0.105541271492698 
524	 0.105114537146306 
525	 0.105028194356067 
526	 0.105355983482122 
527	 0.106008541393683 
528	 0.10651242916343 
529	 0.106780261829365 
530	 0.107123417687826 
531	 0.107258296087223 
532	 0.107065805112033 
533	 0.107215445585009 
534	 0.107667618058533 
535	 0.108155295297737 
536	 0.10851147046464 
537	 0.108697102727166 
538	 0.108871821688976 
539	 0.109167924248918 
540	 0.109676300156153 
541	 0.109901673206067 
542	 0.109907919036865 
543	 0.110126120931715 
544	 0.110435148540622 
545	 0.110782296936579 
546	 0.111121945802309 
547	 0.111389826110069 
548	 0.111515804003339 
549	 0.111416933012344 
550	 0.111343376252584 
551	 0.112222351801115 
552	 0.112879826781489 
553	 0.112648702445735 
554	 0.112683072083031 
555	 0.112998685502878 
556	 0.113309347746194 
557	 0.113748644176066 
558	 0.114136047156598 
559	 0.113519494798453 
560	 0.113018719959303 
561	 0.113647648734377 
562	 0.11426453464415 
563	 0.114667558989981 
564	 0.114979469303512 
565	 0.11506617055484 
566	 0.114970480467554 
567	 0.115267494892885 
568	 0.115658606474529 
569	 0.115696596822506 
570	 0.11563608197899 
571	 0.115594852213946 
572	 0.115733282913003 
573	 0.115922444451512 
574	 0.116085551614342 
575	 0.116294458481051 
576	 0.116492816432416 
577	 0.116551017515409 
578	 0.116817252948877 
579	 0.117205372638062 
580	 0.116844788936268 
581	 0.116462360169611 
582	 0.11669216920583 
583	 0.116754398365565 
584	 0.116717168507416 
585	 0.117124290395624 
586	 0.117593165996258 
587	 0.117905966793828 
588	 0.117745848913739 
589	 0.117584973937018 
590	 0.118070869764394 
591	 0.118174778919072 
592	 0.117881783070403 
593	 0.117960176732145 
594	 0.118275885707798 
595	 0.118668538495098 
596	 0.118441717587996 
597	 0.118051974710431 
598	 0.118480364579611 
599	 0.118600205173479 
600	 0.118280697534899 
601	 0.118593598696306 
602	 0.118711400161925 
603	 0.117977266361408 
604	 0.118045471739401 
605	 0.118680966773125 
606	 0.118558506313474 
607	 0.118208116288866 
608	 0.117877090227473 
609	 0.117828807230803 
610	 0.118037236712443 
611	 0.118421365642826 
612	 0.118756699709162 
613	 0.118914426830936 
614	 0.118726422051155 
615	 0.118571225426165 
616	 0.118663543403132 
617	 0.118636971742585 
618	 0.118555195135701 
619	 0.118598183311452 
620	 0.118875435815646 
621	 0.119205761790953 
622	 0.118675096244222 
623	 0.118052514493008 
624	 0.118065862483619 
625	 0.118440692743993 
626	 0.118886082825712 
627	 0.118772243646505 
628	 0.118782820421792 
629	 0.119134201491921 
630	 0.119333373690792 
631	 0.119508490544091 
632	 0.119863641594832 
633	 0.119877928299079 
634	 0.119461694741454 
635	 0.118617838150226 
636	 0.118374433322435 
637	 0.119196201163509 
638	 0.1193601752824 
639	 0.119181679863873 
640	 0.119670642230134 
641	 0.11989209029056 
642	 0.119710852406943 
643	 0.119772711552838 
644	 0.120148024328259 
645	 0.120803104163336 
646	 0.12060632586104 
647	 0.119846406285939 
648	 0.119833560706644 
649	 0.120152903806374 
650	 0.120521838568249 
651	 0.12023497537352 
652	 0.119681806788591 
653	 0.119395584048646 
654	 0.119047776955761 
655	 0.118791961168538 
656	 0.119471235722191 
657	 0.119898137242825 
658	 0.11937311464263 
659	 0.118474329997825 
660	 0.117597942130644 
661	 0.117217005337228 
662	 0.117059549232881 
663	 0.116982773240304 
664	 0.116811133893153 
665	 0.116334982338566 
666	 0.115456536712296 
667	 0.115099012630305 
668	 0.115150763446421 
669	 0.114900839279478 
670	 0.114704953178481 
671	 0.114669784117558 
672	 0.114744665067107 
673	 0.114786829289341 
674	 0.114644321245049 
675	 0.114455703390615 
676	 0.114410821406794 
677	 0.115011719191642 
678	 0.115371651717634 
679	 0.115157901914179 
680	 0.115751791183247 
681	 0.116696480691795 
682	 0.117023752185785 
683	 0.117313987151635 
684	 0.117672683098193 
685	 0.117836848017346 
686	 0.118306772408736 
687	 0.119480818482738 
688	 0.120272143341348 
689	 0.120738456643633 
690	 0.121714816927217 
691	 0.122406704919583 
692	 0.122739983991855 
693	 0.123559048372272 
694	 0.124178233392724 
695	 0.123892772461935 
696	 0.124700555004887 
697	 0.12618347218009 
698	 0.12620804292126 
699	 0.126062108094008 
700	 0.12635385883603 
701	 0.126983020984769 
702	 0.127393278569354 
703	 0.126851856146255 
704	 0.127012590544603 
705	 0.127822595595299 
706	 0.127576197330175 
707	 0.127362257284748 
708	 0.12782563513652 
709	 0.128108119516305 
710	 0.128144618394576 
711	 0.127989660861255 
712	 0.128373908694408 
713	 0.129259133621385 
714	 0.129340347025003 
715	 0.129263023179885 
716	 0.129698118479234 
717	 0.130495400349788 
718	 0.131530475197529 
719	 0.132479717517892 
720	 0.132081956566233 
721	 0.130581422743131 
722	 0.130369309506364 
723	 0.131084298563642 
724	 0.13227895031671 
725	 0.132409497425224 
726	 0.131758350581145 
727	 0.132729769538195 
728	 0.133241403203309 
729	 0.132401862799242 
730	 0.131692904905039 
731	 0.131399813939205 
732	 0.13163560759742 
733	 0.131652483140141 
734	 0.131476384987545 
735	 0.13193266174986 
736	 0.132093947741955 
737	 0.131446979268644 
738	 0.131372398175686 
739	 0.13162451428614 
740	 0.131359441617558 
741	 0.131333079847552 
742	 0.131596361038524 
743	 0.131332364972297 
744	 0.131264757816003 
745	 0.131935840044097 
746	 0.131993955344933 
747	 0.131630149607603 
748	 0.131882110990502 
749	 0.132120217616038 
750	 0.132181506895445 
751	 0.132371543918512 
752	 0.132641430563699 
753	 0.132909347422565 
754	 0.132954298965046 
755	 0.132830762801891 
756	 0.132857855447544 
757	 0.132676886387355 
758	 0.132248969916431 
759	 0.132785715229151 
760	 0.134839643682187 
761	 0.137159843591745 
762	 0.137989066561016 
763	 0.137488867442989 
764	 0.137252302396882 
765	 0.136555239869371 
766	 0.135401531847131 
767	 0.134382064871749 
768	 0.133785107248433 
769	 0.133955954431488 
770	 0.134250015751428 
771	 0.13440655446345 
772	 0.13411654098055 
773	 0.133952543532419 
774	 0.134310561264516 
775	 0.135113542938916 
776	 0.135708045379829 
777	 0.134950731764172 
778	 0.134571936692343 
779	 0.134980562232571 
780	 0.135465634466424 
781	 0.135570026304218 
782	 0.135037673037864 
783	 0.135070288538355 
784	 0.135540719074319 
785	 0.135770042262767 
786	 0.135643970420102 
787	 0.135238640186475 
788	 0.135163495881664 
789	 0.135569385357485 
790	 0.13648854934267 
791	 0.137039316302326 
792	 0.13707090804093 
793	 0.136713164948195 
794	 0.136068673245426 
795	 0.13554598987869 
796	 0.136849370066823 
797	 0.137869702870275 
798	 0.136562602004615 
799	 0.136299299650534 
800	 0.13698092609588 
801	 0.136392326346731 
802	 0.136332696914295 
803	 0.137103421522811 
804	 0.13627980953901 
805	 0.135674919532092 
806	 0.137267261298325 
807	 0.137880026275549 
808	 0.137448687258162 
809	 0.137812474580646 
810	 0.137767724893862 
811	 0.137163932386598 
812	 0.138396553755604 
813	 0.139766188373534 
814	 0.13875882205711 
815	 0.138658169429337 
816	 0.139861355502256 
817	 0.140697068382921 
818	 0.141361775533301 
819	 0.141654529592504 
820	 0.140206295213616 
821	 0.139052482367172 
822	 0.140604619887845 
823	 0.141099398776345 
824	 0.140144450424724 
825	 0.139100074929778 
826	 0.139011857268113 
827	 0.140110915885071 
828	 0.140531808597011 
829	 0.14023500215224 
830	 0.139459702048018 
831	 0.139228286951485 
832	 0.139693366225321 
833	 0.140654516601988 
834	 0.140901771149458 
835	 0.140013690735966 
836	 0.138864331623209 
837	 0.138558461254916 
838	 0.140113920423654 
839	 0.140150744327697 
840	 0.138813512020592 
841	 0.138674814381738 
842	 0.138790348684507 
843	 0.138796775931423 
844	 0.138690790184131 
845	 0.138684142758118 
846	 0.138987492648092 
847	 0.138711020465146 
848	 0.138216631461664 
849	 0.139211986099664 
850	 0.13953156838135 
851	 0.138581919012383 
852	 0.13850864524782 
853	 0.139097604964096 
854	 0.139824739685712 
855	 0.138963206342928 
856	 0.137467299485643 
857	 0.138712932767518 
858	 0.139331309858683 
859	 0.138496372287628 
860	 0.138072192148523 
861	 0.138491615716011 
862	 0.139915152614522 
863	 0.140074778528112 
864	 0.139395301141702 
865	 0.140149578344404 
866	 0.139241889021171 
867	 0.136690969146446 
868	 0.137383354213781 
869	 0.139161099233921 
870	 0.14000651736915 
871	 0.139887874585603 
872	 0.139121398316584 
873	 0.138283033699508 
874	 0.139005301351294 
875	 0.140957962960107 
876	 0.140439246802909 
877	 0.140203858997659 
878	 0.141839794399947 
879	 0.141197140615702 
880	 0.139381282403313 
881	 0.139090578354721 
882	 0.138996394444346 
883	 0.138998610494174 
884	 0.139765527318647 
885	 0.14102026257935 
886	 0.1423189229477 
887	 0.142228715249674 
888	 0.141167278576754 
889	 0.139934893836823 
890	 0.139469796928269 
891	 0.139836315875286 
892	 0.140195648050879 
893	 0.141209221148376 
894	 0.142605350711367 
895	 0.140568093861644 
896	 0.139078622688332 
897	 0.143010478696119 
898	 0.146322203545163 
899	 0.146784532052441 
900	 0.142448257721501 
901	 0.140876139307951 
902	 0.143493792519158 
903	 0.143580869202963 
904	 0.143681112150589 
905	 0.145597457937159 
906	 0.145751054651948 
907	 0.144335860094673 
908	 0.142663317472929 
909	 0.140919615406828 
910	 0.139797078770703 
911	 0.141197129128757 
912	 0.142411940707917 
913	 0.14197686751561 
914	 0.141811307613568 
915	 0.141975300706137 
916	 0.142321146106024 
917	 0.144139088648751 
918	 0.146496031295659 
919	 0.146686905791583 
920	 0.14467776438154 
921	 0.141874762261421 
922	 0.145632626696623 
923	 0.148292694113174 
924	 0.143225004156949 
925	 0.139320228479272 
926	 0.138768845163409 
927	 0.142805137582952 
928	 0.145672474835554 
929	 0.145386023986387 
930	 0.144722278566154 
931	 0.146968229912155 
932	 0.1533712420851 
933	 0.148455293984154 
934	 0.13936618410613 
935	 0.141448512392105 
936	 0.146921114657073 
937	 0.151650036786504 
938	 0.149485683440917 
939	 0.148964294705865 
940	 0.15174870666631 
941	 0.153309517014805 
942	 0.150928736177724 
943	 0.143594770455721 
944	 0.137550456918083 
945	 0.136767152901079 
946	 0.145987756538022 
947	 0.150955641768092 
948	 0.14937994826484 
949	 0.146331529366078 
950	 0.145712370223749 
951	 0.147934348897739 
952	 0.143186913550871 
953	 0.142140363613486 
954	 0.153166617537869 
955	 0.155135372439116 
956	 0.149766025003986 
957	 0.14601619865102 
958	 0.147135368235547 
959	 0.151411487202221 
960	 0.149045756343689 
961	 0.150683780999214 
962	 0.157810917250486 
963	 0.149713225230396 
964	 0.142468920445507 
965	 0.151047074386008 
966	 0.147905567661471 
967	 0.138023993027667 
968	 0.139875238562734 
969	 0.141252503216942 
970	 0.14113395356715 
971	 0.148886730575419 
972	 0.151211710927484 
973	 0.143083846229217 
974	 0.141797178755881 
975	 0.144876556574826 
976	 0.147401358510061 
977	 0.147896944234194 
978	 0.146359063633697 
979	 0.143925621188023 
980	 0.139754377493475 
981	 0.136017388401558 
982	 0.141319402601613 
983	 0.144196991003647 
984	 0.1400517506302 
985	 0.141010906091155 
986	 0.143673570275687 
987	 0.143476003516396 
988	 0.143401816222872 
989	 0.143991340536383 
990	 0.145479542648929 
991	 0.144298809759791 
992	 0.14011059838864 
993	 0.13445671236209 
994	 0.136375949864729 
995	 0.146784633080579 
996	 0.143041323439161 
997	 0.136735831243538 
998	 0.140187866029696 
999	 0.141019908548713 
1000	 0.13997506234414 
1001	 0.141699770072885 
1002	 0.145395440213174 
1003	 0.148076885229367 
1004	 0.140289023974589 
1005	 0.13756972067199 
1006	 0.143653597125553 
1007	 0.141567304721748 
1008	 0.140971011974103 
1009	 0.148119058946027 
1010	 0.144451659886646 
1011	 0.136709748106928 
1012	 0.137522311239957 
1013	 0.143485592499924 
1014	 0.149858493966872 
1015	 0.146429071476909 
1016	 0.14169571842361 
1017	 0.140962257277709 
1018	 0.154073903086483 
1019	 0.158242943541465 
1020	 0.143676253620425 
1021	 0.136820032254495 
1022	 0.140654986189591 
1023	 0.153247225111988 
1024	 0.147300658410895 
1025	 0.132737353446716 
1026	 0.134641727200895 
1027	 0.142370477787435 
1028	 0.150260772851084 
1029	 0.149058349655513 
1030	 0.152609309330538 
1031	 0.160449714169268 
1032	 0.148218033081395 
1033	 0.138886792398478 
1034	 0.144981703496855 
1035	 0.136065538032526 
1036	 0.131777269018402 
1037	 0.152746702573598 
1038	 0.155695614435845 
1039	 0.141915755218298 
1040	 0.125677720337915 
1041	 0.125595756679573 
1042	 0.139134815399588 
1043	 0.14332051633654 
1044	 0.142198722731161 
1045	 0.137790700521442 
1046	 0.13333075803611 
1047	 0.139029268672561 
1048	 0.156963656420721 
1049	 0.16360762824365 
1050	 0.1628888080497 
1051	 0.161224088438062 
1052	 0.170152371684446 
1053	 0.172335932782515 
1054	 0.140393275398158 
1055	 0.11157129732871 
1056	 0.108545473306273 
1057	 0.147613105564841 
1058	 0.166434091437881 
1059	 0.145834809105784 
1060	 0.104035981599543 
1061	 7.41528213040787E-02 
1062	 7.85985962198084E-02 
1063	 0.133280339162692 
1064	 0.162126451983711 
1065	 0.117037966112539 
1066	 0.116558436082109 
1067	 0.134690524375338 
1068	 0.130987860883811 
1069	 0.135890565669767 
1070	 0.138931005888076 
1071	 0.118385952558422 
1072	 0.100441046660443 
1073	 0.110287701695124 
1074	 0.191794078823308 
1075	 0.176370985533739 
