Wavelength	AVEI200344.asd
325	 5.25724935756332E-02 
326	 4.82718386275317E-02 
327	 2.16626427017199E-02 
328	 3.77001846548624E-02 
329	 5.09695527494192E-02 
330	 0.046365637053627 
331	 3.45958898692534E-02 
332	 0.028417347733268 
333	 3.78693404355319E-02 
334	 3.81328330860196E-02 
335	 3.12925606690107E-02 
336	 3.30643140543877E-02 
337	 3.57209802990361E-02 
338	 3.72211386251987E-02 
339	 3.95062279544388E-02 
340	 3.84480503353184E-02 
341	 0.032047023100243 
342	 3.76256482108022E-02 
343	 4.48610168414585E-02 
344	 2.88368170685484E-02 
345	 2.36835340927363E-02 
346	 3.31317311481429E-02 
347	 0.03330431457107 
348	 0.031736379756785 
349	 3.37429535229315E-02 
350	 3.62703863768115E-02 
351	 3.74508065949065E-02 
352	 3.48279409398377E-02 
353	 3.36005554138932E-02 
354	 3.43105813670139E-02 
355	 3.34518343602297E-02 
356	 3.28430377603745E-02 
357	 3.31432776104744E-02 
358	 2.95546846604826E-02 
359	 2.71825801839769E-02 
360	 3.46903306534668E-02 
361	 3.41472918551164E-02 
362	 2.65702411935093E-02 
363	 3.03880515085436E-02 
364	 3.34620547196231E-02 
365	 3.07190779229395E-02 
366	 3.35063395523606E-02 
367	 3.74735850572752E-02 
368	 0.03537655579001 
369	 3.41307471756652E-02 
370	 0.034990478177974 
371	 0.036041534607066 
372	 3.90973898485946E-02 
373	 4.37212137740944E-02 
374	 4.05145567016389E-02 
375	 3.50054398795097E-02 
376	 3.59105651976489E-02 
377	 3.34115291216564E-02 
378	 2.83186950603667E-02 
379	 3.02328888480171E-02 
380	 3.21449560489118E-02 
381	 3.10941932320282E-02 
382	 0.032663891370695 
383	 3.40283809311407E-02 
384	 3.08708277264169E-02 
385	 3.24914858760139E-02 
386	 3.74088731290631E-02 
387	 3.50572476836599E-02 
388	 3.15637115637719E-02 
389	 3.00414682316202E-02 
390	 3.22137787096411E-02 
391	 3.45562550675373E-02 
392	 3.29226099348862E-02 
393	 3.18130570705646E-02 
394	 3.17553725424951E-02 
395	 3.15262745181716E-02 
396	 3.02204539029919E-02 
397	 2.81045443693036E-02 
398	 2.86074373719765E-02 
399	 2.86434306815332E-02 
400	 2.51749034790828E-02 
401	 2.48427993989638E-02 
402	 2.71525227860596E-02 
403	 2.80719834851687E-02 
404	 2.86354451403393E-02 
405	 2.90954285721539E-02 
406	 2.86378749438427E-02 
407	 2.82315303044517E-02 
408	 2.90892646864269E-02 
409	 2.96016244103694E-02 
410	 2.97487828687938E-02 
411	 3.06946684655228E-02 
412	 3.10816278122933E-02 
413	 0.030301550630919 
414	 2.86909565842862E-02 
415	 2.77055438097836E-02 
416	 0.02909415053698 
417	 2.98640167670688E-02 
418	 2.95259824230494E-02 
419	 2.89273777927226E-02 
420	 2.86631699092964E-02 
421	 2.90036522713808E-02 
422	 2.91954771722092E-02 
423	 0.029210177904409 
424	 2.91313975212742E-02 
425	 2.96091825942918E-02 
426	 3.03506155986466E-02 
427	 2.95775020029791E-02 
428	 2.91255962087221E-02 
429	 3.00099283322346E-02 
430	 3.00345828336542E-02 
431	 2.93884611201552E-02 
432	 2.88452777310359E-02 
433	 2.91198888370896E-02 
434	 2.99500454695085E-02 
435	 2.97277257400704E-02 
436	 2.92553645742665E-02 
437	 2.91237126241038E-02 
438	 0.029361339290034 
439	 2.98898164812295E-02 
440	 3.06691191184102E-02 
441	 3.01943288335018E-02 
442	 2.87039963429845E-02 
443	 2.92811747512072E-02 
444	 2.99513190142658E-02 
445	 2.91891788271656E-02 
446	 2.94868638418785E-02 
447	 3.05549134739352E-02 
448	 3.08985856313925E-02 
449	 3.09539349716109E-02 
450	 3.07819058144829E-02 
451	 3.01409009741288E-02 
452	 2.95275302342479E-02 
453	 2.94549105646258E-02 
454	 2.99533600877379E-02 
455	 3.06269939872337E-02 
456	 3.04015180208214E-02 
457	 3.01867116403855E-02 
458	 3.04146570536891E-02 
459	 3.13074616226877E-02 
460	 3.19845461768124E-02 
461	 3.14204843989194E-02 
462	 3.06031220654754E-02 
463	 3.01620138563973E-02 
464	 3.12784160888354E-02 
465	 3.20600602540849E-02 
466	 3.15475181234301E-02 
467	 3.08198278861182E-02 
468	 3.01234156181289E-02 
469	 2.96010272767678E-02 
470	 3.02581937502853E-02 
471	 3.16600160003097E-02 
472	 3.13294855605234E-02 
473	 3.12508492322428E-02 
474	 0.032420934979885 
475	 3.20148643922292E-02 
476	 3.08621401720579E-02 
477	 3.10496580691863E-02 
478	 3.13340353696373E-02 
479	 3.14629957862319E-02 
480	 3.20409403722761E-02 
481	 3.19106372617964E-02 
482	 3.03587297853646E-02 
483	 0.030635511909872 
484	 3.21438123081209E-02 
485	 3.21628082306222E-02 
486	 0.031370853718539 
487	 3.02952840589816E-02 
488	 3.05590165777413E-02 
489	 3.12972861663906E-02 
490	 3.15096708345946E-02 
491	 3.10788244456332E-02 
492	 3.05076728863992E-02 
493	 0.031253877656226 
494	 3.20256025452697E-02 
495	 3.22130865638973E-02 
496	 3.18254856235488E-02 
497	 3.16424866300524E-02 
498	 3.26575840532119E-02 
499	 0.032989534586914 
500	 3.25412380691488E-02 
501	 3.26500290145474E-02 
502	 3.31190705475766E-02 
503	 3.37174071118011E-02 
504	 3.36656385129651E-02 
505	 0.033205582805273 
506	 3.28812265501812E-02 
507	 3.28777884448269E-02 
508	 3.32197993482731E-02 
509	 3.37400686433769E-02 
510	 0.033893297377831 
511	 3.33712487072189E-02 
512	 3.38190658862976E-02 
513	 3.47713778354704E-02 
514	 3.44070470681041E-02 
515	 3.45036918913133E-02 
516	 3.54197168636698E-02 
517	 3.55026048767886E-02 
518	 3.50930851215265E-02 
519	 3.47376672071285E-02 
520	 3.53664800984173E-02 
521	 3.65233082215237E-02 
522	 3.64743393926841E-02 
523	 3.65458075984392E-02 
524	 3.71929158751278E-02 
525	 3.70998144614283E-02 
526	 0.037011626261444 
527	 3.81833391399275E-02 
528	 3.81172995521261E-02 
529	 3.69736920515798E-02 
530	 3.75408030235516E-02 
531	 3.85726089572706E-02 
532	 3.91865742598655E-02 
533	 3.94210373883666E-02 
534	 3.92627147881412E-02 
535	 3.86188926993093E-02 
536	 3.86937234727363E-02 
537	 3.97116970633666E-02 
538	 4.07508826799119E-02 
539	 4.10712346968962E-02 
540	 4.00981201988202E-02 
541	 3.96197371104278E-02 
542	 3.97100000998996E-02 
543	 0.039316158829598 
544	 3.97715029859367E-02 
545	 0.041231605742314 
546	 4.11588049153646E-02 
547	 4.04054974181474E-02 
548	 4.03912292343952E-02 
549	 4.04853282578672E-02 
550	 4.05797801777817E-02 
551	 4.07185780217556E-02 
552	 0.040988238780943 
553	 4.14196280238972E-02 
554	 4.18342670824159E-02 
555	 4.21179107150031E-02 
556	 4.20900616320746E-02 
557	 4.23344749452538E-02 
558	 4.28905281982266E-02 
559	 0.042975811041679 
560	 4.29714469736237E-02 
561	 4.32209633317388E-02 
562	 4.30280835321922E-02 
563	 4.25783119732192E-02 
564	 0.042713096211597 
565	 4.26012033599506E-02 
566	 4.20868701179419E-02 
567	 4.23150976586316E-02 
568	 4.29823482599374E-02 
569	 4.35629294408053E-02 
570	 4.35417980777572E-02 
571	 4.29715135718715E-02 
572	 0.042503608974729 
573	 4.23549230127766E-02 
574	 4.26491097877627E-02 
575	 4.30792050637484E-02 
576	 4.34269580125734E-02 
577	 0.043414607229476 
578	 4.31582968517556E-02 
579	 4.28851847061145E-02 
580	 4.33893677356047E-02 
581	 4.37365409466072E-02 
582	 4.31830305135907E-02 
583	 4.35621418982629E-02 
584	 4.44583966860314E-02 
585	 4.39055287522771E-02 
586	 4.34723250472419E-02 
587	 4.36890263990698E-02 
588	 4.36748823970298E-02 
589	 4.35927063413507E-02 
590	 4.37498065550054E-02 
591	 4.40819407759767E-02 
592	 4.42658779088713E-02 
593	 4.32171489592168E-02 
594	 4.28901276980313E-02 
595	 4.41627247630208E-02 
596	 4.40168006456437E-02 
597	 0.043261713582136 
598	 0.044098803908507 
599	 4.40467557169158E-02 
600	 4.29245216756104E-02 
601	 4.33813473486776E-02 
602	 4.39801942377779E-02 
603	 4.34533102558595E-02 
604	 4.33403620152344E-02 
605	 4.38248456329996E-02 
606	 4.47868665066158E-02 
607	 4.52657145032339E-02 
608	 4.49380193942633E-02 
609	 4.47714790381399E-02 
610	 4.47283597752128E-02 
611	 0.044643298616886 
612	 4.40682861173125E-02 
613	 4.33754817978234E-02 
614	 0.044166187341248 
615	 4.49940903458176E-02 
616	 4.49587745936533E-02 
617	 4.45246512540205E-02 
618	 4.42860225049502E-02 
619	 4.51890010346409E-02 
620	 4.55437587370537E-02 
621	 4.50343073370655E-02 
622	 4.47238670807814E-02 
623	 4.45892015409843E-02 
624	 4.46106552111123E-02 
625	 4.52848073119102E-02 
626	 4.60576884851416E-02 
627	 4.52102371837325E-02 
628	 4.48822241129388E-02 
629	 0.045717655248428 
630	 0.045988642908835 
631	 4.56159136371313E-02 
632	 4.47231378551155E-02 
633	 4.50723021310937E-02 
634	 4.63933247320447E-02 
635	 4.64882595042297E-02 
636	 4.55538295240381E-02 
637	 4.40641913640326E-02 
638	 4.49765996121745E-02 
639	 4.66943032320195E-02 
640	 0.045646709532638 
641	 4.48986512629038E-02 
642	 4.52139178122128E-02 
643	 4.56272873402718E-02 
644	 4.57159803821663E-02 
645	 4.52037001732931E-02 
646	 4.53574152324161E-02 
647	 0.045929292424312 
648	 4.57238875476256E-02 
649	 0.044762796324863 
650	 4.34462438743807E-02 
651	 4.39475945291263E-02 
652	 4.49639861237724E-02 
653	 4.47496597433031E-02 
654	 4.49345417447726E-02 
655	 4.53422474769981E-02 
656	 0.043916061198195 
657	 4.28837537697926E-02 
658	 4.34757857705372E-02 
659	 4.41212194056677E-02 
660	 4.42393383870592E-02 
661	 4.31194063953466E-02 
662	 4.32449140552551E-02 
663	 4.46621385493301E-02 
664	 4.42095272692434E-02 
665	 4.35060312402745E-02 
666	 4.38962479321357E-02 
667	 4.38036022487901E-02 
668	 4.31922641523427E-02 
669	 4.24799393169261E-02 
670	 4.25105561886808E-02 
671	 4.33520181279774E-02 
672	 4.32340074510687E-02 
673	 4.28743492215848E-02 
674	 4.32399059908588E-02 
675	 4.34258970694546E-02 
676	 4.32129488630318E-02 
677	 4.23737046025315E-02 
678	 4.24287582845164E-02 
679	 0.04396452735226 
680	 0.044679172324805 
681	 4.46718869942329E-02 
682	 4.45647974028755E-02 
683	 4.45756260984905E-02 
684	 4.50235011045085E-02 
685	 4.67695570988665E-02 
686	 4.85636333528887E-02 
687	 4.92381522927095E-02 
688	 4.98280152436399E-02 
689	 5.04378680695203E-02 
690	 5.08347986474115E-02 
691	 5.23811680251529E-02 
692	 5.50241069573676E-02 
693	 5.60261096844978E-02 
694	 0.056899594944355 
695	 5.92294443132668E-02 
696	 6.03494076669003E-02 
697	 0.060807358375113 
698	 6.36492988467886E-02 
699	 6.60364593032092E-02 
700	 6.67994085079777E-02 
701	 6.82594392331222E-02 
702	 0.069977785501451 
703	 7.10223765621765E-02 
704	 7.22280590686159E-02 
705	 7.36753367134065E-02 
706	 7.49022656153024E-02 
707	 0.075842829641028 
708	 7.65461329599993E-02 
709	 7.77638975640225E-02 
710	 7.93970728469492E-02 
711	 8.10824879027297E-02 
712	 8.26256726728174E-02 
713	 8.38526883977334E-02 
714	 0.084424369474486 
715	 8.49972220351881E-02 
716	 0.086249085875082 
717	 8.77965771458246E-02 
718	 8.91371039013464E-02 
719	 8.86097055507862E-02 
720	 8.94909810245287E-02 
721	 9.19403206249185E-02 
722	 9.12107246340281E-02 
723	 9.01656843305667E-02 
724	 9.22320529304237E-02 
725	 9.45368394617776E-02 
726	 9.58207588916063E-02 
727	 9.50084220300658E-02 
728	 9.44567200149916E-02 
729	 0.0953689080118 
730	 9.66231041001815E-02 
731	 9.76620331781488E-02 
732	 9.79134271538669E-02 
733	 9.89598668970804E-02 
734	 0.100730760580394 
735	 0.101824935155691 
736	 0.1022481811294 
737	 0.102096989482314 
738	 0.102602677776588 
739	 0.103426450504114 
740	 0.103518445370685 
741	 0.104266700881212 
742	 0.105758865264936 
743	 0.106557063818469 
744	 0.10720029976484 
745	 0.108129211064731 
746	 0.108462098320442 
747	 0.108444182750226 
748	 0.108958068779498 
749	 0.109801263527301 
750	 0.110660570724763 
751	 0.11006437761773 
752	 0.109980676643847 
753	 0.112413406454773 
754	 0.113115899298851 
755	 0.112078671124808 
756	 0.111926088307493 
757	 0.11145658872802 
758	 0.110422791214392 
759	 0.111321877825243 
760	 0.114175207656181 
761	 0.114826505567121 
762	 0.116639776337629 
763	 0.11895889154594 
764	 0.118205031503849 
765	 0.11801414606484 
766	 0.119241910524282 
767	 0.119419884296894 
768	 0.119341359607396 
769	 0.120055390252471 
770	 0.120572583409617 
771	 0.120789880353235 
772	 0.121108146168417 
773	 0.121951931278305 
774	 0.123423232241819 
775	 0.12390482172932 
776	 0.123598391443604 
777	 0.123226506597664 
778	 0.123924369441495 
779	 0.125649421312703 
780	 0.126480288774036 
781	 0.127062572835761 
782	 0.127885109507756 
783	 0.127987453047942 
784	 0.127847820679362 
785	 0.128820825577551 
786	 0.129294213219382 
787	 0.129132416190189 
788	 0.130429538700632 
789	 0.131711711988715 
790	 0.131541611106854 
791	 0.130917375580239 
792	 0.130635342682369 
793	 0.132150891369399 
794	 0.133383691251018 
795	 0.133797853831916 
796	 0.134978969684772 
797	 0.136177222322156 
798	 0.136582483912737 
799	 0.136844546052783 
800	 0.13712214062004 
801	 0.137435179468703 
802	 0.137829275981374 
803	 0.138337633466019 
804	 0.138893703788113 
805	 0.139843301669422 
806	 0.141466745387042 
807	 0.141832137063741 
808	 0.141148493993405 
809	 0.141096654832873 
810	 0.141631683337219 
811	 0.142549865456639 
812	 0.142165097773343 
813	 0.141866207206219 
814	 0.143607408603255 
815	 0.143535255652546 
816	 0.14233988817801 
817	 0.145706290441786 
818	 0.148000308600828 
819	 0.147226902312763 
820	 0.14723325887532 
821	 0.148521939347954 
822	 0.151317384126314 
823	 0.153562024566252 
824	 0.15389266658188 
825	 0.150149007395149 
826	 0.148758814730283 
827	 0.151730951444519 
828	 0.152755253093575 
829	 0.153034558187368 
830	 0.15465038581925 
831	 0.153931203196539 
832	 0.152488848520618 
833	 0.157345791736901 
834	 0.160836240545487 
835	 0.1600722949117 
836	 0.159244475697504 
837	 0.158675264935715 
838	 0.158368094879878 
839	 0.159394786379685 
840	 0.161291468388938 
841	 0.162439985262679 
842	 0.161842088956797 
843	 0.159813544957539 
844	 0.161074434847064 
845	 0.163159088649255 
846	 0.162951389862242 
847	 0.162496345997497 
848	 0.162711599426938 
849	 0.165078142772694 
850	 0.167060540159264 
851	 0.167615750198144 
852	 0.167733531347667 
853	 0.167897929739131 
854	 0.168520629523478 
855	 0.168708113258925 
856	 0.168706285977362 
857	 0.169590865937335 
858	 0.170302590788078 
859	 0.170618005197378 
860	 0.171337535837581 
861	 0.171929983003605 
862	 0.171906966367338 
863	 0.171999220628635 
864	 0.172744068405456 
865	 0.175278355193477 
866	 0.17583868745701 
867	 0.173982833480019 
868	 0.174313907147317 
869	 0.175898672726938 
870	 0.177657057561371 
871	 0.178450965493777 
872	 0.178838407757584 
873	 0.180458732909289 
874	 0.179670501578152 
875	 0.177134828659698 
876	 0.179950145790896 
877	 0.183760759193052 
878	 0.18537114783313 
879	 0.186718753618642 
880	 0.187265649884889 
881	 0.185818368001588 
882	 0.185699529503322 
883	 0.187328902836877 
884	 0.188781506474121 
885	 0.188808738584784 
886	 0.18717663735597 
887	 0.18798366198 
888	 0.188682361407635 
889	 0.185464374733851 
890	 0.187329377513451 
891	 0.192759161942706 
892	 0.190120694810727 
893	 0.188702141399916 
894	 0.191779393370647 
895	 0.190524072779286 
896	 0.187564918906491 
897	 0.187175834105586 
898	 0.190633704513224 
899	 0.195883536955842 
900	 0.196955305107294 
901	 0.198259116932711 
902	 0.199880110657354 
903	 0.195478332187869 
904	 0.192643066028776 
905	 0.1966073193474 
906	 0.19665555571994 
907	 0.196111556126258 
908	 0.204043228824287 
909	 0.205374231352532 
910	 0.199087355879961 
911	 0.198457003333495 
912	 0.201825963054942 
913	 0.206800749060595 
914	 0.204052056023724 
915	 0.199546290413483 
916	 0.201781853465045 
917	 0.209008409069026 
918	 0.216453204472267 
919	 0.213113761131899 
920	 0.209270196932352 
921	 0.207949472539811 
922	 0.203925988873378 
923	 0.202105802981639 
924	 0.206366199075777 
925	 0.208557620864792 
926	 0.207283062197168 
927	 0.202522202409038 
928	 0.203852580945256 
929	 0.210988040161619 
930	 0.200153575823982 
931	 0.195400129785354 
932	 0.21430332548395 
933	 0.220224444776005 
934	 0.210461420533612 
935	 0.192942193927619 
936	 0.190258447075924 
937	 0.201231153461377 
938	 0.20777685053551 
939	 0.205349299708265 
940	 0.196245888577908 
941	 0.201498930601345 
942	 0.206592307873202 
943	 0.202172560861395 
944	 0.2071392329859 
945	 0.213744472579319 
946	 0.204805315502942 
947	 0.206913967408943 
948	 0.217519373026213 
949	 0.206594511160526 
950	 0.194902836115727 
951	 0.192856126410218 
952	 0.203404487096504 
953	 0.213822045988372 
954	 0.211854157795368 
955	 0.202511564954892 
956	 0.191623560617525 
957	 0.186263178340022 
958	 0.186611882432004 
959	 0.191707539619596 
960	 0.197170074783578 
961	 0.204363217632395 
962	 0.211771459408506 
963	 0.21002499487276 
964	 0.205556029849134 
965	 0.204843981958672 
966	 0.205488187424667 
967	 0.20556363300571 
968	 0.201996332062272 
969	 0.199507040404868 
970	 0.19930169875891 
971	 0.199960802094455 
972	 0.203417591138578 
973	 0.209356725836681 
974	 0.208052013003251 
975	 0.206146712091174 
976	 0.211601828648096 
977	 0.212748424653532 
978	 0.211522327323448 
979	 0.216928693180964 
980	 0.217618812751217 
981	 0.212421158840663 
982	 0.210562812878317 
983	 0.208517270301182 
984	 0.206566020915913 
985	 0.219843352401198 
986	 0.22893777883525 
987	 0.215008930888785 
988	 0.216896724162321 
989	 0.225631926947451 
990	 0.208985891720857 
991	 0.202307153410639 
992	 0.213112989444076 
993	 0.231773845436487 
994	 0.234921206269136 
995	 0.215944040297892 
996	 0.210684329512978 
997	 0.210664984794233 
998	 0.205289979757323 
999	 0.206604808435491 
1000	 0.211864199654859 
1001	 0.213500358451842 
1002	 0.210331057782161 
1003	 0.206542354054388 
1004	 0.21706125071915 
1005	 0.226295520199327 
1006	 0.227688645666008 
1007	 0.223583560732786 
1008	 0.224503858677154 
1009	 0.237187362455362 
1010	 0.251341677182404 
1011	 0.2526780631747 
1012	 0.223448478406108 
1013	 0.199150978104866 
1014	 0.194464640270278 
1015	 0.219916409833231 
1016	 0.234099612115748 
1017	 0.228035703736289 
1018	 0.229318222825398 
1019	 0.229114195269626 
1020	 0.224955447773657 
1021	 0.232559645693302 
1022	 0.236204135549193 
1023	 0.221810305835533 
1024	 0.223816063767498 
1025	 0.236562422864634 
1026	 0.238600097499573 
1027	 0.241882961500526 
1028	 0.241861144167006 
1029	 0.216516079718341 
1030	 0.197689041203252 
1031	 0.201017330962853 
1032	 0.232524030805689 
1033	 0.252641013518837 
1034	 0.239611095909486 
1035	 0.223664116341401 
1036	 0.223375029438342 
1037	 0.250236400607428 
1038	 0.256486158841718 
1039	 0.24470682279739 
1040	 0.234808520826142 
1041	 0.232729320211326 
1042	 0.239816026875827 
1043	 0.256972074893905 
1044	 0.252153654612393 
1045	 0.225214353679973 
1046	 0.235059524661678 
1047	 0.23807375685729 
1048	 0.215004861193269 
1049	 0.207368199838289 
1050	 0.209800731658826 
1051	 0.214300416193719 
1052	 0.208411935084291 
1053	 0.224732591841873 
1054	 0.311856948746844 
1055	 0.276814182929069 
1056	 0.171716183997881 
1057	 0.22819136172216 
1058	 0.27114244080822 
1059	 0.254411004829844 
1060	 0.20983371842128 
1061	 0.173949383984661 
1062	 0.171583767453529 
1063	 0.174005303367102 
1064	 0.19577814301357 
1065	 0.238757592005399 
1066	 0.220810020216352 
1067	 0.154798557031047 
1068	 8.11519349400481E-02 
1069	 0.150804538930977 
1070	 0.267448209131013 
1071	 0.256329930026305 
1072	 0.289669797971717 
1073	 0.337639779042334 
1074	 0.245998053583386 
1075	 0.222261232461383 
