Wavelength	AVEI200326.asd
325	 5.21741104349102E-02 
326	 5.61876268376631E-02 
327	 6.74190887598554E-02 
328	 7.26533609242997E-02 
329	 6.88168562808513E-02 
330	 5.79735817283674E-02 
331	 5.58626284927576E-02 
332	 5.80074474464012E-02 
333	 5.90783621039723E-02 
334	 6.05412906765627E-02 
335	 6.22735328541968E-02 
336	 6.42325289825737E-02 
337	 0.064615539221972 
338	 6.33649247523631E-02 
339	 6.32490504624927E-02 
340	 6.21609751787079E-02 
341	 5.87709748648701E-02 
342	 5.83933421566609E-02 
343	 0.05946737529612 
344	 5.74584069163158E-02 
345	 0.0566197042607 
346	 0.057702247810393 
347	 5.89320235669764E-02 
348	 0.060582130443394 
349	 6.23578616103076E-02 
350	 6.01469302824303E-02 
351	 0.057120138113702 
352	 5.88505134392009E-02 
353	 5.98454238871653E-02 
354	 5.90360306096048E-02 
355	 5.76226863981444E-02 
356	 5.74037406249529E-02 
357	 5.89006944143599E-02 
358	 5.67268739156053E-02 
359	 0.055217187020419 
360	 6.18363887185993E-02 
361	 6.12941141759786E-02 
362	 5.41819697653661E-02 
363	 5.51876931223164E-02 
364	 5.68747849003904E-02 
365	 5.57860985474419E-02 
366	 5.68791630708641E-02 
367	 5.80486741436228E-02 
368	 5.59442090329799E-02 
369	 0.055044117684739 
370	 5.58557918626699E-02 
371	 5.63841232458327E-02 
372	 5.67365529575173E-02 
373	 0.056782812240773 
374	 5.56758091314756E-02 
375	 5.42516421198705E-02 
376	 5.37040694231548E-02 
377	 5.38084651682091E-02 
378	 5.41950782040532E-02 
379	 5.39073806607416E-02 
380	 5.34126938755766E-02 
381	 0.053126352639157 
382	 5.39813036262896E-02 
383	 0.055360672308917 
384	 5.63180950811054E-02 
385	 5.52402859924146E-02 
386	 0.052816845405247 
387	 5.20380733352944E-02 
388	 5.23113549806094E-02 
389	 5.29435802673873E-02 
390	 5.15325274002852E-02 
391	 4.98115464368758E-02 
392	 4.99907217711159E-02 
393	 5.01341095611788E-02 
394	 5.00762955885411E-02 
395	 5.07050685853002E-02 
396	 5.06053356443518E-02 
397	 4.95398949470463E-02 
398	 4.93402115068017E-02 
399	 4.97862980666205E-02 
400	 5.04711915982306E-02 
401	 5.08134086608988E-02 
402	 5.06342837435531E-02 
403	 4.96979450814901E-02 
404	 4.91227598451522E-02 
405	 0.049269919372841 
406	 0.049089954309268 
407	 4.87818187525157E-02 
408	 4.87063416889528E-02 
409	 4.89991072596282E-02 
410	 4.94037151143316E-02 
411	 0.049085688859883 
412	 4.89775184721222E-02 
413	 4.93817521404445E-02 
414	 4.91994356577152E-02 
415	 4.89169580889436E-02 
416	 4.92837424179498E-02 
417	 4.90763407709973E-02 
418	 4.85094888338764E-02 
419	 4.92772265685648E-02 
420	 4.94288241520132E-02 
421	 4.82041289435271E-02 
422	 0.048251950996207 
423	 4.87805726082291E-02 
424	 4.81954554367183E-02 
425	 0.048415942461217 
426	 4.94152488030388E-02 
427	 4.93807861095889E-02 
428	 4.89904637770967E-02 
429	 4.87374218418015E-02 
430	 4.87820212784747E-02 
431	 4.89480382991173E-02 
432	 0.048899451662683 
433	 4.87483108452084E-02 
434	 4.85536147733187E-02 
435	 4.84143251961723E-02 
436	 4.82670861060558E-02 
437	 4.80993081904556E-02 
438	 4.82412537298238E-02 
439	 4.84250478019841E-02 
440	 4.80095962563019E-02 
441	 4.83604773559733E-02 
442	 0.049381561269637 
443	 4.88984052198374E-02 
444	 4.81983325769031E-02 
445	 4.83458280756981E-02 
446	 4.85415377409282E-02 
447	 4.86277727478497E-02 
448	 4.85039391851949E-02 
449	 4.86393985400882E-02 
450	 4.90612967689977E-02 
451	 4.90395762742496E-02 
452	 4.89506603209658E-02 
453	 4.91779904004225E-02 
454	 4.90166230217466E-02 
455	 4.86627763502318E-02 
456	 4.90404903978246E-02 
457	 4.93434493477955E-02 
458	 4.92750297059205E-02 
459	 4.91983342916761E-02 
460	 0.049124906432063 
461	 4.90396489211421E-02 
462	 4.91914719639944E-02 
463	 4.94696188891386E-02 
464	 4.93494252733398E-02 
465	 4.93022748336509E-02 
466	 0.049510246958907 
467	 4.94416366312143E-02 
468	 4.92117465772506E-02 
469	 0.049075217966795 
470	 4.89484826067548E-02 
471	 4.88995686281765E-02 
472	 4.92395397790564E-02 
473	 4.94013307600671E-02 
474	 4.91065282074313E-02 
475	 4.93255405323738E-02 
476	 4.96043270853532E-02 
477	 4.88926839716876E-02 
478	 4.86851308731323E-02 
479	 4.91786303209372E-02 
480	 4.92425551676677E-02 
481	 4.91208436510304E-02 
482	 4.90463896874922E-02 
483	 4.90547177052376E-02 
484	 4.92555299244861E-02 
485	 4.99537764137268E-02 
486	 0.050171678440073 
487	 4.96509398906041E-02 
488	 4.91683954265152E-02 
489	 0.04908158863311 
490	 0.049623635072454 
491	 4.96513933988244E-02 
492	 4.93047524827448E-02 
493	 4.96704063971107E-02 
494	 4.97544416528106E-02 
495	 4.92890370319652E-02 
496	 4.94103041348298E-02 
497	 4.97791692527276E-02 
498	 4.98228832485211E-02 
499	 5.01613018243151E-02 
500	 5.08064964296802E-02 
501	 5.13440640112744E-02 
502	 5.16650386547907E-02 
503	 5.17282829043834E-02 
504	 5.18097020419711E-02 
505	 5.19890827517923E-02 
506	 5.23238341853165E-02 
507	 5.26071968497603E-02 
508	 5.28571461870396E-02 
509	 5.34009960151861E-02 
510	 5.40067309750378E-02 
511	 5.44859592769717E-02 
512	 5.49840511972452E-02 
513	 5.55239904179931E-02 
514	 5.60782019960583E-02 
515	 5.68139151219794E-02 
516	 5.77336222184353E-02 
517	 5.85450362936456E-02 
518	 5.91493716358026E-02 
519	 5.94815298920281E-02 
520	 5.97307007913468E-02 
521	 6.00664030311746E-02 
522	 6.07741976984754E-02 
523	 6.15869614151164E-02 
524	 6.23378482013724E-02 
525	 6.28620053249123E-02 
526	 6.32139813017315E-02 
527	 6.34851294793136E-02 
528	 6.40732877389339E-02 
529	 6.49614405243969E-02 
530	 6.58019937639804E-02 
531	 6.62303063969353E-02 
532	 0.066098194649085 
533	 6.63997649106018E-02 
534	 6.69947220306214E-02 
535	 6.73011062932158E-02 
536	 6.75410102839882E-02 
537	 6.78492853413813E-02 
538	 6.86003392755243E-02 
539	 6.91981731031009E-02 
540	 6.90820767550774E-02 
541	 0.06896598534193 
542	 6.90671714080811E-02 
543	 6.95752414657556E-02 
544	 6.98721708262693E-02 
545	 0.069774689478572 
546	 0.069933573352765 
547	 7.03498338175998E-02 
548	 7.09395506112684E-02 
549	 7.11474794207775E-02 
550	 7.10365604319524E-02 
551	 7.13482296119737E-02 
552	 0.071732603019639 
553	 7.19534383102016E-02 
554	 7.19796296281968E-02 
555	 7.19617899719109E-02 
556	 7.22099769819271E-02 
557	 7.22151915423815E-02 
558	 7.19420275261823E-02 
559	 7.20023393581505E-02 
560	 7.22012887173763E-02 
561	 7.23237794519923E-02 
562	 7.23029444945666E-02 
563	 7.21546977686008E-02 
564	 7.19631799856359E-02 
565	 7.17735597994111E-02 
566	 7.16117294094236E-02 
567	 7.14646023028842E-02 
568	 7.12506208671861E-02 
569	 7.08715475642296E-02 
570	 7.06704318432473E-02 
571	 0.070618455345258 
572	 7.03005514655173E-02 
573	 6.99596929088055E-02 
574	 6.97698745824722E-02 
575	 0.069892119201559 
576	 7.00579882025224E-02 
577	 6.97390415791116E-02 
578	 6.95312786212534E-02 
579	 6.94853136484068E-02 
580	 6.89641805124527E-02 
581	 6.83433750644375E-02 
582	 0.068000047135914 
583	 6.81703481606534E-02 
584	 6.85512108682871E-02 
585	 6.82847808303603E-02 
586	 6.79079847679386E-02 
587	 6.76659769042933E-02 
588	 6.76775514435342E-02 
589	 6.78247674422881E-02 
590	 6.79256096044009E-02 
591	 0.067579135270355 
592	 6.69729707088011E-02 
593	 6.70041249920537E-02 
594	 6.70679939065508E-02 
595	 6.68565018340586E-02 
596	 0.066922902918229 
597	 6.70653337371223E-02 
598	 6.67809982833047E-02 
599	 6.69436405110408E-02 
600	 6.75027247659954E-02 
601	 6.70266312558447E-02 
602	 6.64098242575942E-02 
603	 6.64493996851107E-02 
604	 0.066284508661969 
605	 6.59429782550719E-02 
606	 6.58625868334928E-02 
607	 6.58728974449424E-02 
608	 6.58731587225273E-02 
609	 6.56415767782138E-02 
610	 6.54121034599435E-02 
611	 6.54978817216692E-02 
612	 6.53761903677875E-02 
613	 6.49730145960665E-02 
614	 6.44514880192492E-02 
615	 0.06415861093225 
616	 6.42549812065548E-02 
617	 6.40939800273088E-02 
618	 6.37939755493581E-02 
619	 6.37123967966559E-02 
620	 6.37125029414792E-02 
621	 6.37691152853446E-02 
622	 6.39808190407601E-02 
623	 6.40062623658013E-02 
624	 6.35690972967983E-02 
625	 6.32628662262472E-02 
626	 6.30840672331557E-02 
627	 6.26306107687732E-02 
628	 6.25164923862618E-02 
629	 6.28778221694687E-02 
630	 6.29420368560024E-02 
631	 6.28436464826148E-02 
632	 6.28372291235168E-02 
633	 6.25462648506298E-02 
634	 6.22000021556018E-02 
635	 6.29230038316783E-02 
636	 0.063092456494851 
637	 6.19131964298001E-02 
638	 6.13436545854949E-02 
639	 6.12622085650543E-02 
640	 6.09881089667008E-02 
641	 6.05245912112114E-02 
642	 0.059915342481645 
643	 5.94301944679462E-02 
644	 5.90810763598984E-02 
645	 5.88309755896742E-02 
646	 5.81178283816597E-02 
647	 5.72578415893299E-02 
648	 5.74028892771356E-02 
649	 5.74138803598194E-02 
650	 5.69190265107542E-02 
651	 5.66188034706786E-02 
652	 5.63982319424052E-02 
653	 5.60522569534247E-02 
654	 5.58819762220625E-02 
655	 5.58857026117011E-02 
656	 0.055814288685544 
657	 5.57410802303486E-02 
658	 5.56852258101032E-02 
659	 0.055516688897697 
660	 5.51933227853934E-02 
661	 5.46634989207581E-02 
662	 5.41076201186644E-02 
663	 5.36726508080251E-02 
664	 5.36667789943617E-02 
665	 5.36834672950648E-02 
666	 5.33521783474994E-02 
667	 5.24974765379859E-02 
668	 5.16078338045791E-02 
669	 5.19548902250874E-02 
670	 5.21584006110039E-02 
671	 5.18115437363556E-02 
672	 5.17770048993519E-02 
673	 5.17829870982874E-02 
674	 0.051461838419432 
675	 5.14531751489966E-02 
676	 0.051774503230013 
677	 5.20297895085067E-02 
678	 5.22370568924752E-02 
679	 5.24292966601217E-02 
680	 5.28385830492631E-02 
681	 5.33788124252287E-02 
682	 5.38672479441231E-02 
683	 5.44061555129822E-02 
684	 5.51408768822809E-02 
685	 5.65646783737075E-02 
686	 5.81888555427737E-02 
687	 5.95680479840804E-02 
688	 6.13318210968027E-02 
689	 6.32172125491105E-02 
690	 6.47753262037092E-02 
691	 6.63719745094285E-02 
692	 6.82882343637254E-02 
693	 7.09583795683367E-02 
694	 7.40083508777171E-02 
695	 7.68750749470116E-02 
696	 7.90348453787756E-02 
697	 8.08927623983532E-02 
698	 8.38511475480309E-02 
699	 8.71619658515176E-02 
700	 9.03737729901871E-02 
701	 9.32706461861619E-02 
702	 9.58641890160618E-02 
703	 9.82529473568463E-02 
704	 0.10086890328988 
705	 0.103687113329506 
706	 0.1061347462236 
707	 0.108320415829472 
708	 0.110335853200032 
709	 0.11241360888087 
710	 0.114570753960481 
711	 0.116788563741882 
712	 0.11878880723519 
713	 0.120507344762883 
714	 0.122162523006591 
715	 0.123824354494443 
716	 0.12564946213904 
717	 0.127769666407253 
718	 0.12991412433093 
719	 0.130781448206328 
720	 0.131920785557619 
721	 0.133627627391426 
722	 0.13467539916118 
723	 0.13557212095044 
724	 0.136833242101 
725	 0.137885867768565 
726	 0.138680993194076 
727	 0.139764270687955 
728	 0.140700415412916 
729	 0.141352039547247 
730	 0.142430253238712 
731	 0.143446398273196 
732	 0.143642889039317 
733	 0.144037495192712 
734	 0.144699720251413 
735	 0.144918774498683 
736	 0.145260839832771 
737	 0.146059461228913 
738	 0.146844209637665 
739	 0.147420178037927 
740	 0.147511076945352 
741	 0.148249248585028 
742	 0.149530447379933 
743	 0.14933721722621 
744	 0.148944684435088 
745	 0.149438855013317 
746	 0.14970335367882 
747	 0.149844118571327 
748	 0.150644682748747 
749	 0.151002277290193 
750	 0.15071583899294 
751	 0.151004869916314 
752	 0.151594247955564 
753	 0.152089776376017 
754	 0.152401963177192 
755	 0.152510677869712 
756	 0.15244915831581 
757	 0.152368143491457 
758	 0.152363021041872 
759	 0.152378173247045 
760	 0.153109109245688 
761	 0.155690043540164 
762	 0.157050080340962 
763	 0.156861173196099 
764	 0.156979886966392 
765	 0.156616691797033 
766	 0.155811288875194 
767	 0.155763095076651 
768	 0.156004710820574 
769	 0.155937467129623 
770	 0.156156685865461 
771	 0.156616367863444 
772	 0.156645314946753 
773	 0.156704478379592 
774	 0.157084193339001 
775	 0.157426469393525 
776	 0.157786318367994 
777	 0.158395715067565 
778	 0.158512016136349 
779	 0.158140936795194 
780	 0.158268131346419 
781	 0.158696744740875 
782	 0.159222219508188 
783	 0.15965626810297 
784	 0.159927517754721 
785	 0.159976117385466 
786	 0.160109504292396 
787	 0.160304442752395 
788	 0.159839087188198 
789	 0.159456136154494 
790	 0.15986911073249 
791	 0.160597932655372 
792	 0.161401758197342 
793	 0.162057404407835 
794	 0.162004597471111 
795	 0.161388845116534 
796	 0.162120017069595 
797	 0.162953126848456 
798	 0.162581476711199 
799	 0.162126285478329 
800	 0.161881209588035 
801	 0.16196899644919 
802	 0.162368779211143 
803	 0.162985058741483 
804	 0.163418254674222 
805	 0.163731340029421 
806	 0.164022534028339 
807	 0.163950568232837 
808	 0.163781794440389 
809	 0.164475506377641 
810	 0.165031786535268 
811	 0.165073956249192 
812	 0.165241961650047 
813	 0.165554896155757 
814	 0.165965737367592 
815	 0.166448377394192 
816	 0.16693585537226 
817	 0.16731649886062 
818	 0.167592321455646 
819	 0.167745111105485 
820	 0.167622892871006 
821	 0.167612820914432 
822	 0.168159906327298 
823	 0.168638372614159 
824	 0.168757102898906 
825	 0.168117120886813 
826	 0.168099322919179 
827	 0.169070810379771 
828	 0.169215397421721 
829	 0.169074060343585 
830	 0.169495168822529 
831	 0.169541542086357 
832	 0.169368114993759 
833	 0.170082903712974 
834	 0.170145673112776 
835	 0.169318820012752 
836	 0.170250841520176 
837	 0.171716961430582 
838	 0.172109996472311 
839	 0.172035991745745 
840	 0.171769175421592 
841	 0.171679130965846 
842	 0.172038791470517 
843	 0.172696043104904 
844	 0.171963112529055 
845	 0.171015002798323 
846	 0.171293210834817 
847	 0.172023303158436 
848	 0.172697884300886 
849	 0.172297083264743 
850	 0.172228338189788 
851	 0.172965936921363 
852	 0.173623522993917 
853	 0.173615660288126 
854	 0.172545027238403 
855	 0.173031191309778 
856	 0.174585279122692 
857	 0.174702906777463 
858	 0.174511324342504 
859	 0.17433477167283 
860	 0.173948990679684 
861	 0.173775643246901 
862	 0.17419194413509 
863	 0.174698449501667 
864	 0.175140776290566 
865	 0.175369986907282 
866	 0.175975163043015 
867	 0.176872835421503 
868	 0.17681390349 
869	 0.176307069836299 
870	 0.175859091492426 
871	 0.175642790180418 
872	 0.175746880280314 
873	 0.176248491788006 
874	 0.1765897145407 
875	 0.176946845507377 
876	 0.178956861666929 
877	 0.180400845524657 
878	 0.179792739360396 
879	 0.178842496963239 
880	 0.178181105601099 
881	 0.178384828362081 
882	 0.178214926209227 
883	 0.177977954949027 
884	 0.180062329417282 
885	 0.181815945081525 
886	 0.181708095095331 
887	 0.180591765099987 
888	 0.179565096109002 
889	 0.179909279976117 
890	 0.179916332290746 
891	 0.179516746953739 
892	 0.179779487518575 
893	 0.180204559669485 
894	 0.180646775453174 
895	 0.181657819978868 
896	 0.182588394576891 
897	 0.182674484537472 
898	 0.183440835973126 
899	 0.184375274635984 
900	 0.18339943978752 
901	 0.182550461040566 
902	 0.18238139640252 
903	 0.181754060370345 
904	 0.181968208053644 
905	 0.18385574422304 
906	 0.185531782890116 
907	 0.186152512279117 
908	 0.184763266882327 
909	 0.184254218270757 
910	 0.185417014607227 
911	 0.18765279873543 
912	 0.188528454821423 
913	 0.186680714163858 
914	 0.183250935783609 
915	 0.18160453311142 
916	 0.18522238138183 
917	 0.185689326201454 
918	 0.183454393787463 
919	 0.184748268292092 
920	 0.186408429217298 
921	 0.186962792706887 
922	 0.184829784931336 
923	 0.182213664561966 
924	 0.18122924810597 
925	 0.181725274048124 
926	 0.182366166446252 
927	 0.180141698752133 
928	 0.18106460274688 
929	 0.185365601505128 
930	 0.182159443756038 
931	 0.179184558850857 
932	 0.182472486069797 
933	 0.183723645732657 
934	 0.182792781150767 
935	 0.181545475591837 
936	 0.179433732446659 
937	 0.177815472609193 
938	 0.179559859993333 
939	 0.183412748376069 
940	 0.186826114622954 
941	 0.180986867763562 
942	 0.177586318576551 
943	 0.183446101691497 
944	 0.179741676856395 
945	 0.172235563631538 
946	 0.174443808241253 
947	 0.178408490530959 
948	 0.179849415992552 
949	 0.171074277364153 
950	 0.16825147566864 
951	 0.175437997626594 
952	 0.175111204970132 
953	 0.169487573460062 
954	 0.162451942566161 
955	 0.161556123631687 
956	 0.164067222482657 
957	 0.16234743940677 
958	 0.165657834297588 
959	 0.172525602869369 
960	 0.171270752009097 
961	 0.169307065231378 
962	 0.169836385944179 
963	 0.170034308054414 
964	 0.166570402776442 
965	 0.157641417170225 
966	 0.159522695473935 
967	 0.167844499726478 
968	 0.168827814657086 
969	 0.169875990567467 
970	 0.171213842845491 
971	 0.166167513695011 
972	 0.164876275224474 
973	 0.171120211912875 
974	 0.170627452437594 
975	 0.166796594284326 
976	 0.165015573218914 
977	 0.164696132226233 
978	 0.165605448998786 
979	 0.167460243572861 
980	 0.165390060870511 
981	 0.160564717073723 
982	 0.162732743061462 
983	 0.165278802769712 
984	 0.165396488211176 
985	 0.170596599477464 
986	 0.174984761284846 
987	 0.172076337996281 
988	 0.16788628408373 
989	 0.165022092946409 
990	 0.166012588503129 
991	 0.168541323203709 
992	 0.171084368746376 
993	 0.171350684560665 
994	 0.169527104901464 
995	 0.166769767208063 
996	 0.168599452869847 
997	 0.171812394467412 
998	 0.172984824366353 
999	 0.175496173029433 
1000	 0.176163914373353 
1001	 0.168778059691081 
1002	 0.166978121418863 
1003	 0.171580564737569 
1004	 0.17219195671077 
1005	 0.174926305609676 
1006	 0.180270843340432 
1007	 0.180208902713173 
1008	 0.17661826070429 
1009	 0.172089687055787 
1010	 0.170992778068941 
1011	 0.174922514074192 
1012	 0.184287849764043 
1013	 0.18544380624991 
1014	 0.181278500010183 
1015	 0.187107567396401 
1016	 0.188250033851713 
1017	 0.183287474371273 
1018	 0.186020171213551 
1019	 0.1878261628947 
1020	 0.183756443664102 
1021	 0.17462069384702 
1022	 0.170711307563452 
1023	 0.180640644385933 
1024	 0.187148523020439 
1025	 0.187651698188302 
1026	 0.18374261273321 
1027	 0.175897957583751 
1028	 0.169033909321004 
1029	 0.176537157358055 
1030	 0.182924250444976 
1031	 0.183967877029692 
1032	 0.189495463831278 
1033	 0.192390236851168 
1034	 0.188176566006711 
1035	 0.177940176906404 
1036	 0.171158844073796 
1037	 0.176783350752189 
1038	 0.185269076438176 
1039	 0.194568532188679 
1040	 0.204187753437117 
1041	 0.203076924675023 
1042	 0.191097645735999 
1043	 0.174013759912765 
1044	 0.175158435165555 
1045	 0.194591072251814 
1046	 0.195326062949303 
1047	 0.18988952179819 
1048	 0.185254441073459 
1049	 0.171166922905548 
1050	 0.166188432189272 
1051	 0.185443938743817 
1052	 0.190123645683607 
1053	 0.183555135791866 
1054	 0.181590991391246 
1055	 0.19614753911677 
1056	 0.21366034264983 
1057	 0.201277940297691 
1058	 0.184268237345089 
1059	 0.177006530351157 
1060	 0.19996699637845 
1061	 0.216200350752584 
1062	 0.20865489991168 
1063	 0.197025159838949 
1064	 0.182601127568047 
1065	 0.168797457457836 
1066	 0.172565185138378 
1067	 0.191572267123122 
1068	 0.214947075308732 
1069	 0.209956173528422 
1070	 0.190455496575708 
1071	 0.189594831291699 
1072	 0.191842555848297 
1073	 0.194001442600574 
1074	 0.19513333324925 
1075	 0.197517673008808 
