Wavelength	AVEI200249.asd
325	 4.34359960067349E-02 
326	 4.41721076708225E-02 
327	 3.31318499222212E-02 
328	 3.60911290499724E-02 
329	 4.15673261256702E-02 
330	 4.54854308452794E-02 
331	 0.051260280638053 
332	 5.17783232387477E-02 
333	 4.12869304942312E-02 
334	 3.34687431652878E-02 
335	 0.031329131984139 
336	 3.54438120181497E-02 
337	 3.88383142653929E-02 
338	 4.00340629159666E-02 
339	 4.56820013232068E-02 
340	 4.80616155992332E-02 
341	 4.17399878161294E-02 
342	 4.01373470573831E-02 
343	 4.17850921778256E-02 
344	 3.94762007991296E-02 
345	 3.97202558504152E-02 
346	 4.27344626319638E-02 
347	 4.28696950565898E-02 
348	 0.042859529943761 
349	 4.42171993064253E-02 
350	 4.26626626066319E-02 
351	 3.98268139858614E-02 
352	 0.039047372244566 
353	 3.82271185397924E-02 
354	 3.70675367305034E-02 
355	 0.036012161778266 
356	 3.65977321945529E-02 
357	 0.039247488832081 
358	 4.00984885786472E-02 
359	 0.039438841990737 
360	 3.84368887524134E-02 
361	 3.89435063169739E-02 
362	 4.02679269391688E-02 
363	 3.81370747335237E-02 
364	 3.70659329697842E-02 
365	 0.039010815387938 
366	 3.94799321960781E-02 
367	 3.95550430997031E-02 
368	 4.12779640091796E-02 
369	 0.04172377655291 
370	 4.06165159726996E-02 
371	 3.95206401127408E-02 
372	 3.77234072740731E-02 
373	 3.53809943655106E-02 
374	 3.57860059419794E-02 
375	 3.76968620535356E-02 
376	 3.89265688654237E-02 
377	 0.03855840425164 
378	 3.74201503773713E-02 
379	 3.92691976506434E-02 
380	 4.04331112227909E-02 
381	 3.95411475701273E-02 
382	 4.08415928562567E-02 
383	 4.18778590344733E-02 
384	 3.90770343602707E-02 
385	 3.74374062521555E-02 
386	 3.75121441329392E-02 
387	 3.69315883021474E-02 
388	 0.035632809603063 
389	 3.41751786884619E-02 
390	 3.61154268798331E-02 
391	 3.87026738013917E-02 
392	 3.85603999807886E-02 
393	 0.03819945448502 
394	 3.79593069482542E-02 
395	 3.73075827868607E-02 
396	 3.63712823766117E-02 
397	 3.53940633145449E-02 
398	 3.53343615094094E-02 
399	 3.52912400404242E-02 
400	 3.43147884992622E-02 
401	 3.40404186413086E-02 
402	 3.45126544697428E-02 
403	 3.52383586388162E-02 
404	 0.035564281645469 
405	 3.52570776746642E-02 
406	 3.47805119721598E-02 
407	 3.43693871185561E-02 
408	 3.42425109907598E-02 
409	 3.43130613585827E-02 
410	 3.44567236843747E-02 
411	 3.43128378869458E-02 
412	 3.46018105151031E-02 
413	 3.54804952684425E-02 
414	 3.57394708698656E-02 
415	 3.55108439104107E-02 
416	 3.51262316666675E-02 
417	 3.51672410073814E-02 
418	 3.54895654070546E-02 
419	 3.51784038947537E-02 
420	 3.46442977554794E-02 
421	 3.42146525028419E-02 
422	 3.44578190178126E-02 
423	 0.034983480206435 
424	 3.51580691476625E-02 
425	 3.47708851371947E-02 
426	 3.41442925704901E-02 
427	 3.46608858053907E-02 
428	 3.52351576649412E-02 
429	 3.51400908084743E-02 
430	 3.46218288685049E-02 
431	 3.41892497638662E-02 
432	 3.46159366343785E-02 
433	 0.034979376225311 
434	 3.50194512978388E-02 
435	 3.48470997543861E-02 
436	 3.46430261511551E-02 
437	 3.45502892588217E-02 
438	 3.47212504687517E-02 
439	 3.49156685292926E-02 
440	 3.46446042497617E-02 
441	 3.45006832498385E-02 
442	 3.46420569494853E-02 
443	 3.49267741040265E-02 
444	 0.03506570105791 
445	 3.48849728596542E-02 
446	 3.51874326986638E-02 
447	 3.55894553656572E-02 
448	 3.48628456022608E-02 
449	 3.46429050893631E-02 
450	 3.52509897560087E-02 
451	 0.035301731203578 
452	 3.51213185267414E-02 
453	 3.51037691650962E-02 
454	 3.50461983321952E-02 
455	 3.49824745979211E-02 
456	 3.51072103232828E-02 
457	 3.50953742917674E-02 
458	 3.49161644791878E-02 
459	 3.52310287064378E-02 
460	 3.56541033747284E-02 
461	 3.56726572805871E-02 
462	 3.55767859601503E-02 
463	 3.54139645730548E-02 
464	 3.50686099496024E-02 
465	 3.50382502272735E-02 
466	 0.035429892322845 
467	 3.49902410240449E-02 
468	 3.43142515260141E-02 
469	 3.44626325511259E-02 
470	 3.49711528926513E-02 
471	 0.035559170216197 
472	 3.57688835887518E-02 
473	 3.56790275755119E-02 
474	 3.54171501975104E-02 
475	 3.55755988432972E-02 
476	 3.58598269367172E-02 
477	 3.56063156489588E-02 
478	 3.53328078626205E-02 
479	 3.52340612166152E-02 
480	 3.54288419813336E-02 
481	 3.56096340947439E-02 
482	 3.55445369642637E-02 
483	 3.56441739738272E-02 
484	 3.57521532383289E-02 
485	 3.52935373779465E-02 
486	 3.50768806083422E-02 
487	 3.52982413358059E-02 
488	 3.51928734308932E-02 
489	 3.51751438122282E-02 
490	 3.56808026877302E-02 
491	 3.60564295567087E-02 
492	 3.62129027339047E-02 
493	 0.03635329891818 
494	 3.61497056423504E-02 
495	 3.56021352577265E-02 
496	 3.55248102578071E-02 
497	 3.58266908572515E-02 
498	 3.62786566808486E-02 
499	 3.68064436452486E-02 
500	 3.71749547711005E-02 
501	 3.67032015502843E-02 
502	 3.65558181942138E-02 
503	 3.72961572675501E-02 
504	 3.72117266107252E-02 
505	 3.70327715268123E-02 
506	 3.83669711058121E-02 
507	 3.92279890833407E-02 
508	 3.92455306985079E-02 
509	 3.93894296644597E-02 
510	 3.96167529475551E-02 
511	 3.98889098247249E-02 
512	 4.03430049428796E-02 
513	 4.08547327543336E-02 
514	 4.10445141856097E-02 
515	 4.15568886288574E-02 
516	 4.24743325790905E-02 
517	 4.29131920942897E-02 
518	 4.30978877647813E-02 
519	 4.33607330735737E-02 
520	 0.044117032035038 
521	 4.50894250222315E-02 
522	 4.53245742219892E-02 
523	 4.54149064392684E-02 
524	 4.57114191050207E-02 
525	 4.65792658723127E-02 
526	 4.75879505951432E-02 
527	 4.80779686772956E-02 
528	 4.83983768960549E-02 
529	 4.87440520658727E-02 
530	 4.95335740895934E-02 
531	 5.00516102122838E-02 
532	 4.99202084124519E-02 
533	 5.03237065610003E-02 
534	 5.10086315488934E-02 
535	 5.11300200612731E-02 
536	 5.12276818469186E-02 
537	 5.14866514404232E-02 
538	 0.051905839388613 
539	 5.24965717269179E-02 
540	 5.32255132529712E-02 
541	 5.34357686915663E-02 
542	 0.053275855755716 
543	 5.35122876933792E-02 
544	 5.37033744568264E-02 
545	 0.053741164550859 
546	 0.054067067456503 
547	 0.054457306378881 
548	 5.45716244180509E-02 
549	 0.05494207789766 
550	 5.55403891476757E-02 
551	 0.055838975114215 
552	 5.60122367061576E-02 
553	 5.61605720719056E-02 
554	 5.61430656119504E-02 
555	 5.61425192588851E-02 
556	 5.65442205167506E-02 
557	 5.66632027931902E-02 
558	 5.64194657726865E-02 
559	 5.65919905346465E-02 
560	 5.66734431426435E-02 
561	 5.62300430251096E-02 
562	 5.63060048470884E-02 
563	 5.67510943299684E-02 
564	 5.66904518945534E-02 
565	 5.64376297323121E-02 
566	 5.61332251990928E-02 
567	 5.59233861268998E-02 
568	 5.57914894760232E-02 
569	 5.56896213494956E-02 
570	 5.53331387923986E-02 
571	 0.054802583958586 
572	 5.46062131639152E-02 
573	 5.45291041032052E-02 
574	 5.44086870618407E-02 
575	 5.40556202847932E-02 
576	 5.36591594657448E-02 
577	 5.36093167405529E-02 
578	 5.36481309636075E-02 
579	 5.36764072363946E-02 
580	 5.36514428943732E-02 
581	 5.35891015329468E-02 
582	 5.35119598359619E-02 
583	 5.35540799796641E-02 
584	 5.35047954475179E-02 
585	 5.26523525822281E-02 
586	 5.23097388749366E-02 
587	 5.28584274126767E-02 
588	 5.29636403254523E-02 
589	 0.052694931262358 
590	 5.23248933129043E-02 
591	 5.20396082706584E-02 
592	 5.20329959809361E-02 
593	 0.052749751721642 
594	 5.31071027286528E-02 
595	 5.25635614610386E-02 
596	 5.23577965956438E-02 
597	 5.24551078483909E-02 
598	 5.25059796239062E-02 
599	 5.23199955596281E-02 
600	 5.19768710019968E-02 
601	 5.21535607550555E-02 
602	 5.24100017271218E-02 
603	 5.23560051393055E-02 
604	 5.24775764180754E-02 
605	 5.26278989780361E-02 
606	 5.22378099792065E-02 
607	 0.051737065110174 
608	 0.051320218581592 
609	 5.09719522874317E-02 
610	 5.08356711374407E-02 
611	 5.10719193196433E-02 
612	 5.08298435783985E-02 
613	 5.01400464556271E-02 
614	 4.98327210004482E-02 
615	 4.97541083807742E-02 
616	 4.98034015522231E-02 
617	 4.98584141319098E-02 
618	 0.049928218915952 
619	 0.050104383070951 
620	 4.99109233387159E-02 
621	 4.94326446788382E-02 
622	 4.97251911449593E-02 
623	 4.99706945260217E-02 
624	 4.94604809193069E-02 
625	 4.93183735640903E-02 
626	 4.95664740304827E-02 
627	 4.97206877051333E-02 
628	 4.97483074278334E-02 
629	 4.96379260162252E-02 
630	 4.95811779022513E-02 
631	 0.049562646070792 
632	 4.95378958840662E-02 
633	 4.91871626100446E-02 
634	 4.87614676856537E-02 
635	 4.93686117415236E-02 
636	 4.97620688047282E-02 
637	 4.92478402652751E-02 
638	 4.87404856455894E-02 
639	 4.83351809855866E-02 
640	 4.79738558044782E-02 
641	 4.76052955260338E-02 
642	 4.72574908268794E-02 
643	 4.71755755214965E-02 
644	 4.68471645544208E-02 
645	 4.59025115954389E-02 
646	 4.58574090137847E-02 
647	 4.64106570241961E-02 
648	 4.60236768512829E-02 
649	 4.53935823026877E-02 
650	 4.48626573165614E-02 
651	 4.47839055790058E-02 
652	 4.48741167829086E-02 
653	 4.47542328763451E-02 
654	 4.43965218655631E-02 
655	 4.38979958422736E-02 
656	 4.36104115719377E-02 
657	 4.38859163151194E-02 
658	 4.46686385951027E-02 
659	 4.42850930812015E-02 
660	 4.33290925028178E-02 
661	 0.043050799333389 
662	 4.25118304877703E-02 
663	 4.16612190846143E-02 
664	 4.12655943807717E-02 
665	 4.13017997697788E-02 
666	 4.16414380920895E-02 
667	 4.12493254595026E-02 
668	 4.04096538583677E-02 
669	 4.02279554578592E-02 
670	 0.040392206933916 
671	 4.07217651949994E-02 
672	 4.07382981116672E-02 
673	 4.06002646302409E-02 
674	 4.05439546464438E-02 
675	 4.06261046865904E-02 
676	 4.08299854392239E-02 
677	 4.10257217963731E-02 
678	 4.12977879539131E-02 
679	 0.041656039268878 
680	 4.18538428825188E-02 
681	 4.20008401461802E-02 
682	 4.22950435530816E-02 
683	 4.29353475825684E-02 
684	 4.40164645181271E-02 
685	 4.57916665795075E-02 
686	 0.047365544173236 
687	 4.79416045348228E-02 
688	 0.048921722059408 
689	 5.04286234219464E-02 
690	 5.22526755157727E-02 
691	 5.41843506101045E-02 
692	 5.62287960610045E-02 
693	 5.85688242190537E-02 
694	 6.10749063087738E-02 
695	 6.35055416147339E-02 
696	 6.62960364982325E-02 
697	 6.93464243121504E-02 
698	 7.22738799577122E-02 
699	 7.55229496907968E-02 
700	 7.91857697957745E-02 
701	 8.27134309073295E-02 
702	 8.61288070898338E-02 
703	 8.95924549561672E-02 
704	 9.25895676125509E-02 
705	 9.53051492761329E-02 
706	 9.85636648140489E-02 
707	 0.102174823909179 
708	 0.105926468213158 
709	 0.109359023512484 
710	 0.112488588029964 
711	 0.115481093272082 
712	 0.118541205521901 
713	 0.121632350602505 
714	 0.124381850311732 
715	 0.126913919469422 
716	 0.129471124072782 
717	 0.131603948884672 
718	 0.133689152854231 
719	 0.136825717645723 
720	 0.139843829865402 
721	 0.142113530604923 
722	 0.143939021532248 
723	 0.145738300714551 
724	 0.147761181903359 
725	 0.14925580595965 
726	 0.150463120552086 
727	 0.153157897312414 
728	 0.155370506315964 
729	 0.156287341649078 
730	 0.157749616924884 
731	 0.159256366122033 
732	 0.159864517805377 
733	 0.160707247875557 
734	 0.161799467399247 
735	 0.162087105425772 
736	 0.162774074711212 
737	 0.164471592157554 
738	 0.165217731989537 
739	 0.165471556609999 
740	 0.166612384801171 
741	 0.167594855015399 
742	 0.168145784881213 
743	 0.168439678520916 
744	 0.168939226146421 
745	 0.169984541108293 
746	 0.17083672768295 
747	 0.171397857812816 
748	 0.171712403953364 
749	 0.172375482899394 
750	 0.17344851543259 
751	 0.173936888980865 
752	 0.174146731699779 
753	 0.174486761410395 
754	 0.174933316497567 
755	 0.175480427213216 
756	 0.17604047608086 
757	 0.176928665707371 
758	 0.178242021254355 
759	 0.178812050064565 
760	 0.178806164382294 
761	 0.179003340390586 
762	 0.179400664683539 
763	 0.179726377533113 
764	 0.179274062689634 
765	 0.179395010469467 
766	 0.180278038181042 
767	 0.180629859290711 
768	 0.180923733462989 
769	 0.181807112686593 
770	 0.182363410582719 
771	 0.18254493998197 
772	 0.183026536435226 
773	 0.183559520867634 
774	 0.183986787656315 
775	 0.184538653059222 
776	 0.184924022281096 
777	 0.184524359379315 
778	 0.184822255660673 
779	 0.185914129369896 
780	 0.186066605476673 
781	 0.18634425837359 
782	 0.187486239537377 
783	 0.187576839168604 
784	 0.187179872864334 
785	 0.188176953687079 
786	 0.188947891439419 
787	 0.189148071932473 
788	 0.189866491049785 
789	 0.190492773042363 
790	 0.190471060892061 
791	 0.19092436985564 
792	 0.191635958767076 
793	 0.191533793120554 
794	 0.191594070241709 
795	 0.192141498304682 
796	 0.192999927690948 
797	 0.193467554747117 
798	 0.192919560520127 
799	 0.192234888344502 
800	 0.192078028434279 
801	 0.193796268276281 
802	 0.19493660015486 
803	 0.194702606989975 
804	 0.194879389574336 
805	 0.195200215037151 
806	 0.195287407609664 
807	 0.196283131236543 
808	 0.197696479595301 
809	 0.19745645304241 
810	 0.197134897196223 
811	 0.197438243209964 
812	 0.198102965520847 
813	 0.198864952513319 
814	 0.199359366686927 
815	 0.199325153401426 
816	 0.199033906650269 
817	 0.199528124755844 
818	 0.200255371099202 
819	 0.200991698004136 
820	 0.202229260502411 
821	 0.202915424560974 
822	 0.201827700993471 
823	 0.201300236170496 
824	 0.201914953689007 
825	 0.20355388469238 
826	 0.205126418603928 
827	 0.205974322719405 
828	 0.205223168179413 
829	 0.20436777183679 
830	 0.205284134047759 
831	 0.2062932190888 
832	 0.206840523433477 
833	 0.206457191120323 
834	 0.206353510282387 
835	 0.206889924897996 
836	 0.20678191654071 
837	 0.206418110221149 
838	 0.206350147895024 
839	 0.20644255642596 
840	 0.206812406735279 
841	 0.207959520153784 
842	 0.208495049978587 
843	 0.208019743362586 
844	 0.208141848913281 
845	 0.208525644799717 
846	 0.208667488818989 
847	 0.209258189495423 
848	 0.209937631486521 
849	 0.209265365532426 
850	 0.208803386152082 
851	 0.209034979094476 
852	 0.208565129909879 
853	 0.208340217901668 
854	 0.209341199431985 
855	 0.208947057138911 
856	 0.208004415356767 
857	 0.210084226846029 
858	 0.211304731588273 
859	 0.210653784121767 
860	 0.210094172438982 
861	 0.210444667985822 
862	 0.212181421749212 
863	 0.212176531987094 
864	 0.210990896121779 
865	 0.211364057447724 
866	 0.212233937227946 
867	 0.212989794045339 
868	 0.212209983159049 
869	 0.212380270614607 
870	 0.215073379751936 
871	 0.214387166321668 
872	 0.212431356731677 
873	 0.215070262933828 
874	 0.217138534286892 
875	 0.217335088259458 
876	 0.217195699904856 
877	 0.21696205668306 
878	 0.217024494032306 
879	 0.218993183431319 
880	 0.221206353080096 
881	 0.220708566492999 
882	 0.219753974842091 
883	 0.219433632480386 
884	 0.22126110468934 
885	 0.222701638407331 
886	 0.222456354211004 
887	 0.222558733385864 
888	 0.22301163927752 
889	 0.223529082022705 
890	 0.224561354238615 
891	 0.225664305547176 
892	 0.225042718708471 
893	 0.225117435598467 
894	 0.226796998223175 
895	 0.227549418445166 
896	 0.228121378521945 
897	 0.229454849017933 
898	 0.228042276527333 
899	 0.225225666153851 
900	 0.226037577922578 
901	 0.227370795268488 
902	 0.228361514695362 
903	 0.230205586474874 
904	 0.230639035914558 
905	 0.228403573956942 
906	 0.228961336026822 
907	 0.231074359099383 
908	 0.231027823135394 
909	 0.229913260699827 
910	 0.228703154517259 
911	 0.230146082115332 
912	 0.230974522758702 
913	 0.229707089322171 
914	 0.230161060222518 
915	 0.231676688258758 
916	 0.232857084621604 
917	 0.230101486842501 
918	 0.225678470003248 
919	 0.22732056741233 
920	 0.230566815951989 
921	 0.232959166117086 
922	 0.230244359231225 
923	 0.229002234704711 
924	 0.234552952389624 
925	 0.234471341964066 
926	 0.230284006025035 
927	 0.23029213864388 
928	 0.231923948087479 
929	 0.23344531523978 
930	 0.230149795383666 
931	 0.224456296287666 
932	 0.219321895617024 
933	 0.220259295978999 
934	 0.222632489053583 
935	 0.218138137803844 
936	 0.217383598587138 
937	 0.21835805654509 
938	 0.207769006647769 
939	 0.207252956589611 
940	 0.218567981675764 
941	 0.218895858950045 
942	 0.211032753414658 
943	 0.199377352899952 
944	 0.199057990814109 
945	 0.204210061439298 
946	 0.201796240723538 
947	 0.201546676352056 
948	 0.203793020282428 
949	 0.202386448116783 
950	 0.200416685082969 
951	 0.199383746709159 
952	 0.200074758335218 
953	 0.200183077911038 
954	 0.197393375011014 
955	 0.188694790466778 
956	 0.181561760901441 
957	 0.190139194304544 
958	 0.195204727468207 
959	 0.193672973727089 
960	 0.193142150062451 
961	 0.193028431381182 
962	 0.192587609626098 
963	 0.188518314724463 
964	 0.184651587490404 
965	 0.184898218896828 
966	 0.188982560172477 
967	 0.193009162257968 
968	 0.190274209495135 
969	 0.185194817311954 
970	 0.181091634808378 
971	 0.185612074656738 
972	 0.186732283052068 
973	 0.18005273610506 
974	 0.182236497174794 
975	 0.187402787758907 
976	 0.18755184180278 
977	 0.186983714251569 
978	 0.187096956005091 
979	 0.1895614907231 
980	 0.187522854944752 
981	 0.182134070856012 
982	 0.185387082892301 
983	 0.190288383300808 
984	 0.192515717466616 
985	 0.190620790526459 
986	 0.191365632580642 
987	 0.20079278722477 
988	 0.199112459850989 
989	 0.191024349902294 
990	 0.192887491738907 
991	 0.195889540011075 
992	 0.196332007214783 
993	 0.189588341640352 
994	 0.185945666801072 
995	 0.190204183293812 
996	 0.195054692306915 
997	 0.197885071761123 
998	 0.197546032886475 
999	 0.20380184182339 
1000	 0.210302798198837 
1001	 0.204020509871574 
1002	 0.198560834205532 
1003	 0.198067586888231 
1004	 0.202684590267334 
1005	 0.209688202163223 
1006	 0.215483660761885 
1007	 0.209194215043968 
1008	 0.203062981293382 
1009	 0.206062575276674 
1010	 0.203100928027693 
1011	 0.201780118698517 
1012	 0.214202896964989 
1013	 0.211938483126599 
1014	 0.199754455872467 
1015	 0.205318650610817 
1016	 0.205154750959455 
1017	 0.198386355141206 
1018	 0.211763090461963 
1019	 0.223089594240524 
1020	 0.219987329114857 
1021	 0.209297196265689 
1022	 0.205297560904444 
1023	 0.219365552507084 
1024	 0.219198623139241 
1025	 0.20588572934296 
1026	 0.191895224194825 
1027	 0.192927299265427 
1028	 0.20660329185993 
1029	 0.215309201853062 
1030	 0.215422043324653 
1031	 0.209632692735941 
1032	 0.22007958557604 
1033	 0.230111013495065 
1034	 0.230358914475056 
1035	 0.236861327301514 
1036	 0.232280866129148 
1037	 0.200959259999429 
1038	 0.193459597087883 
1039	 0.207850505472327 
1040	 0.224374512133096 
1041	 0.214036810382717 
1042	 0.1897992107169 
1043	 0.217100224199576 
1044	 0.243532510418641 
1045	 0.247732696175998 
1046	 0.214530776913331 
1047	 0.195755037530713 
1048	 0.217662843155072 
1049	 0.219884698607405 
1050	 0.22066606238318 
1051	 0.238883045231679 
1052	 0.242915833893679 
1053	 0.233404126006405 
1054	 0.220552497806184 
1055	 0.206887064724045 
1056	 0.201084666071454 
1057	 0.220707774107271 
1058	 0.228403480545136 
1059	 0.218982133551787 
1060	 0.223985576231684 
1061	 0.223508739403318 
1062	 0.212234423271398 
1063	 0.206389918601612 
1064	 0.20697735498304 
1065	 0.210021234301022 
1066	 0.184005687318106 
1067	 0.157808496379906 
1068	 0.165374107631223 
1069	 0.191419867948495 
1070	 0.216140244846 
1071	 0.218467044367073 
1072	 0.217556521131932 
1073	 0.215368685691579 
1074	 0.205613892145651 
1075	 0.191444687924412 
