Wavelength	AVEI200293.asd
325	 5.19201983735784E-02 
326	 4.42915411029874E-02 
327	 2.39701139325535E-02 
328	 2.69890874030264E-02 
329	 3.88000412047231E-02 
330	 5.04725938555316E-02 
331	 4.83395908170929E-02 
332	 4.26825379103157E-02 
333	 4.37798546974113E-02 
334	 4.32251491936634E-02 
335	 0.040843554367393 
336	 3.92515803426843E-02 
337	 3.75349204765565E-02 
338	 3.66462584585205E-02 
339	 4.25596124550766E-02 
340	 4.56590602584208E-02 
341	 3.91706132535732E-02 
342	 0.036307242671797 
343	 3.64642543265052E-02 
344	 3.46971893732898E-02 
345	 3.07557179467987E-02 
346	 2.62265741585492E-02 
347	 2.70364484865995E-02 
348	 2.86111272501243E-02 
349	 2.79850326852125E-02 
350	 2.77285774945138E-02 
351	 0.028775992374263 
352	 3.22012672238482E-02 
353	 3.42146506401857E-02 
354	 3.39185978126995E-02 
355	 3.17727252323611E-02 
356	 3.09195117980723E-02 
357	 3.27856065363347E-02 
358	 3.28116510515366E-02 
359	 3.21180208256356E-02 
360	 3.31835735768276E-02 
361	 0.033632260105269 
362	 0.033036947106285 
363	 0.031907613387483 
364	 3.10730657167806E-02 
365	 3.10393196161965E-02 
366	 0.032055403505234 
367	 3.23897264851982E-02 
368	 2.98131506123034E-02 
369	 2.89475084230436E-02 
370	 2.99034389175812E-02 
371	 0.029033126808956 
372	 2.91562391234882E-02 
373	 0.031162247881105 
374	 3.06242879972986E-02 
375	 2.88447120266457E-02 
376	 2.82121334161009E-02 
377	 2.94132379678423E-02 
378	 3.13127925440979E-02 
379	 2.95850966657309E-02 
380	 2.83632246102987E-02 
381	 2.92849869466444E-02 
382	 2.81448940993248E-02 
383	 2.71148315815379E-02 
384	 2.93710025139845E-02 
385	 2.95628006059357E-02 
386	 2.78072629288835E-02 
387	 2.87910787213147E-02 
388	 2.89249252477759E-02 
389	 2.72016840898063E-02 
390	 2.77874958900151E-02 
391	 2.90917244947402E-02 
392	 2.89243492716441E-02 
393	 2.74968106918732E-02 
394	 2.57620712468272E-02 
395	 2.60712872817615E-02 
396	 2.67955376890094E-02 
397	 2.73225438984427E-02 
398	 2.87613474496142E-02 
399	 2.94076388591245E-02 
400	 0.027671221815936 
401	 2.66735119240425E-02 
402	 2.66148944830203E-02 
403	 2.64990886378437E-02 
404	 2.62294054805315E-02 
405	 2.57634971964177E-02 
406	 2.51777695555814E-02 
407	 2.50009088567309E-02 
408	 0.025828534302134 
409	 2.61161523883623E-02 
410	 2.57999891237401E-02 
411	 2.57271129495619E-02 
412	 2.60643028688617E-02 
413	 2.66573709551524E-02 
414	 2.59212984093176E-02 
415	 2.50306430097391E-02 
416	 2.56504104493641E-02 
417	 2.55733755468356E-02 
418	 2.47572199582922E-02 
419	 2.46543598299987E-02 
420	 2.48478303847863E-02 
421	 2.50555853768993E-02 
422	 0.024911117530808 
423	 2.47033623818321E-02 
424	 2.49129957419428E-02 
425	 2.50529540125263E-02 
426	 0.025038066398668 
427	 2.50454427609651E-02 
428	 0.024990296828736 
429	 0.024847850123272 
430	 2.48532907510446E-02 
431	 2.49228650341482E-02 
432	 2.48520985547016E-02 
433	 2.50166886257867E-02 
434	 2.53616936317904E-02 
435	 2.54500669361718E-02 
436	 2.50120761813953E-02 
437	 2.40592366998752E-02 
438	 2.43300999301328E-02 
439	 2.51435718466966E-02 
440	 2.48030542742985E-02 
441	 2.45214912007318E-02 
442	 2.45571547293102E-02 
443	 2.43966265047475E-02 
444	 2.44452383455589E-02 
445	 2.49632366417907E-02 
446	 0.024951243220938 
447	 0.024626120778434 
448	 2.48893100838255E-02 
449	 2.48103774836031E-02 
450	 2.43068461424834E-02 
451	 2.45420556794406E-02 
452	 2.49335239672422E-02 
453	 2.48593588670227E-02 
454	 2.47307365528809E-02 
455	 2.46563432157803E-02 
456	 2.47190936769802E-02 
457	 2.47780130467632E-02 
458	 2.47687861590274E-02 
459	 2.46863855613733E-02 
460	 2.46878941267131E-02 
461	 2.49461863873622E-02 
462	 2.50317099479968E-02 
463	 2.48982245848709E-02 
464	 2.46939619079371E-02 
465	 2.47011720926861E-02 
466	 2.50208976997823E-02 
467	 2.52004185106893E-02 
468	 2.51618056556725E-02 
469	 2.48799390571503E-02 
470	 2.47547431675967E-02 
471	 2.48681262269425E-02 
472	 2.50728163038826E-02 
473	 2.51895284432246E-02 
474	 2.51223722414846E-02 
475	 2.51134314084243E-02 
476	 2.52114181881273E-02 
477	 2.54555199529892E-02 
478	 2.54432111221158E-02 
479	 2.52047149753997E-02 
480	 2.54059758016012E-02 
481	 2.56576084328611E-02 
482	 2.56227244143502E-02 
483	 2.53087645874374E-02 
484	 2.49890061978319E-02 
485	 2.53284730118987E-02 
486	 2.55237953210204E-02 
487	 2.53507618194361E-02 
488	 2.53077614228543E-02 
489	 2.54753864148512E-02 
490	 2.58588635676958E-02 
491	 2.56572053475156E-02 
492	 2.51272028615576E-02 
493	 0.025410404240237 
494	 2.55835675187885E-02 
495	 2.53534842285303E-02 
496	 2.54872200154352E-02 
497	 2.58255576075234E-02 
498	 2.60763667686612E-02 
499	 2.61120620665125E-02 
500	 2.59847050550259E-02 
501	 2.59800440649471E-02 
502	 2.61548633191143E-02 
503	 2.64858302052743E-02 
504	 2.64786288736355E-02 
505	 2.63971929438039E-02 
506	 0.026796702531392 
507	 0.027036351941984 
508	 2.70046989787067E-02 
509	 2.70187698802136E-02 
510	 2.71190251719789E-02 
511	 2.73152341567295E-02 
512	 2.73584526653601E-02 
513	 2.73998716480941E-02 
514	 2.79319302280154E-02 
515	 2.82178763515989E-02 
516	 2.81672705442254E-02 
517	 2.89026894574914E-02 
518	 2.95766016599168E-02 
519	 2.92385345014905E-02 
520	 0.02908610219708 
521	 2.93156772786409E-02 
522	 2.97366462003139E-02 
523	 0.030148634138724 
524	 3.04315226423682E-02 
525	 3.05641646753772E-02 
526	 3.06508050059991E-02 
527	 3.08372867793469E-02 
528	 3.10299293595575E-02 
529	 0.031192021915645 
530	 3.12854224969724E-02 
531	 3.13829844604162E-02 
532	 3.15315889652167E-02 
533	 3.16724875437607E-02 
534	 3.18092816004053E-02 
535	 3.19736221485172E-02 
536	 3.20688286843096E-02 
537	 3.21055319702037E-02 
538	 3.22848653234141E-02 
539	 3.24705416795978E-02 
540	 0.032532279473123 
541	 3.27153015846221E-02 
542	 3.29604065468587E-02 
543	 3.29818652012801E-02 
544	 3.30301503467574E-02 
545	 3.31770686454793E-02 
546	 0.033178357336833 
547	 0.033115723254959 
548	 3.31199007680749E-02 
549	 3.33592784153947E-02 
550	 3.37491071562464E-02 
551	 3.38534604612988E-02 
552	 3.39635434149501E-02 
553	 3.42155305570377E-02 
554	 3.40887400272551E-02 
555	 3.39007113832647E-02 
556	 3.43889290271779E-02 
557	 3.46081395960708E-02 
558	 3.43689515815839E-02 
559	 3.43157582020872E-02 
560	 3.43394431490318E-02 
561	 3.43151054187871E-02 
562	 3.42524894139323E-02 
563	 3.41919170907849E-02 
564	 0.034237020597265 
565	 3.42944899493077E-02 
566	 0.034333645766928 
567	 3.44342921832075E-02 
568	 0.034506608645975 
569	 3.44316416656838E-02 
570	 3.43114058372598E-02 
571	 3.41828917571081E-02 
572	 3.40195264571634E-02 
573	 3.40910037282328E-02 
574	 3.44702338982844E-02 
575	 3.43164175194542E-02 
576	 3.38973472369103E-02 
577	 3.39078040909579E-02 
578	 3.40153919735458E-02 
579	 3.40920590189085E-02 
580	 3.40071891134425E-02 
581	 3.39424658450851E-02 
582	 3.40331541124978E-02 
583	 3.37761044629099E-02 
584	 3.33565831079473E-02 
585	 3.34831506196052E-02 
586	 3.35918828239183E-02 
587	 3.35231022386712E-02 
588	 3.37706729872072E-02 
589	 3.40250245486757E-02 
590	 3.38344702668616E-02 
591	 3.38731420457715E-02 
592	 3.41531130174838E-02 
593	 3.41693373373795E-02 
594	 3.41056183913288E-02 
595	 3.40798714815902E-02 
596	 0.034175321944171 
597	 3.42365231619929E-02 
598	 3.39594643258896E-02 
599	 0.033782698315855 
600	 3.38641358537902E-02 
601	 3.42868899048832E-02 
602	 3.44213130112486E-02 
603	 3.37929118280505E-02 
604	 3.36783362551748E-02 
605	 3.40336208640594E-02 
606	 3.41621788413075E-02 
607	 3.41242665840404E-02 
608	 3.39283239366982E-02 
609	 3.36586830237796E-02 
610	 3.35217127111994E-02 
611	 3.37493599177048E-02 
612	 3.37033346012232E-02 
613	 3.33872212100222E-02 
614	 3.33559282766918E-02 
615	 3.34986467775646E-02 
616	 3.36964305924686E-02 
617	 3.35332516161437E-02 
618	 3.32540440088781E-02 
619	 0.033387922241451 
620	 3.34794488105887E-02 
621	 0.033397174920915 
622	 3.31211524716938E-02 
623	 3.31496380337349E-02 
624	 3.38521392118827E-02 
625	 3.39686113403182E-02 
626	 3.35547730828644E-02 
627	 3.33860745589618E-02 
628	 3.33424622836198E-02 
629	 3.33711271854158E-02 
630	 3.32314938821004E-02 
631	 3.31118686733936E-02 
632	 3.32660718834063E-02 
633	 3.33293192714122E-02 
634	 3.32792979877234E-02 
635	 3.33052551236504E-02 
636	 3.35923952746448E-02 
637	 3.41090270670854E-02 
638	 3.36634423509265E-02 
639	 3.28566886691486E-02 
640	 3.30264684749857E-02 
641	 3.32803642648027E-02 
642	 3.32820729313667E-02 
643	 3.27837132452201E-02 
644	 0.032411487893027 
645	 3.26810592483857E-02 
646	 3.27366328264808E-02 
647	 3.25517257519237E-02 
648	 3.25185232252415E-02 
649	 3.23880088527089E-02 
650	 3.21597917512702E-02 
651	 3.23166719525466E-02 
652	 3.26529861724036E-02 
653	 3.28769945142637E-02 
654	 3.25663713011409E-02 
655	 3.18672310084233E-02 
656	 3.17591376348606E-02 
657	 3.17333269370421E-02 
658	 3.14944990316737E-02 
659	 3.12550122710188E-02 
660	 3.09794178059822E-02 
661	 0.030557267778683 
662	 3.04011760452828E-02 
663	 3.05334921425016E-02 
664	 3.05316053398024E-02 
665	 0.030320766902344 
666	 2.99057095087542E-02 
667	 3.00644481646383E-02 
668	 0.030436956706488 
669	 2.97140272690686E-02 
670	 2.95013807147603E-02 
671	 3.00816049882147E-02 
672	 2.94692381971055E-02 
673	 2.86556045626772E-02 
674	 2.89255765926791E-02 
675	 2.94823007513473E-02 
676	 2.99864498447961E-02 
677	 3.00328027152206E-02 
678	 0.029867010303839 
679	 2.97057576829071E-02 
680	 3.00142737085556E-02 
681	 3.05902508613153E-02 
682	 3.10231844097468E-02 
683	 0.031463147632335 
684	 0.031908750987905 
685	 3.22295585458221E-02 
686	 3.26946868266522E-02 
687	 3.35548528941899E-02 
688	 3.47715839519141E-02 
689	 3.59371408663575E-02 
690	 3.64503342923039E-02 
691	 0.036988223295528 
692	 3.78697276946563E-02 
693	 0.039310928485066 
694	 4.09770833205644E-02 
695	 4.24277909128414E-02 
696	 0.043579292654087 
697	 4.45063969014721E-02 
698	 4.53880524722416E-02 
699	 4.68269867249061E-02 
700	 4.89414141150583E-02 
701	 5.03772593253014E-02 
702	 5.13963687258553E-02 
703	 5.25920397364832E-02 
704	 5.39441411642596E-02 
705	 5.53403851180004E-02 
706	 5.62768675619358E-02 
707	 0.057272625059622 
708	 0.058617611773503 
709	 5.96943833871905E-02 
710	 6.07071784697873E-02 
711	 6.21954560920523E-02 
712	 6.37267836258261E-02 
713	 6.50230565235798E-02 
714	 6.55745239540455E-02 
715	 6.59695077120007E-02 
716	 6.68158808627297E-02 
717	 6.79391126980144E-02 
718	 0.069224075960545 
719	 0.070174714073001 
720	 7.09726947653228E-02 
721	 7.17046366548482E-02 
722	 7.26560036704486E-02 
723	 7.34675310710162E-02 
724	 7.36513888376172E-02 
725	 7.42545754148559E-02 
726	 7.52265286434008E-02 
727	 7.57006167709071E-02 
728	 7.62979140733507E-02 
729	 7.71896008861104E-02 
730	 7.73703102026132E-02 
731	 7.73412857114746E-02 
732	 7.79226496089605E-02 
733	 7.82776466315598E-02 
734	 7.84753268931298E-02 
735	 7.94045398420131E-02 
736	 8.02944493323152E-02 
737	 8.06185683778731E-02 
738	 8.08101359766676E-02 
739	 8.11007085376999E-02 
740	 8.18255732259506E-02 
741	 8.21612254249136E-02 
742	 8.20253351717909E-02 
743	 8.22171641313766E-02 
744	 8.26559067201312E-02 
745	 8.32095371824973E-02 
746	 0.083368921080712 
747	 8.32936911842432E-02 
748	 8.35625962903157E-02 
749	 0.084008876577336 
750	 0.084600976480449 
751	 8.54885396540902E-02 
752	 8.60528581979547E-02 
753	 8.56973152964917E-02 
754	 8.56875077656215E-02 
755	 8.61360245574168E-02 
756	 8.65571849910973E-02 
757	 8.68924438005927E-02 
758	 8.71513043354969E-02 
759	 8.77268200121129E-02 
760	 8.85731414139133E-02 
761	 8.84546967841299E-02 
762	 0.089024850725688 
763	 8.99415304774792E-02 
764	 8.93232780773274E-02 
765	 8.89657060008256E-02 
766	 8.93805707959691E-02 
767	 8.97053486786404E-02 
768	 8.99427016367039E-02 
769	 9.01553776012714E-02 
770	 9.06217256002165E-02 
771	 9.12592486772245E-02 
772	 9.15530672427016E-02 
773	 9.16583641397685E-02 
774	 9.17174275671628E-02 
775	 9.20110000689318E-02 
776	 9.23873199840884E-02 
777	 9.24809584885766E-02 
778	 9.27776795702192E-02 
779	 9.33286639283527E-02 
780	 9.37449303377607E-02 
781	 9.39578062866315E-02 
782	 0.093963060363057 
783	 9.42255891950935E-02 
784	 9.46230376952324E-02 
785	 9.47218784424685E-02 
786	 9.47888262349962E-02 
787	 9.49265651222158E-02 
788	 9.51351032827441E-02 
789	 9.55681492143998E-02 
790	 9.62895985796378E-02 
791	 9.62831269856887E-02 
792	 9.58730921230467E-02 
793	 9.63059553099284E-02 
794	 9.68123844587314E-02 
795	 9.71609492763403E-02 
796	 9.75994783437027E-02 
797	 0.097945872685161 
798	 9.80260071591169E-02 
799	 9.81374603044785E-02 
800	 9.82716170806544E-02 
801	 9.82170524121906E-02 
802	 9.81601022287416E-02 
803	 9.82384630328671E-02 
804	 9.86949403155968E-02 
805	 9.92866180070763E-02 
806	 9.97391938947794E-02 
807	 0.100297571618468 
808	 0.100823339775525 
809	 0.10075514831568 
810	 0.100833630842548 
811	 0.101363747197438 
812	 0.102009947226166 
813	 0.1023486964498 
814	 0.10189339493682 
815	 0.102285821512748 
816	 0.103442252488408 
817	 0.103597930522728 
818	 0.103918166235715 
819	 0.104644155324336 
820	 0.104273064496258 
821	 0.103535393102257 
822	 0.103416651553547 
823	 0.103990524894245 
824	 0.105011574963265 
825	 0.105805929706409 
826	 0.106382757346145 
827	 0.106747948549588 
828	 0.106995933572519 
829	 0.107048576849982 
830	 0.106823858428371 
831	 0.106959126021674 
832	 0.107431913045234 
833	 0.107717192862069 
834	 0.108115924624704 
835	 0.108614611629023 
836	 0.1084564718255 
837	 0.108193583624993 
838	 0.108502577490982 
839	 0.10896724033406 
840	 0.109543560670542 
841	 0.110537212840512 
842	 0.110599104172713 
843	 0.109514647771062 
844	 0.109767658262306 
845	 0.110406526651409 
846	 0.110165883102085 
847	 0.110223255399269 
848	 0.110548706815059 
849	 0.110341875512077 
850	 0.110308740962132 
851	 0.110694787684457 
852	 0.111166454406434 
853	 0.1113454221873 
854	 0.110913329579864 
855	 0.110778617400406 
856	 0.110992707064305 
857	 0.111100545370315 
858	 0.111763366635643 
859	 0.112791935917346 
860	 0.112133619705505 
861	 0.111391052964598 
862	 0.112104956511746 
863	 0.112378228194732 
864	 0.112227867337653 
865	 0.112488690779123 
866	 0.112978968304233 
867	 0.113682253568756 
868	 0.114748139041741 
869	 0.115636610497226 
870	 0.115915272839683 
871	 0.115714951908388 
872	 0.115644774947916 
873	 0.116810789361757 
874	 0.117689238732653 
875	 0.117926252031303 
876	 0.118198526550975 
877	 0.118566927835164 
878	 0.119063688083851 
879	 0.119616304973701 
880	 0.120023253745611 
881	 0.119987963752171 
882	 0.120219269881647 
883	 0.120714661610421 
884	 0.120721918554795 
885	 0.120659250269607 
886	 0.120861923401932 
887	 0.121767360683208 
888	 0.12303468043716 
889	 0.124144111606955 
890	 0.125131532575986 
891	 0.125688843453879 
892	 0.124789139077698 
893	 0.124454719362472 
894	 0.125451109614442 
895	 0.125597953205903 
896	 0.125650246610029 
897	 0.126592433557083 
898	 0.126067346849411 
899	 0.12498827101923 
900	 0.126910950582498 
901	 0.127704431815923 
902	 0.12667455997821 
903	 0.127284089610309 
904	 0.12799586047237 
905	 0.127612787387457 
906	 0.127326820623349 
907	 0.127235608996982 
908	 0.127165761597112 
909	 0.127924454474984 
910	 0.129319533533515 
911	 0.129911697900006 
912	 0.129546186395675 
913	 0.128332853154986 
914	 0.127275298869743 
915	 0.127506678102421 
916	 0.130039868409963 
917	 0.131900165682859 
918	 0.132174943492069 
919	 0.130348886701784 
920	 0.128658334687175 
921	 0.128398538814531 
922	 0.130947744664448 
923	 0.132974958978807 
924	 0.131595257581506 
925	 0.130305071185564 
926	 0.129820030031476 
927	 0.130385810080643 
928	 0.129688483546728 
929	 0.127396319160425 
930	 0.126443380509811 
931	 0.127966118060998 
932	 0.132473886096148 
933	 0.136007593781299 
934	 0.136445496092595 
935	 0.132333288300059 
936	 0.13099419403545 
937	 0.131066091228344 
938	 0.122836815852978 
939	 0.123097858473639 
940	 0.133330402078717 
941	 0.136495819303957 
942	 0.133365110241618 
943	 0.125808407206404 
944	 0.121911564314637 
945	 0.119679021503236 
946	 0.113750362754222 
947	 0.115613430193794 
948	 0.122950110090814 
949	 0.119133969287619 
950	 0.116551763778698 
951	 0.118520179557128 
952	 0.112215224260507 
953	 0.107637917519119 
954	 0.113780145075586 
955	 0.116387200827509 
956	 0.114887678280162 
957	 0.112406045239772 
958	 0.111892841884158 
959	 0.112991356679473 
960	 0.110674903827232 
961	 0.11118725753038 
962	 0.116114276473786 
963	 0.117375538248204 
964	 0.117623772484801 
965	 0.119489066101711 
966	 0.114035392927967 
967	 0.106675447081739 
968	 0.110604191797687 
969	 0.112597231789074 
970	 0.110463501811073 
971	 0.110051639331581 
972	 0.111488974128678 
973	 0.114273923505416 
974	 0.114907812462279 
975	 0.114720452221278 
976	 0.115409606784856 
977	 0.113702930971818 
978	 0.11067344434685 
979	 0.109571870556203 
980	 0.110511125907319 
981	 0.112422650769402 
982	 0.111059330788671 
983	 0.110284462358954 
984	 0.112206260272507 
985	 0.115588521778728 
986	 0.118752543725948 
987	 0.120081359379635 
988	 0.120902500989234 
989	 0.121602499180224 
990	 0.122552607448255 
991	 0.121812171592382 
992	 0.118603211283124 
993	 0.111396514862287 
994	 0.109777631245812 
995	 0.116920498445642 
996	 0.120752017112653 
997	 0.120167965628899 
998	 0.115976097139538 
999	 0.118758429863626 
1000	 0.123368374870052 
1001	 0.117786267767605 
1002	 0.113305409379353 
1003	 0.11368749918501 
1004	 0.120994324226844 
1005	 0.126215117347858 
1006	 0.125462330349909 
1007	 0.121061338887201 
1008	 0.119121292283249 
1009	 0.123695705936975 
1010	 0.12684977171443 
1011	 0.127120002964527 
1012	 0.124398145689335 
1013	 0.127275711766626 
1014	 0.133427159449669 
1015	 0.131923767594008 
1016	 0.134849722819662 
1017	 0.142195371589695 
1018	 0.138758090997338 
1019	 0.132256763944284 
1020	 0.128727376869457 
1021	 0.13303489952766 
1022	 0.135743750990055 
1023	 0.128098102460581 
1024	 0.125673557964211 
1025	 0.126896858118323 
1026	 0.12447060823993 
1027	 0.130053987093482 
1028	 0.141919459686578 
1029	 0.149356247557893 
1030	 0.148079330040203 
1031	 0.138902855660325 
1032	 0.134587754427598 
1033	 0.132231163691187 
1034	 0.130510222778067 
1035	 0.132616930649577 
1036	 0.136232485953787 
1037	 0.139025187289154 
1038	 0.146317596151727 
1039	 0.155000927999332 
1040	 0.157798849074905 
1041	 0.155694484026905 
1042	 0.150984112818838 
1043	 0.149379165304253 
1044	 0.14536135159614 
1045	 0.141294099578694 
1046	 0.154528692083936 
1047	 0.16286172428067 
1048	 0.155106771681357 
1049	 0.14621801759709 
1050	 0.143533413368939 
1051	 0.15216780520305 
1052	 0.164597052889719 
1053	 0.16808443495571 
1054	 0.147763768696224 
1055	 0.13386368804817 
1056	 0.135350928668896 
1057	 0.153732989678281 
1058	 0.151750452799309 
1059	 0.13125857649587 
1060	 0.144110098502589 
1061	 0.147723615730854 
1062	 0.130553873678835 
1063	 0.139079273875715 
1064	 0.154604884851693 
1065	 0.159218559645544 
1066	 0.146208810147054 
1067	 0.125146930158247 
1068	 0.112185092830518 
1069	 0.135656597131572 
1070	 0.165979350365514 
1071	 0.150498182893112 
1072	 0.136992668095618 
1073	 0.135652114425243 
1074	 0.142843629168621 
1075	 0.149648395052614 
