Wavelength	AVEI200114.asd
325	 3.61608191535472E-02 
326	 3.70091498707132E-02 
327	 2.88871692815127E-02 
328	 2.55405103088205E-02 
329	 2.80050708089769E-02 
330	 3.47956351799089E-02 
331	 3.78050919672819E-02 
332	 3.63218024082283E-02 
333	 3.06734882182424E-02 
334	 2.94621599155253E-02 
335	 3.15723360224233E-02 
336	 0.031314630849398 
337	 0.027301838594128 
338	 0.021910504982824 
339	 2.83681119900261E-02 
340	 3.45900787063773E-02 
341	 3.13058304879092E-02 
342	 2.99354158750405E-02 
343	 3.08292916573114E-02 
344	 3.12354155033922E-02 
345	 3.10738885581162E-02 
346	 3.05756760820096E-02 
347	 3.09780183050499E-02 
348	 3.14978135222308E-02 
349	 3.14981155447645E-02 
350	 3.03928596167077E-02 
351	 2.91708345398776E-02 
352	 2.94440172319728E-02 
353	 2.93808350258086E-02 
354	 2.92054545285295E-02 
355	 3.17794381219186E-02 
356	 3.25233042276908E-02 
357	 2.94650667116427E-02 
358	 0.029950481153125 
359	 3.16017180412561E-02 
360	 2.95670383810913E-02 
361	 2.94885845406181E-02 
362	 3.13550983111267E-02 
363	 3.04177256455756E-02 
364	 2.96442918719377E-02 
365	 3.04258154147968E-02 
366	 0.030793594180527 
367	 3.06096127120183E-02 
368	 2.99651177355369E-02 
369	 2.95198432779059E-02 
370	 2.95031659796803E-02 
371	 3.01465336634606E-02 
372	 3.02758022582252E-02 
373	 2.92623904120663E-02 
374	 2.75130240562288E-02 
375	 2.63221249161488E-02 
376	 0.02726580322203 
377	 2.75423692771333E-02 
378	 2.68693509465501E-02 
379	 0.026651990936626 
380	 2.69905106439127E-02 
381	 2.78624695676585E-02 
382	 0.028671257474044 
383	 2.93461618352781E-02 
384	 2.98844884702924E-02 
385	 2.91010867400575E-02 
386	 2.76223022370092E-02 
387	 2.81096129626367E-02 
388	 2.91318529298984E-02 
389	 2.96951624767373E-02 
390	 2.83188756781877E-02 
391	 2.67897847160027E-02 
392	 2.72319899434308E-02 
393	 2.85462534670361E-02 
394	 2.97149370718801E-02 
395	 2.87081843797567E-02 
396	 2.76351080103869E-02 
397	 2.73908494888721E-02 
398	 2.72164249016707E-02 
399	 2.74380700594297E-02 
400	 2.83787060586669E-02 
401	 2.82661646489133E-02 
402	 2.73910165713915E-02 
403	 2.71891907435249E-02 
404	 2.72645334893862E-02 
405	 2.73768946200455E-02 
406	 0.026971478523239 
407	 0.026657589092979 
408	 2.72159749599948E-02 
409	 2.72618593023803E-02 
410	 2.67801505478596E-02 
411	 2.66255143493064E-02 
412	 2.66663301723526E-02 
413	 2.68138752632212E-02 
414	 2.69043922690483E-02 
415	 2.68302086937108E-02 
416	 2.64857511029628E-02 
417	 2.64363620816053E-02 
418	 2.66900175929865E-02 
419	 0.026849309799447 
420	 2.68791584808855E-02 
421	 2.67646289481163E-02 
422	 2.66005731261114E-02 
423	 0.026463731038765 
424	 2.64394192943937E-02 
425	 2.63393331082892E-02 
426	 0.026273473258391 
427	 2.68485828765377E-02 
428	 2.72387323604809E-02 
429	 2.69864699583792E-02 
430	 2.71334513409469E-02 
431	 2.73294314486913E-02 
432	 2.67639391060583E-02 
433	 2.63588837229923E-02 
434	 2.63082656827832E-02 
435	 2.62767094378233E-02 
436	 2.63215682943862E-02 
437	 2.64578163150178E-02 
438	 2.65057563419384E-02 
439	 2.64179702482126E-02 
440	 2.61331291813688E-02 
441	 2.60799295547098E-02 
442	 2.63165311703992E-02 
443	 2.65059806049086E-02 
444	 2.64312107855333E-02 
445	 2.60074463347178E-02 
446	 2.62494195680408E-02 
447	 2.67907500585069E-02 
448	 2.63786595869024E-02 
449	 2.63909202468772E-02 
450	 2.70277245907937E-02 
451	 2.68585974131711E-02 
452	 2.65795512780388E-02 
453	 2.69135899098156E-02 
454	 2.69409372025865E-02 
455	 2.66769052953703E-02 
456	 2.66236738723827E-02 
457	 2.67832318102054E-02 
458	 2.70555166611308E-02 
459	 2.67560004287217E-02 
460	 0.026457259680488 
461	 2.68756062331894E-02 
462	 0.026873328949136 
463	 0.026516391048169 
464	 2.68614846616991E-02 
465	 2.71327504453367E-02 
466	 2.69357479122141E-02 
467	 2.64931296177718E-02 
468	 2.61643525978102E-02 
469	 2.64243820791817E-02 
470	 2.65251494795608E-02 
471	 2.64407613621981E-02 
472	 2.68887578085136E-02 
473	 2.71230155548981E-02 
474	 2.67562800566073E-02 
475	 2.68230763338289E-02 
476	 2.70489558519898E-02 
477	 2.66904694506149E-02 
478	 2.65662494816134E-02 
479	 2.67643681876604E-02 
480	 2.65938050228766E-02 
481	 2.64186162473513E-02 
482	 2.65287639046882E-02 
483	 0.026554043339305 
484	 0.026568215882128 
485	 2.68986362493222E-02 
486	 2.72493955025136E-02 
487	 2.74398255966281E-02 
488	 2.72092288469762E-02 
489	 2.69657189086101E-02 
490	 0.027117567186242 
491	 2.70393112298052E-02 
492	 0.026840498281535 
493	 2.71908836601462E-02 
494	 2.73118077492561E-02 
495	 0.026989983080987 
496	 0.027141422019276 
497	 0.027559927806868 
498	 2.78723353531418E-02 
499	 2.77209061188629E-02 
500	 2.73150491297546E-02 
501	 2.77102042986461E-02 
502	 2.80942863383031E-02 
503	 2.80155232063634E-02 
504	 2.80523005967465E-02 
505	 2.83154707309097E-02 
506	 2.88772209839675E-02 
507	 2.92307936425574E-02 
508	 2.92942991209257E-02 
509	 2.93671713108371E-02 
510	 0.029678183492712 
511	 3.03598070431971E-02 
512	 3.08789888487295E-02 
513	 0.031121619476033 
514	 3.10243763235986E-02 
515	 3.10390366317825E-02 
516	 3.13733479014236E-02 
517	 0.032019682962339 
518	 3.26506195947546E-02 
519	 3.29252284792816E-02 
520	 3.33057767127562E-02 
521	 3.39077312869205E-02 
522	 3.48622388577131E-02 
523	 3.54286076289338E-02 
524	 3.53729459903001E-02 
525	 3.56339717853234E-02 
526	 3.60910593182874E-02 
527	 3.64191084889169E-02 
528	 3.68478114926275E-02 
529	 3.73255079325797E-02 
530	 0.037489662915272 
531	 3.77544748787556E-02 
532	 3.83564241566259E-02 
533	 3.87680861855641E-02 
534	 3.90038912336953E-02 
535	 3.92513572284221E-02 
536	 0.039469464076503 
537	 0.039653996215884 
538	 3.97854739078873E-02 
539	 3.99636791454822E-02 
540	 0.040275336198041 
541	 4.05581697677533E-02 
542	 4.07469176562096E-02 
543	 4.07317318599226E-02 
544	 0.040917912652532 
545	 4.13893518485018E-02 
546	 4.14976986183317E-02 
547	 4.14222380148099E-02 
548	 4.14727023315822E-02 
549	 4.17659123916747E-02 
550	 4.21775380511398E-02 
551	 4.21532271675277E-02 
552	 4.21561318649748E-02 
553	 4.24535785369077E-02 
554	 4.26929114249861E-02 
555	 4.27468741625424E-02 
556	 4.24476802083805E-02 
557	 4.23987591638426E-02 
558	 4.27036327583826E-02 
559	 4.28289736663761E-02 
560	 0.042777747570774 
561	 4.25935964653626E-02 
562	 4.25164832437156E-02 
563	 4.25752297553183E-02 
564	 4.27405449536654E-02 
565	 4.27372614360504E-02 
566	 4.24582534025029E-02 
567	 4.20799586926823E-02 
568	 4.17992252573014E-02 
569	 4.18345617390581E-02 
570	 4.16637051072493E-02 
571	 4.12851180794293E-02 
572	 0.041173275968119 
573	 4.10875418657607E-02 
574	 0.040901435526238 
575	 4.08763162308841E-02 
576	 4.08422049153223E-02 
577	 4.04236010395285E-02 
578	 4.00980139796185E-02 
579	 0.040027307068666 
580	 4.01642324542058E-02 
581	 4.03067101464368E-02 
582	 4.02667074484258E-02 
583	 3.99674428545596E-02 
584	 3.96022045624994E-02 
585	 3.96813609403585E-02 
586	 3.98460603714338E-02 
587	 3.99100710811627E-02 
588	 3.96989717121566E-02 
589	 3.93915614479245E-02 
590	 3.92550757165694E-02 
591	 3.91944937757115E-02 
592	 3.91782887695898E-02 
593	 0.039184803055608 
594	 3.91228930225781E-02 
595	 3.89544343660104E-02 
596	 0.038866859086775 
597	 3.87914280873984E-02 
598	 3.85328349093279E-02 
599	 3.86435086787106E-02 
600	 3.90828172065442E-02 
601	 3.89107777966463E-02 
602	 3.85881287246575E-02 
603	 3.85447353809504E-02 
604	 0.038475231720474 
605	 3.84114440352914E-02 
606	 3.85999003944637E-02 
607	 3.85960371263475E-02 
608	 3.82693205661884E-02 
609	 3.80461168945504E-02 
610	 3.79134265164514E-02 
611	 3.78026096124154E-02 
612	 3.77258868151603E-02 
613	 3.76598473963508E-02 
614	 0.037533354532033 
615	 3.74208951511977E-02 
616	 3.73605543466352E-02 
617	 3.72515280866011E-02 
618	 3.71541833103447E-02 
619	 0.037211618027545 
620	 3.70563736746313E-02 
621	 3.66753067280894E-02 
622	 0.036500236949654 
623	 3.64829714827211E-02 
624	 3.65690054483316E-02 
625	 3.68548839898445E-02 
626	 3.70859245124086E-02 
627	 3.65698485738567E-02 
628	 3.61176684007446E-02 
629	 3.60876861013511E-02 
630	 3.63901621674158E-02 
631	 3.66793774870952E-02 
632	 3.65470438362841E-02 
633	 3.65584738839062E-02 
634	 3.67637266365761E-02 
635	 3.69468023608469E-02 
636	 3.67157122285122E-02 
637	 3.59449234783662E-02 
638	 3.56579314287445E-02 
639	 3.56845430699316E-02 
640	 3.54725611923299E-02 
641	 3.51586145850466E-02 
642	 3.48282401145417E-02 
643	 3.47422644094944E-02 
644	 3.45908980358979E-02 
645	 3.41145954552025E-02 
646	 3.37469943861422E-02 
647	 0.033549406195019 
648	 3.34383966011188E-02 
649	 3.34395379840059E-02 
650	 3.34919470100155E-02 
651	 3.32738411613044E-02 
652	 3.29866077905912E-02 
653	 3.28949426583567E-02 
654	 3.27195273995947E-02 
655	 3.25068333063068E-02 
656	 3.27255228469588E-02 
657	 3.26946191374955E-02 
658	 3.21149772985914E-02 
659	 0.031905692384747 
660	 0.031891851493063 
661	 0.031626289404947 
662	 0.03137938478647 
663	 3.11995114781618E-02 
664	 3.09751030265377E-02 
665	 3.07801188761192E-02 
666	 3.06643557989572E-02 
667	 3.04400363827491E-02 
668	 3.01258393214145E-02 
669	 2.97785744603786E-02 
670	 2.98054921227467E-02 
671	 3.02136685652881E-02 
672	 3.00736118009674E-02 
673	 2.98068604357641E-02 
674	 2.99740532395432E-02 
675	 3.01740255569831E-02 
676	 3.02925253915215E-02 
677	 0.030204157996726 
678	 3.04156745940189E-02 
679	 3.10829389315492E-02 
680	 3.11631919202686E-02 
681	 3.10048333052594E-02 
682	 3.13535086777621E-02 
683	 3.17566991257374E-02 
684	 3.22115337846106E-02 
685	 3.32142461401594E-02 
686	 3.43566340590687E-02 
687	 3.52610305105208E-02 
688	 3.62357974147707E-02 
689	 3.72997771770051E-02 
690	 3.85722229899978E-02 
691	 3.97680890106705E-02 
692	 0.040974750829054 
693	 4.28069730641985E-02 
694	 4.51163855143967E-02 
695	 0.04757740713978 
696	 0.049693164107519 
697	 5.16039920566736E-02 
698	 0.054072986704234 
699	 5.67590813267133E-02 
700	 0.059469985678254 
701	 6.23068356547561E-02 
702	 6.49840900463347E-02 
703	 6.71302543441869E-02 
704	 6.96818524657881E-02 
705	 7.27085423645892E-02 
706	 7.55004652786454E-02 
707	 7.81060686860887E-02 
708	 8.05760663704631E-02 
709	 8.31913922804014E-02 
710	 8.58080382186114E-02 
711	 8.81051141643449E-02 
712	 9.02988727466518E-02 
713	 9.24971649871363E-02 
714	 9.49554006634694E-02 
715	 9.72105746015552E-02 
716	 9.89379403392868E-02 
717	 0.100630468600223 
718	 0.10254222701257 
719	 0.10466723632689 
720	 0.106864955380168 
721	 0.108810658596959 
722	 0.110108784876339 
723	 0.111359823141826 
724	 0.113108367199993 
725	 0.114419348375786 
726	 0.11532601458162 
727	 0.117004408577954 
728	 0.118631373373724 
729	 0.11979202184429 
730	 0.120717926814407 
731	 0.121537926126555 
732	 0.122383386224482 
733	 0.123256314308895 
734	 0.124145415984391 
735	 0.124914754849879 
736	 0.125743790031986 
737	 0.12669347943736 
738	 0.127468811855714 
739	 0.128119345960012 
740	 0.128822647860607 
741	 0.12938169541737 
742	 0.129773328873198 
743	 0.130109790031685 
744	 0.130622352519063 
745	 0.131464321077451 
746	 0.132021792277186 
747	 0.132357010979972 
748	 0.13291892442797 
749	 0.133390856968649 
750	 0.133691868111176 
751	 0.13401578106798 
752	 0.134298238945643 
753	 0.134469129514222 
754	 0.134773987547295 
755	 0.135211058577463 
756	 0.135664021011914 
757	 0.135918844207292 
758	 0.135904572003483 
759	 0.135794522832465 
760	 0.13618913989604 
761	 0.138322995026071 
762	 0.138829188108243 
763	 0.13793101270546 
764	 0.138508659776745 
765	 0.139472532172957 
766	 0.140231849873128 
767	 0.1402151088486 
768	 0.140019266834122 
769	 0.14031276320198 
770	 0.140862043688287 
771	 0.141466634669394 
772	 0.141594176725341 
773	 0.141679545833473 
774	 0.142008808924793 
775	 0.142345430726717 
776	 0.142668079233578 
777	 0.14298784331288 
778	 0.143513015441121 
779	 0.144107010588016 
780	 0.143922581311544 
781	 0.14382958709139 
782	 0.144497289811468 
783	 0.145179433659115 
784	 0.145636558483221 
785	 0.14563694277476 
786	 0.145668702365268 
787	 0.145861714977141 
788	 0.145863928924544 
789	 0.146009265325141 
790	 0.146563815239042 
791	 0.146588419055669 
792	 0.146397955315207 
793	 0.147282041140557 
794	 0.14759061101735 
795	 0.147003633603746 
796	 0.147110255120499 
797	 0.147507173266141 
798	 0.147715027974879 
799	 0.148327441482515 
800	 0.149038732566208 
801	 0.148689269875987 
802	 0.148593651212011 
803	 0.149161571024336 
804	 0.149487572752221 
805	 0.149731494367547 
806	 0.150131785922105 
807	 0.150523659958714 
808	 0.150863413792531 
809	 0.151107574874538 
810	 0.15140251230587 
811	 0.151752930207203 
812	 0.15172681135383 
813	 0.15160388232704 
814	 0.151816410097662 
815	 0.15244695724073 
816	 0.153372424626898 
817	 0.154197785393041 
818	 0.154512272484305 
819	 0.154351049417449 
820	 0.155000458385811 
821	 0.155646351222365 
822	 0.155265106352792 
823	 0.155878086106526 
824	 0.157284033015543 
825	 0.15778968308361 
826	 0.157610707439379 
827	 0.157005003543606 
828	 0.15705298174656 
829	 0.157743625928266 
830	 0.158852766110401 
831	 0.159260325234488 
832	 0.159083531557632 
833	 0.159447235963932 
834	 0.159929098987114 
835	 0.160313231275655 
836	 0.160350475950039 
837	 0.160365610500288 
838	 0.160746174652287 
839	 0.161578100601972 
840	 0.162400233348133 
841	 0.161772385151367 
842	 0.161741628263151 
843	 0.162896124134576 
844	 0.16308007811277 
845	 0.16285202245398 
846	 0.163035695719345 
847	 0.163501356831905 
848	 0.16392311254113 
849	 0.163383164308472 
850	 0.162985717920543 
851	 0.163185446433671 
852	 0.163635719790245 
853	 0.163944098008578 
854	 0.163771977849923 
855	 0.164152921688451 
856	 0.164829667110412 
857	 0.164594154852114 
858	 0.164716385556382 
859	 0.165415460485523 
860	 0.165414683291662 
861	 0.165581326615176 
862	 0.166643345163696 
863	 0.165910971649678 
864	 0.164668010745076 
865	 0.167264097824029 
866	 0.168401605140181 
867	 0.167031882762752 
868	 0.167439122450521 
869	 0.168150394248883 
870	 0.167963559967342 
871	 0.16871796969695 
872	 0.169833329512292 
873	 0.169718287060887 
874	 0.169083035916283 
875	 0.168720024690088 
876	 0.170919281517928 
877	 0.172658147395743 
878	 0.172052234136439 
879	 0.172698974242392 
880	 0.174048309632994 
881	 0.174411881714758 
882	 0.174898476829846 
883	 0.175777144548331 
884	 0.177217244233493 
885	 0.177297804673013 
886	 0.175557867475836 
887	 0.176773064676994 
888	 0.179358608350897 
889	 0.180491934797443 
890	 0.180006940348435 
891	 0.178536083818028 
892	 0.178304287832285 
893	 0.178677849066656 
894	 0.179207413881911 
895	 0.178598502398977 
896	 0.178007984769209 
897	 0.178919016999249 
898	 0.179456030523843 
899	 0.179976289507282 
900	 0.182620858512772 
901	 0.183088683184105 
902	 0.181141944673727 
903	 0.182600750761297 
904	 0.183959719231347 
905	 0.182654690982098 
906	 0.182572439462018 
907	 0.183564631269961 
908	 0.184363355351001 
909	 0.184876935514004 
910	 0.184885328483746 
911	 0.183970767120331 
912	 0.183262473652435 
913	 0.183521648567347 
914	 0.184760809718394 
915	 0.185818915619812 
916	 0.185369769914878 
917	 0.185014229422653 
918	 0.185136643878141 
919	 0.185758540298849 
920	 0.186492226228116 
921	 0.187117331423602 
922	 0.187645457797217 
923	 0.18713031305353 
924	 0.184969089441277 
925	 0.184936928502221 
926	 0.185449744407293 
927	 0.181309561880726 
928	 0.179345422430049 
929	 0.181121391953204 
930	 0.180423906908427 
931	 0.177650077145879 
932	 0.173993815285661 
933	 0.177384649414586 
934	 0.182007737303768 
935	 0.177370149771994 
936	 0.173363400920134 
937	 0.172296114593597 
938	 0.173255145029273 
939	 0.174827259906142 
940	 0.175304552504983 
941	 0.169542271015896 
942	 0.168761758531627 
943	 0.178830462116236 
944	 0.176231453457546 
945	 0.168052757659274 
946	 0.170262602161859 
947	 0.171622918423362 
948	 0.169874798261541 
949	 0.167143356311213 
950	 0.16266745257362 
951	 0.157621232787348 
952	 0.159725072750714 
953	 0.161323636420958 
954	 0.156413819350251 
955	 0.16252952068163 
956	 0.171413135017356 
957	 0.163890752636839 
958	 0.159906273662219 
959	 0.161922525008789 
960	 0.159717355937011 
961	 0.157572185812188 
962	 0.157699867361827 
963	 0.160048759037545 
964	 0.162963745597274 
965	 0.164851339622681 
966	 0.164423445561266 
967	 0.162147587980807 
968	 0.159128882009235 
969	 0.15836788915266 
970	 0.16052891205462 
971	 0.165242950219217 
972	 0.165130121080289 
973	 0.158041146648145 
974	 0.157714950700897 
975	 0.162108466535191 
976	 0.16697997978181 
977	 0.166668702624284 
978	 0.163475910173657 
979	 0.1652435720036 
980	 0.16319730763335 
981	 0.158389245823275 
982	 0.163976150961952 
983	 0.169695121722909 
984	 0.169724026893421 
985	 0.165477569500805 
986	 0.162759119418183 
987	 0.167072056614302 
988	 0.168546836766068 
989	 0.167723979040367 
990	 0.169428063764956 
991	 0.16813302727627 
992	 0.165101408697835 
993	 0.170484428483416 
994	 0.174801691530795 
995	 0.173251560188777 
996	 0.168215059625462 
997	 0.16554458155353 
998	 0.169969096322229 
999	 0.170987099776286 
1000	 0.169865696914362 
1001	 0.171943346446731 
1002	 0.173340421903316 
1003	 0.173559384354614 
1004	 0.174214388561235 
1005	 0.174718291021303 
1006	 0.175890531773388 
1007	 0.183154864772015 
1008	 0.18798595783069 
1009	 0.18395636244447 
1010	 0.176810436021216 
1011	 0.170587458720222 
1012	 0.169634440390449 
1013	 0.173808900531777 
1014	 0.180730752278679 
1015	 0.185402665905725 
1016	 0.186506584854874 
1017	 0.184130517949044 
1018	 0.181418166171091 
1019	 0.178318955689123 
1020	 0.17623127606127 
1021	 0.183275823798858 
1022	 0.187400126834716 
1023	 0.178230098760676 
1024	 0.183091755173218 
1025	 0.194361119337647 
1026	 0.192425908262322 
1027	 0.183036524711459 
1028	 0.174646628458819 
1029	 0.188449562805038 
1030	 0.196402860195029 
1031	 0.189658213140732 
1032	 0.177874889024311 
1033	 0.177397560267301 
1034	 0.19507435171872 
1035	 0.203736386627009 
1036	 0.203179820496315 
1037	 0.197116944962616 
1038	 0.195330159034031 
1039	 0.195977768453552 
1040	 0.192402238162062 
1041	 0.192853276272833 
1042	 0.197191945918958 
1043	 0.199506409623602 
1044	 0.194249526543964 
1045	 0.18490339099529 
1046	 0.196321844866576 
1047	 0.202361714067731 
1048	 0.190586853772316 
1049	 0.185067713343759 
1050	 0.186171087664691 
1051	 0.191438009556863 
1052	 0.196935418225144 
1053	 0.200760217556437 
1054	 0.200830654032868 
1055	 0.186285688733874 
1056	 0.170233897655643 
1057	 0.191335443448891 
1058	 0.20261996033668 
1059	 0.196086866140446 
1060	 0.198735021606164 
1061	 0.195755267045013 
1062	 0.18167214737287 
1063	 0.161467513592468 
1064	 0.156921985355154 
1065	 0.17704516255645 
1066	 0.17474967263265 
1067	 0.1645600527797 
1068	 0.167401641056063 
1069	 0.166164908975614 
1070	 0.169825226852849 
1071	 0.195239602278228 
1072	 0.20151782968539 
1073	 0.185877017521194 
1074	 0.164706434698568 
1075	 0.181035736060328 
