Wavelength	AVEI200288.asd
325	 3.76954618222301E-02 
326	 3.66403005945709E-02 
327	 2.77436871629756E-02 
328	 2.80827725799065E-02 
329	 0.031020893838138 
330	 3.45115822704042E-02 
331	 0.042457953465036 
332	 4.75001369809591E-02 
333	 4.29382042482531E-02 
334	 3.56086509295955E-02 
335	 3.01039119804401E-02 
336	 3.41982137637194E-02 
337	 3.46433234888487E-02 
338	 3.04199773193261E-02 
339	 3.76938697765432E-02 
340	 0.043801669857305 
341	 3.88748242002797E-02 
342	 3.36417439944175E-02 
343	 3.04079228546503E-02 
344	 2.97670200819305E-02 
345	 3.17553230947385E-02 
346	 3.44055119074526E-02 
347	 3.12002504658791E-02 
348	 2.82009081192147E-02 
349	 0.029083557773262 
350	 2.79625099265136E-02 
351	 2.66083438112518E-02 
352	 2.88992343355718E-02 
353	 0.031084431230766 
354	 3.19369281335098E-02 
355	 0.030737510769865 
356	 3.01381181012302E-02 
357	 0.031366065498357 
358	 3.06492657455406E-02 
359	 2.93277160882875E-02 
360	 2.99954663616449E-02 
361	 3.03649784949622E-02 
362	 3.02518983604183E-02 
363	 3.10528467024901E-02 
364	 3.13318520183637E-02 
365	 3.05376392473486E-02 
366	 3.06296797729035E-02 
367	 3.02600082406928E-02 
368	 2.74020675494561E-02 
369	 2.67524550367601E-02 
370	 0.028241216957713 
371	 2.77059399165344E-02 
372	 2.78040644789769E-02 
373	 2.94662065810201E-02 
374	 2.91563790039937E-02 
375	 2.81149591129237E-02 
376	 2.84907318519464E-02 
377	 2.92703643373549E-02 
378	 0.029839505767706 
379	 0.029091717875986 
380	 2.79566780933574E-02 
381	 2.70674495576656E-02 
382	 2.68814301785757E-02 
383	 2.70008685379388E-02 
384	 0.026857489234801 
385	 2.66942404040313E-02 
386	 2.65752925929548E-02 
387	 2.66767275107598E-02 
388	 0.026023117073127 
389	 2.47285717693279E-02 
390	 2.61671149205855E-02 
391	 2.80295625308701E-02 
392	 2.74452711351325E-02 
393	 2.59826882565286E-02 
394	 2.46799044717939E-02 
395	 2.53285205301427E-02 
396	 2.59496151704313E-02 
397	 2.59061983441116E-02 
398	 2.70521072022333E-02 
399	 2.76097820866733E-02 
400	 2.58227296403317E-02 
401	 2.46914122901132E-02 
402	 2.46017880361083E-02 
403	 2.50758406686268E-02 
404	 0.025535692221725 
405	 2.56305056322883E-02 
406	 2.49056529549138E-02 
407	 2.43555816267601E-02 
408	 0.02518916569582 
409	 2.52374505995195E-02 
410	 2.44609812741634E-02 
411	 2.41180807872362E-02 
412	 2.43045705325732E-02 
413	 2.48428788803197E-02 
414	 2.41499632334297E-02 
415	 2.34755375316061E-02 
416	 2.45792160700856E-02 
417	 2.48709945133875E-02 
418	 2.41710963618214E-02 
419	 2.38288968373876E-02 
420	 0.023789859060627 
421	 2.39735002255628E-02 
422	 2.38706758015917E-02 
423	 2.36910249952833E-02 
424	 2.38353896626506E-02 
425	 0.023609248227797 
426	 2.31813919843568E-02 
427	 2.38362501325284E-02 
428	 2.43102642304957E-02 
429	 2.38446859140324E-02 
430	 2.33783039611822E-02 
431	 2.31529489362557E-02 
432	 2.33096970510517E-02 
433	 2.39896622816503E-02 
434	 2.47878584307471E-02 
435	 2.43399886154831E-02 
436	 2.35667377584519E-02 
437	 2.31461716580478E-02 
438	 2.32398730035353E-02 
439	 2.35131917114134E-02 
440	 2.32937239220068E-02 
441	 2.31884359557859E-02 
442	 2.33486711394299E-02 
443	 2.36561731056708E-02 
444	 2.37726186289791E-02 
445	 2.34820173575824E-02 
446	 2.34932598453385E-02 
447	 2.37225892471524E-02 
448	 2.37145085208769E-02 
449	 0.023695287509876 
450	 2.37158991133262E-02 
451	 2.36594151848651E-02 
452	 2.36902767649825E-02 
453	 2.39508307833792E-02 
454	 0.023974333209329 
455	 2.37836385324941E-02 
456	 2.36907241683495E-02 
457	 2.37043526282203E-02 
458	 2.37877674076449E-02 
459	 2.36121318259078E-02 
460	 2.34685322424347E-02 
461	 2.37149977649324E-02 
462	 2.36429204535967E-02 
463	 2.32889178077529E-02 
464	 2.32424757256462E-02 
465	 2.33979960190826E-02 
466	 2.36939054031064E-02 
467	 2.40427697792322E-02 
468	 2.42802690765036E-02 
469	 2.42039331880005E-02 
470	 2.40614381531624E-02 
471	 2.39730951715283E-02 
472	 2.40822166379698E-02 
473	 2.41535798972794E-02 
474	 2.40429354109312E-02 
475	 2.38601451423386E-02 
476	 2.38129628826391E-02 
477	 2.42504628339704E-02 
478	 2.43794810392965E-02 
479	 2.41105515280591E-02 
480	 2.41681416220289E-02 
481	 2.42273755140797E-02 
482	 2.40302330759301E-02 
483	 2.38826561056753E-02 
484	 0.023856730161626 
485	 2.39967557937339E-02 
486	 2.41811561347279E-02 
487	 2.42902756747319E-02 
488	 2.39926349658633E-02 
489	 2.38415521898647E-02 
490	 2.43665093495071E-02 
491	 2.45447668278154E-02 
492	 2.43909417486901E-02 
493	 2.45860776845119E-02 
494	 2.43915603338114E-02 
495	 2.37121847889292E-02 
496	 2.39737461467636E-02 
497	 2.45599711312979E-02 
498	 2.45125266162041E-02 
499	 2.44828361300448E-02 
500	 2.45638401921791E-02 
501	 2.45257658240817E-02 
502	 2.45841875188106E-02 
503	 2.48377764450382E-02 
504	 2.49856565902936E-02 
505	 2.50524998228498E-02 
506	 2.51534061312844E-02 
507	 2.51811572455358E-02 
508	 2.51785681656939E-02 
509	 2.54152205601554E-02 
510	 2.56887947141199E-02 
511	 2.58216262311625E-02 
512	 2.57350781320783E-02 
513	 2.56419417797508E-02 
514	 2.60622809399975E-02 
515	 2.64924167076278E-02 
516	 2.67879302325941E-02 
517	 2.72904506642816E-02 
518	 2.76210462219789E-02 
519	 2.73883713824373E-02 
520	 2.74791706186526E-02 
521	 0.027879161275985 
522	 2.80118327590591E-02 
523	 2.81751224701175E-02 
524	 2.84778452440283E-02 
525	 2.87408333413436E-02 
526	 2.89386790859712E-02 
527	 0.029059234840759 
528	 2.92534596158797E-02 
529	 2.95050486482893E-02 
530	 2.96270753814663E-02 
531	 2.96793495537997E-02 
532	 0.029713908537953 
533	 2.98021200006569E-02 
534	 0.029937214164184 
535	 3.00784789513168E-02 
536	 3.02368704146806E-02 
537	 3.04068658131859E-02 
538	 3.05643243281551E-02 
539	 3.07060712493009E-02 
540	 3.08279001858403E-02 
541	 3.08831270568925E-02 
542	 3.09296289610115E-02 
543	 3.11597003339787E-02 
544	 3.13027744136488E-02 
545	 3.12565355020408E-02 
546	 3.11289402022966E-02 
547	 3.11428314059862E-02 
548	 3.15629907351824E-02 
549	 0.031882232588675 
550	 3.19891348595174E-02 
551	 0.032000250311453 
552	 0.032049665921427 
553	 0.032200564968054 
554	 3.21634265045145E-02 
555	 3.20742139366532E-02 
556	 3.22636354561245E-02 
557	 0.03236352071323 
558	 3.23370807339823E-02 
559	 3.26191015920883E-02 
560	 3.27929529128968E-02 
561	 3.24926597690787E-02 
562	 0.032269976247341 
563	 3.22245276390543E-02 
564	 3.23062728766941E-02 
565	 0.032462651958655 
566	 3.26421838219427E-02 
567	 3.27991238599699E-02 
568	 3.27566299319125E-02 
569	 3.23085092740718E-02 
570	 3.19853746629191E-02 
571	 3.19416021322713E-02 
572	 3.21660578189669E-02 
573	 3.23329188157302E-02 
574	 3.22502524703487E-02 
575	 3.22026658511527E-02 
576	 3.21629525141495E-02 
577	 3.20091806585627E-02 
578	 3.18260223926877E-02 
579	 3.17202219317761E-02 
580	 3.19865511852251E-02 
581	 3.23427244987478E-02 
582	 3.24995148865349E-02 
583	 3.21304289072801E-02 
584	 3.15791162212733E-02 
585	 3.18916942702243E-02 
586	 3.21248341796267E-02 
587	 3.19511562004448E-02 
588	 0.031850709226047 
589	 3.18606887972454E-02 
590	 3.19721216324927E-02 
591	 3.19661225494481E-02 
592	 3.18673014580236E-02 
593	 3.19454721881726E-02 
594	 0.032054433439701 
595	 3.21061332710924E-02 
596	 3.21155889013153E-02 
597	 3.21305196637138E-02 
598	 3.22408015668654E-02 
599	 3.22261563116782E-02 
600	 3.21223062494138E-02 
601	 3.24342255166208E-02 
602	 3.26193094975366E-02 
603	 3.22262559949987E-02 
604	 3.19635321370649E-02 
605	 0.031937656515986 
606	 3.21091707736925E-02 
607	 3.20691768246082E-02 
608	 3.17102448342985E-02 
609	 3.15191985630962E-02 
610	 3.16373012178344E-02 
611	 3.21653046240913E-02 
612	 3.20343874363134E-02 
613	 3.13666361084148E-02 
614	 3.15185185794498E-02 
615	 3.17801661814559E-02 
616	 0.031720805624178 
617	 3.15554531465924E-02 
618	 3.13832259679202E-02 
619	 3.13279568860626E-02 
620	 3.12983459719638E-02 
621	 3.12418814305334E-02 
622	 3.09787151491984E-02 
623	 3.10502803302396E-02 
624	 3.18562630287856E-02 
625	 3.19329247436184E-02 
626	 3.14435635079063E-02 
627	 3.15765709180486E-02 
628	 3.16434852713135E-02 
629	 3.14648655146188E-02 
630	 3.15066039221935E-02 
631	 3.17668786373984E-02 
632	 0.03218393816924 
633	 3.18804001419923E-02 
634	 3.10804490615077E-02 
635	 0.031201883152559 
636	 3.15501919381632E-02 
637	 3.16662843632001E-02 
638	 3.13597671029742E-02 
639	 3.09666314318093E-02 
640	 3.11414097650375E-02 
641	 3.12402778698495E-02 
642	 3.11336879899709E-02 
643	 3.12298941662972E-02 
644	 3.11514684078716E-02 
645	 3.06014403227972E-02 
646	 3.03533571056711E-02 
647	 3.03833967121558E-02 
648	 3.01986981408292E-02 
649	 3.01066251464674E-02 
650	 3.01949959428201E-02 
651	 3.02458499560348E-02 
652	 3.04304427236005E-02 
653	 3.09641318405139E-02 
654	 3.07470146398038E-02 
655	 2.98919010947014E-02 
656	 2.98479006032977E-02 
657	 2.99903710921342E-02 
658	 2.99005267886854E-02 
659	 2.94415902987896E-02 
660	 2.89487834822872E-02 
661	 2.89819548420705E-02 
662	 0.028989866076918 
663	 0.028831099997103 
664	 2.86892001009416E-02 
665	 2.82971387558038E-02 
666	 2.75339975384715E-02 
667	 2.78229709097849E-02 
668	 2.85882241785394E-02 
669	 2.77529694478692E-02 
670	 2.72618238234361E-02 
671	 2.76028146967694E-02 
672	 0.027222311641531 
673	 2.68351676478786E-02 
674	 2.73622387419215E-02 
675	 2.78413380042649E-02 
676	 2.80394426722965E-02 
677	 2.79836530713586E-02 
678	 2.78760974170985E-02 
679	 2.78623633339332E-02 
680	 2.80130111455087E-02 
681	 2.83058145953499E-02 
682	 0.028677184104071 
683	 2.93336159451795E-02 
684	 3.01155640351095E-02 
685	 3.01754343854524E-02 
686	 3.03669943602491E-02 
687	 3.14455315223999E-02 
688	 3.27078483110166E-02 
689	 3.37478013678954E-02 
690	 3.42424040750284E-02 
691	 3.48993070958946E-02 
692	 3.59142476786925E-02 
693	 3.68459678258002E-02 
694	 3.78387090123858E-02 
695	 3.90162078528021E-02 
696	 4.02266408058589E-02 
697	 4.14910218432002E-02 
698	 4.30274121182598E-02 
699	 4.45638217296813E-02 
700	 4.59288012115519E-02 
701	 4.71556040834793E-02 
702	 4.82766547701784E-02 
703	 4.93401954785839E-02 
704	 5.05246304604255E-02 
705	 5.17967182386828E-02 
706	 5.28131466388417E-02 
707	 0.053811855565599 
708	 5.49312149231288E-02 
709	 5.59432997999122E-02 
710	 5.69705383062647E-02 
711	 5.83028954620696E-02 
712	 5.96206262872303E-02 
713	 6.07138665881512E-02 
714	 6.12158554693182E-02 
715	 6.15588965703284E-02 
716	 6.22181840172218E-02 
717	 6.35576120335787E-02 
718	 6.52123953623775E-02 
719	 6.54432809501502E-02 
720	 6.58123883900448E-02 
721	 6.67564548065103E-02 
722	 6.74656762874863E-02 
723	 6.80824542141127E-02 
724	 6.87482356951657E-02 
725	 6.94082408272577E-02 
726	 7.00116074299802E-02 
727	 7.05713628452047E-02 
728	 7.12580473931181E-02 
729	 7.20452204896667E-02 
730	 7.21904432632735E-02 
731	 7.20646516449185E-02 
732	 7.22719776651155E-02 
733	 7.26996463887274E-02 
734	 7.33721609007187E-02 
735	 7.45094695946554E-02 
736	 7.53615670350825E-02 
737	 7.54447914092454E-02 
738	 7.55683324666783E-02 
739	 7.57906152188084E-02 
740	 7.59647721431689E-02 
741	 7.62710007993452E-02 
742	 7.66969912473876E-02 
743	 7.69122542977527E-02 
744	 7.73164821725107E-02 
745	 7.81755741189329E-02 
746	 7.83243044767518E-02 
747	 7.80156425460355E-02 
748	 7.83443666801861E-02 
749	 7.86712773085058E-02 
750	 7.88946736364044E-02 
751	 7.96755905532726E-02 
752	 0.080316772242091 
753	 8.00928997543632E-02 
754	 0.080274442041689 
755	 8.08141890995658E-02 
756	 8.07790951544604E-02 
757	 8.07917823343983E-02 
758	 8.11157434183592E-02 
759	 8.13988288854418E-02 
760	 8.17456770579111E-02 
761	 8.21244380581078E-02 
762	 8.24327561255837E-02 
763	 8.25427507109926E-02 
764	 0.082065734173067 
765	 8.23838652461516E-02 
766	 8.36075649142372E-02 
767	 8.41178406896842E-02 
768	 8.41385684674833E-02 
769	 8.39693159631518E-02 
770	 8.44822464967064E-02 
771	 0.085482127395849 
772	 8.53970168388543E-02 
773	 8.51926209752594E-02 
774	 8.54992955008068E-02 
775	 8.57804198467621E-02 
776	 8.60227507436687E-02 
777	 8.63418091806461E-02 
778	 0.086550373572346 
779	 8.66519289843539E-02 
780	 8.69033706928122E-02 
781	 8.72167180452779E-02 
782	 8.75201059882448E-02 
783	 8.78697102412754E-02 
784	 8.82367639959794E-02 
785	 8.85709515421166E-02 
786	 8.87317885842145E-02 
787	 8.87199228767956E-02 
788	 8.87521131353737E-02 
789	 0.088986611322658 
790	 8.95002668048698E-02 
791	 8.94437020274419E-02 
792	 8.91201363267989E-02 
793	 8.96376577756876E-02 
794	 9.03266594325388E-02 
795	 9.08805599083008E-02 
796	 9.10381407803345E-02 
797	 0.091083955235202 
798	 9.13144649436143E-02 
799	 9.14774311913117E-02 
800	 9.15255655031986E-02 
801	 0.09142890444145 
802	 9.14100812042862E-02 
803	 9.15773960854491E-02 
804	 0.091885925809243 
805	 9.23291677608055E-02 
806	 9.28852250667131E-02 
807	 9.31409426953836E-02 
808	 9.32656447862776E-02 
809	 9.40509253025487E-02 
810	 9.45763606119032E-02 
811	 9.45413690302753E-02 
812	 9.48833742370652E-02 
813	 9.51987822696881E-02 
814	 9.48733917618267E-02 
815	 9.49732827771839E-02 
816	 9.55731443811942E-02 
817	 9.58738694666871E-02 
818	 9.66189558494242E-02 
819	 9.77729724087874E-02 
820	 9.74972613611727E-02 
821	 9.67959159902618E-02 
822	 9.69820407122936E-02 
823	 9.71300256865171E-02 
824	 9.73212870406118E-02 
825	 9.83854261333741E-02 
826	 9.92233975309216E-02 
827	 9.93818583882349E-02 
828	 9.91327956472885E-02 
829	 9.89101232270908E-02 
830	 9.91958981395944E-02 
831	 9.93483666230726E-02 
832	 9.94103096820543E-02 
833	 9.99019027576288E-02 
834	 0.10054397991474 
835	 0.101087958218384 
836	 0.100894899327484 
837	 0.100660396835904 
838	 0.101200123882125 
839	 0.101736392197609 
840	 0.102137603913645 
841	 0.102657543717478 
842	 0.102461087335191 
843	 0.101502319892869 
844	 0.101708933017758 
845	 0.10230998501767 
846	 0.102280098223772 
847	 0.102441136361207 
848	 0.102767541534857 
849	 0.102747137919946 
850	 0.10259491694436 
851	 0.102533996823712 
852	 0.103376135795248 
853	 0.103895234482111 
854	 0.102849534460295 
855	 0.102669350835739 
856	 0.10346872771304 
857	 0.104316162084802 
858	 0.104906221687519 
859	 0.105017422697546 
860	 0.104461857519178 
861	 0.103868163990348 
862	 0.103862240986895 
863	 0.104444606006085 
864	 0.105165049749888 
865	 0.104917132620011 
866	 0.105070773177731 
867	 0.105989477294253 
868	 0.107057433737792 
869	 0.107773119531293 
870	 0.107758172114444 
871	 0.107065155973822 
872	 0.106620479251526 
873	 0.108144875447154 
874	 0.109366811159994 
875	 0.109486569955957 
876	 0.108317127829958 
877	 0.108041530547544 
878	 0.109955982440243 
879	 0.111138530942848 
880	 0.111310639906489 
881	 0.11070717859652 
882	 0.11167450878123 
883	 0.11387586869576 
884	 0.113682674617214 
885	 0.113064887182955 
886	 0.113247384331593 
887	 0.114451302096099 
888	 0.115424474157157 
889	 0.114539618391555 
890	 0.114943865167218 
891	 0.11643986990367 
892	 0.115797710662714 
893	 0.115780572115797 
894	 0.117220200607322 
895	 0.116611345487479 
896	 0.115696838402831 
897	 0.116808942861977 
898	 0.11779595470581 
899	 0.118340759084595 
900	 0.118956651915081 
901	 0.118938124793221 
902	 0.118244291926516 
903	 0.11753732486388 
904	 0.117636731683432 
905	 0.11889550454746 
906	 0.118564233493374 
907	 0.117635763900868 
908	 0.118590328399978 
909	 0.120177646781133 
910	 0.121434269795512 
911	 0.120198814368923 
912	 0.119390615544725 
913	 0.120370201079266 
914	 0.119642809339077 
915	 0.118527321991774 
916	 0.119015024576711 
917	 0.121238994819349 
918	 0.123449343000219 
919	 0.120924094036494 
920	 0.119207238687381 
921	 0.119999389544364 
922	 0.120731682913902 
923	 0.120864067095605 
924	 0.120090416873385 
925	 0.119741316616131 
926	 0.120064046719521 
927	 0.121112045685112 
928	 0.120330716540996 
929	 0.117534918876939 
930	 0.117234525996103 
931	 0.11806617704022 
932	 0.118869743621259 
933	 0.119543408461172 
934	 0.121149314718727 
935	 0.124847961641862 
936	 0.123306220795228 
937	 0.116875885477446 
938	 0.109903733393098 
939	 0.11073968084212 
940	 0.118563030411699 
941	 0.117235455646602 
942	 0.113556712129424 
943	 0.112738654327488 
944	 0.112171668448986 
945	 0.109592226462111 
946	 0.101806040242289 
947	 0.105556591131664 
948	 0.116865850022739 
949	 0.108827684919303 
950	 0.103593647997922 
951	 0.108136362792827 
952	 0.105322677613478 
953	 0.101290651695738 
954	 0.102490992442924 
955	 0.103821145599114 
956	 0.103528114099304 
957	 0.099922772993205 
958	 9.88992509199488E-02 
959	 0.100942670134823 
960	 0.101331579108461 
961	 0.104916399257485 
962	 0.11162857909622 
963	 0.108768071064402 
964	 0.105622557731663 
965	 0.110865748752089 
966	 0.10590722072524 
967	 9.61503003349873E-02 
968	 9.77480596529113E-02 
969	 0.101446120282656 
970	 0.103774436624777 
971	 0.101340849341447 
972	 0.100477454859077 
973	 0.103817873527685 
974	 0.10388431892864 
975	 0.102154916246616 
976	 0.101044610328953 
977	 0.100510422443976 
978	 0.100831808974991 
979	 0.102329820551732 
980	 0.104273380399982 
981	 0.106133026668131 
982	 0.107487938185892 
983	 0.107470602839969 
984	 0.106166624931924 
985	 0.106973830708325 
986	 0.108362840682456 
987	 0.108419386029454 
988	 0.108203736130189 
989	 0.108997711188587 
990	 0.11324616706898 
991	 0.112109342578227 
992	 0.105708351919969 
993	 0.103974827043047 
994	 0.105394424688895 
995	 0.108686853958207 
996	 0.111373529596509 
997	 0.111457880682376 
998	 0.107910460048278 
999	 0.108280781893087 
1000	 0.110809506916425 
1001	 0.110119521625644 
1002	 0.107272867977093 
1003	 0.10524954093856 
1004	 0.113384170312432 
1005	 0.116840937749963 
1006	 0.111349099096273 
1007	 0.108994734067571 
1008	 0.11061181436449 
1009	 0.115600911292116 
1010	 0.11797548329499 
1011	 0.117312015576578 
1012	 0.114539576856251 
1013	 0.115059306049115 
1014	 0.118691531597247 
1015	 0.122111359808244 
1016	 0.120456212890977 
1017	 0.114975589326852 
1018	 0.117256045028622 
1019	 0.123254611980472 
1020	 0.128245644021774 
1021	 0.122527044948869 
1022	 0.112545614861204 
1023	 0.106355406967646 
1024	 0.110504188264018 
1025	 0.119333648726684 
1026	 0.121765988948079 
1027	 0.130260177626553 
1028	 0.140544014333398 
1029	 0.132955772992409 
1030	 0.12734318959498 
1031	 0.129565727763835 
1032	 0.130327822754308 
1033	 0.131966527720144 
1034	 0.134917878605949 
1035	 0.132920742513833 
1036	 0.127839133048323 
1037	 0.123128439367619 
1038	 0.127832031415583 
1039	 0.136663221903859 
1040	 0.137044878240818 
1041	 0.144540630136695 
1042	 0.151823185302827 
1043	 0.124475901767904 
1044	 0.110316849918789 
1045	 0.12375961393261 
1046	 0.138784215347953 
1047	 0.144598898406745 
1048	 0.136082149894305 
1049	 0.121333229761022 
1050	 0.117933692565698 
1051	 0.139036478821637 
1052	 0.150980961773669 
1053	 0.147646989812019 
1054	 0.129256475054393 
1055	 0.113616170970079 
1056	 0.110673859402286 
1057	 0.130321903324657 
1058	 0.138700636613198 
1059	 0.133656481519154 
1060	 0.147413389870926 
1061	 0.15769400790197 
1062	 0.153334693110587 
1063	 0.13579914144296 
1064	 0.116211142496431 
1065	 0.108390053998102 
1066	 0.143546105361698 
1067	 0.168168936396835 
1068	 0.122959076017276 
1069	 0.113328712962518 
1070	 0.129190343406938 
1071	 0.124244491655015 
1072	 0.129904264415914 
1073	 0.136400425200497 
1074	 9.90604044984817E-02 
1075	 0.119054842527587 
