Wavelength	AVEI200136.asd
325	 3.92397906913694E-02 
326	 3.70700603042861E-02 
327	 2.34210159796704E-02 
328	 2.86016353317583E-02 
329	 3.43871615090924E-02 
330	 3.50508545361301E-02 
331	 3.88524208717159E-02 
332	 4.06199521720982E-02 
333	 3.54463803167589E-02 
334	 3.26327162773328E-02 
335	 3.26251230469737E-02 
336	 3.29468647069388E-02 
337	 2.98741353157001E-02 
338	 2.47235328409632E-02 
339	 2.92496520236709E-02 
340	 0.034705957229278 
341	 3.41763854996346E-02 
342	 3.48825191077925E-02 
343	 0.036492454673577 
344	 3.63896689885749E-02 
345	 0.036102374462646 
346	 3.55901860068733E-02 
347	 3.26676676596826E-02 
348	 3.15829279358277E-02 
349	 3.44584996150351E-02 
350	 3.39944821848909E-02 
351	 3.18903562349971E-02 
352	 3.22728481855668E-02 
353	 3.29428676139588E-02 
354	 3.33643050675533E-02 
355	 0.033586488030421 
356	 3.36317035735549E-02 
357	 3.35333346010392E-02 
358	 3.34330302731258E-02 
359	 3.31733821401968E-02 
360	 3.25012666080886E-02 
361	 3.16115848321873E-02 
362	 3.09895577971304E-02 
363	 3.17982526229892E-02 
364	 3.33801055097086E-02 
365	 0.034975870076357 
366	 3.46845145520783E-02 
367	 3.34135863530275E-02 
368	 3.25898397247311E-02 
369	 3.24510128874694E-02 
370	 3.26978730818353E-02 
371	 3.18915020515644E-02 
372	 3.19597531940774E-02 
373	 0.033338905085506 
374	 0.031457442034907 
375	 2.90145398875084E-02 
376	 3.02181431049171E-02 
377	 2.99680579732581E-02 
378	 0.028228767200027 
379	 2.87758077632256E-02 
380	 3.03876938706517E-02 
381	 3.20763779554516E-02 
382	 0.031943031720581 
383	 0.031474058901754 
384	 3.27675652280716E-02 
385	 3.20946060417002E-02 
386	 2.98016350742022E-02 
387	 2.96796779515945E-02 
388	 2.99979359036051E-02 
389	 0.02998175599549 
390	 3.00849681450833E-02 
391	 3.00403249756428E-02 
392	 2.95464674629067E-02 
393	 3.04105479174217E-02 
394	 0.031911574591921 
395	 3.10331052643585E-02 
396	 2.99409442189736E-02 
397	 2.95765284862566E-02 
398	 2.94402477378678E-02 
399	 2.95946425856737E-02 
400	 3.00983735081599E-02 
401	 2.99606824701079E-02 
402	 2.93125819363124E-02 
403	 2.87977540766403E-02 
404	 2.88922348191611E-02 
405	 2.94536963775728E-02 
406	 2.82192175550122E-02 
407	 2.69433905883496E-02 
408	 2.79477173898765E-02 
409	 2.87403813954047E-02 
410	 2.87923373568401E-02 
411	 2.82797521546794E-02 
412	 2.79669978930768E-02 
413	 2.81439130005827E-02 
414	 2.79951808073173E-02 
415	 2.77598550455566E-02 
416	 2.78339857080713E-02 
417	 0.028233819950577 
418	 0.028676323073979 
419	 2.82811009978059E-02 
420	 2.79509480827033E-02 
421	 2.81501159573502E-02 
422	 2.84076843902903E-02 
423	 2.85629991505076E-02 
424	 2.84811541177592E-02 
425	 2.80503505980337E-02 
426	 2.75661892861424E-02 
427	 2.81527364017355E-02 
428	 2.86853409650366E-02 
429	 2.84912965267736E-02 
430	 2.85572388518717E-02 
431	 2.86731922763483E-02 
432	 2.82648004510769E-02 
433	 2.82320474015616E-02 
434	 2.85114900847983E-02 
435	 2.78892516231609E-02 
436	 2.75048330084365E-02 
437	 2.80264772613539E-02 
438	 0.028271937306197 
439	 0.028170650911694 
440	 2.78932208529677E-02 
441	 2.77714997321645E-02 
442	 2.79115723824749E-02 
443	 2.82408990816064E-02 
444	 2.83916214550045E-02 
445	 2.81043786040838E-02 
446	 2.78583003537983E-02 
447	 2.77796805523052E-02 
448	 2.79542786899761E-02 
449	 2.80871871979031E-02 
450	 2.81222138395329E-02 
451	 2.84018818000641E-02 
452	 2.85842665958916E-02 
453	 2.83503919353619E-02 
454	 2.84221526758065E-02 
455	 2.87158188283806E-02 
456	 2.85856400441008E-02 
457	 2.84783875325008E-02 
458	 2.85531011503205E-02 
459	 2.86353600161536E-02 
460	 2.86281966589289E-02 
461	 2.84410160137724E-02 
462	 2.83101841411362E-02 
463	 2.82766417261244E-02 
464	 2.82317336807973E-02 
465	 2.84221549746786E-02 
466	 2.88248443852258E-02 
467	 2.83520639013093E-02 
468	 2.77007863914119E-02 
469	 2.80553188983093E-02 
470	 2.82555327236297E-02 
471	 2.81544360700376E-02 
472	 2.83760943385563E-02 
473	 2.85466009192399E-02 
474	 2.84440692685695E-02 
475	 2.83396943084231E-02 
476	 2.82415655183721E-02 
477	 2.80733408484583E-02 
478	 2.82127431562209E-02 
479	 2.85649118698159E-02 
480	 0.028254884703572 
481	 2.79574997430171E-02 
482	 0.028205206620639 
483	 0.028367280023628 
484	 2.83888504664758E-02 
485	 2.83844201678621E-02 
486	 2.84950647898918E-02 
487	 2.86804589770375E-02 
488	 2.83761330015229E-02 
489	 0.028164966960707 
490	 2.86313125037214E-02 
491	 2.89059309784128E-02 
492	 0.028837193074361 
493	 2.84804618978696E-02 
494	 2.82447412662057E-02 
495	 2.83376427689889E-02 
496	 2.86949574041385E-02 
497	 2.90050990908264E-02 
498	 2.88868765278146E-02 
499	 2.90371216109058E-02 
500	 2.94867829157882E-02 
501	 2.97612358958125E-02 
502	 2.97989517192462E-02 
503	 2.96164034832319E-02 
504	 0.029645616366345 
505	 2.99140238192727E-02 
506	 3.03630348379128E-02 
507	 3.07447771068318E-02 
508	 3.09995841199144E-02 
509	 3.12594221964838E-02 
510	 3.15104904730986E-02 
511	 3.17541648132573E-02 
512	 3.21859412208579E-02 
513	 3.26253570180048E-02 
514	 3.25240006442514E-02 
515	 3.27324541681584E-02 
516	 3.34651302573712E-02 
517	 3.40322335962106E-02 
518	 3.44613866744844E-02 
519	 3.48398888607763E-02 
520	 3.52306119563491E-02 
521	 3.57757623269873E-02 
522	 3.68891511768949E-02 
523	 3.76382414451353E-02 
524	 3.76960222845708E-02 
525	 3.80043423215113E-02 
526	 3.85041828625617E-02 
527	 3.89599512572859E-02 
528	 0.039373812302115 
529	 3.97469553577622E-02 
530	 4.00890313109451E-02 
531	 4.06218804744615E-02 
532	 4.14218394240436E-02 
533	 4.17405412877938E-02 
534	 4.17942166481195E-02 
535	 4.22415868390495E-02 
536	 4.25281996219242E-02 
537	 0.042570913008771 
538	 0.042808020629361 
539	 4.30317530538084E-02 
540	 4.30467461361644E-02 
541	 4.33820531201746E-02 
542	 4.38967919314314E-02 
543	 4.39244312042601E-02 
544	 4.40522415432691E-02 
545	 4.44474828464128E-02 
546	 4.45297419141061E-02 
547	 4.45142897487231E-02 
548	 4.47447442256661E-02 
549	 4.48923318629479E-02 
550	 4.49695452843504E-02 
551	 4.52992199162039E-02 
552	 4.56017195174723E-02 
553	 4.57164668166537E-02 
554	 4.59130062334794E-02 
555	 0.046121424806494 
556	 4.61499143159533E-02 
557	 4.61040568511001E-02 
558	 4.60384673513999E-02 
559	 4.60231058038987E-02 
560	 4.60581951308826E-02 
561	 4.61219268710902E-02 
562	 4.59566707222313E-02 
563	 4.56594646558751E-02 
564	 4.56047447395545E-02 
565	 0.045571865634754 
566	 4.54684213265383E-02 
567	 4.52794798273387E-02 
568	 4.51192259167845E-02 
569	 4.51322967106965E-02 
570	 4.48074768560819E-02 
571	 4.42673574513879E-02 
572	 4.44155526482611E-02 
573	 4.43472873355585E-02 
574	 4.36249192154464E-02 
575	 4.35376628076929E-02 
576	 4.37416209975879E-02 
577	 4.32790095946027E-02 
578	 4.29453750035008E-02 
579	 4.29118020798404E-02 
580	 4.27855195248227E-02 
581	 0.042675963566516 
582	 4.26704019846943E-02 
583	 4.24497559726717E-02 
584	 4.21594064019528E-02 
585	 4.23473579075349E-02 
586	 4.24107730028464E-02 
587	 0.042165689660817 
588	 4.21283343680272E-02 
589	 4.21464416522278E-02 
590	 0.041964121068549 
591	 4.16910348482324E-02 
592	 4.13975072826419E-02 
593	 4.11514292609784E-02 
594	 4.11229068738181E-02 
595	 0.041363741593676 
596	 4.14544786765222E-02 
597	 4.13370728823461E-02 
598	 4.10003190969425E-02 
599	 4.09301314695763E-02 
600	 4.11737165427915E-02 
601	 4.12044873977675E-02 
602	 4.10322760415254E-02 
603	 4.07265424802685E-02 
604	 4.08446896116647E-02 
605	 4.12188858501577E-02 
606	 4.12164632487926E-02 
607	 4.08880773112494E-02 
608	 0.04035562160364 
609	 4.03366682143243E-02 
610	 4.04773949187711E-02 
611	 4.02492129600589E-02 
612	 4.00090896316521E-02 
613	 3.98318572212705E-02 
614	 3.96988049766682E-02 
615	 3.94637171956699E-02 
616	 0.039113082565114 
617	 3.93325519197012E-02 
618	 3.96814810990927E-02 
619	 0.039248595693619 
620	 3.87992229616589E-02 
621	 3.85259637546593E-02 
622	 3.81552474516532E-02 
623	 3.79744677946901E-02 
624	 0.038229501221914 
625	 3.85877744752525E-02 
626	 3.88379812610507E-02 
627	 3.86592272310107E-02 
628	 3.83690243862216E-02 
629	 3.81568056652782E-02 
630	 0.038227935432482 
631	 3.84188040337797E-02 
632	 0.038499950779628 
633	 3.84067417623554E-02 
634	 3.82476966448233E-02 
635	 3.84950337639222E-02 
636	 3.84968467922753E-02 
637	 3.79377719678173E-02 
638	 3.76371344972888E-02 
639	 0.037528026936285 
640	 3.73018925005749E-02 
641	 3.69316802198946E-02 
642	 0.036434108721374 
643	 3.59540339669364E-02 
644	 3.55159836217552E-02 
645	 3.51353971951169E-02 
646	 3.47849447602097E-02 
647	 3.45686899978867E-02 
648	 3.48459985139525E-02 
649	 3.47798982585688E-02 
650	 3.41782078932618E-02 
651	 3.41035082606509E-02 
652	 3.42271624681093E-02 
653	 3.40553152479402E-02 
654	 0.033946973487957 
655	 3.39284155060088E-02 
656	 0.03380991433778 
657	 3.37606269312352E-02 
658	 3.38097035455397E-02 
659	 3.33872328241816E-02 
660	 3.29030403962237E-02 
661	 3.31145351413668E-02 
662	 3.31740402003637E-02 
663	 0.0328687037298 
664	 3.24039921741209E-02 
665	 3.20366510876067E-02 
666	 0.031954090899656 
667	 3.17352458882682E-02 
668	 3.14368117461982E-02 
669	 3.13762430299515E-02 
670	 3.14009888003591E-02 
671	 3.13902126417678E-02 
672	 0.030982883168312 
673	 3.06109443121468E-02 
674	 3.07885900547401E-02 
675	 3.12022161160892E-02 
676	 3.15614971506738E-02 
677	 3.11660986795556E-02 
678	 3.11567055760965E-02 
679	 3.20140431027884E-02 
680	 3.23885862607807E-02 
681	 3.23517798541784E-02 
682	 3.22703975736793E-02 
683	 3.24663330219429E-02 
684	 3.30974802918198E-02 
685	 0.034318855628361 
686	 3.56077280040643E-02 
687	 3.64732252499637E-02 
688	 3.72707963193141E-02 
689	 3.82079526327028E-02 
690	 3.97250108519926E-02 
691	 4.12583035331044E-02 
692	 4.27854278821459E-02 
693	 4.48989761687971E-02 
694	 4.73133138341973E-02 
695	 4.95840501446501E-02 
696	 5.17294098887132E-02 
697	 0.053912614965378 
698	 5.66613120130003E-02 
699	 5.96587673773519E-02 
700	 6.26762450887567E-02 
701	 6.55837598323308E-02 
702	 6.83913377722412E-02 
703	 7.11613848271781E-02 
704	 7.39333370729992E-02 
705	 7.67581169773458E-02 
706	 7.96420215466928E-02 
707	 8.24015209587446E-02 
708	 8.49693794949458E-02 
709	 8.79060707961191E-02 
710	 9.10079094199759E-02 
711	 9.38007961490069E-02 
712	 9.63571354094258E-02 
713	 9.87259560840842E-02 
714	 0.101185582039191 
715	 0.103461718952303 
716	 0.105396738432531 
717	 0.107043514538361 
718	 0.108863097839809 
719	 0.111862125632235 
720	 0.114615127549091 
721	 0.116463404074069 
722	 0.118045888465936 
723	 0.119580675724339 
724	 0.121117170508082 
725	 0.122677966698813 
726	 0.124166124720717 
727	 0.125660066813858 
728	 0.127137365048246 
729	 0.128545723776918 
730	 0.129667692884118 
731	 0.13055916578501 
732	 0.131322044807029 
733	 0.132376803682052 
734	 0.133622090873946 
735	 0.134212390538971 
736	 0.135144331983274 
737	 0.136907543689688 
738	 0.137932941817895 
739	 0.138405721998752 
740	 0.13911658166125 
741	 0.139456099953137 
742	 0.139492514584 
743	 0.140177374343865 
744	 0.140993739686354 
745	 0.141505489663015 
746	 0.142164996407844 
747	 0.142874723616645 
748	 0.143219351475106 
749	 0.143700618255172 
750	 0.144371810243761 
751	 0.144452986573157 
752	 0.144586430029505 
753	 0.145459271316389 
754	 0.145839498131238 
755	 0.145841366449122 
756	 0.146561896627195 
757	 0.147187554591966 
758	 0.147387208174838 
759	 0.147314804124434 
760	 0.147205199300006 
761	 0.147822311091285 
762	 0.148010029651299 
763	 0.147985392652076 
764	 0.149103057633543 
765	 0.15021114801467 
766	 0.150787912885462 
767	 0.15062402627742 
768	 0.150459187114858 
769	 0.1511151657935 
770	 0.151955327125944 
771	 0.152673567767848 
772	 0.15280620227439 
773	 0.152727256303781 
774	 0.152753291254425 
775	 0.15324442936088 
776	 0.153928152079134 
777	 0.154224957612429 
778	 0.154501905618626 
779	 0.15483646909729 
780	 0.155100183360875 
781	 0.155391405082834 
782	 0.155768967533124 
783	 0.155981342101215 
784	 0.156065716437083 
785	 0.156158793244823 
786	 0.156509413053917 
787	 0.157093843629628 
788	 0.15734418219084 
789	 0.157374368728671 
790	 0.157354942881761 
791	 0.15774204556887 
792	 0.158282012668258 
793	 0.158110105805296 
794	 0.158113868726762 
795	 0.158509910229682 
796	 0.158670500635087 
797	 0.15870862398413 
798	 0.158792952950178 
799	 0.159219345030447 
800	 0.159769283919267 
801	 0.159612254667632 
802	 0.159808451547503 
803	 0.16061584591677 
804	 0.160965490957698 
805	 0.161131587147221 
806	 0.161488784333655 
807	 0.161723855177251 
808	 0.161885375782256 
809	 0.1622404265078 
810	 0.162814965374009 
811	 0.163460268067369 
812	 0.163175503923686 
813	 0.162564140744522 
814	 0.162569577118148 
815	 0.163053908409693 
816	 0.163918682371729 
817	 0.164971307212196 
818	 0.165383730518501 
819	 0.165067616252447 
820	 0.16582828530171 
821	 0.16641844641769 
822	 0.165300369406941 
823	 0.166052436904948 
824	 0.16831216174296 
825	 0.168881821161437 
826	 0.168866092307062 
827	 0.168722200591294 
828	 0.168463493120894 
829	 0.168468474907526 
830	 0.169135729075514 
831	 0.16967149659188 
832	 0.169875544233508 
833	 0.169596862596416 
834	 0.170261292615302 
835	 0.172002602202009 
836	 0.171743079092615 
837	 0.171151887449873 
838	 0.172317325461593 
839	 0.173036214768604 
840	 0.173044173148364 
841	 0.17289056722222 
842	 0.172977815481012 
843	 0.173434116101055 
844	 0.173679029252563 
845	 0.173817558675279 
846	 0.174028139225897 
847	 0.174434731951402 
848	 0.174793358113266 
849	 0.174235166427373 
850	 0.174254552622529 
851	 0.175143939873488 
852	 0.174608838719519 
853	 0.173871740916519 
854	 0.174391775470277 
855	 0.175243034242671 
856	 0.175849772142808 
857	 0.175198136622605 
858	 0.175086564942959 
859	 0.175888553604913 
860	 0.17598808725813 
861	 0.175980108533806 
862	 0.17644379790373 
863	 0.176105354424399 
864	 0.175738126206194 
865	 0.177793188699878 
866	 0.178911119865845 
867	 0.1782969178049 
868	 0.178180693808908 
869	 0.17842295645755 
870	 0.17881484592559 
871	 0.179087391632251 
872	 0.179374601905669 
873	 0.18004497638545 
874	 0.180527458874698 
875	 0.180863090033092 
876	 0.18197064137092 
877	 0.183207358858948 
878	 0.183999748154134 
879	 0.183695211184211 
880	 0.183329523919742 
881	 0.1846854980277 
882	 0.185828523846654 
883	 0.186222032046821 
884	 0.186011998053224 
885	 0.185855169974383 
886	 0.186242694523302 
887	 0.187531762351003 
888	 0.188932731072959 
889	 0.189374130419109 
890	 0.189089251213519 
891	 0.188387560189566 
892	 0.187853701459993 
893	 0.188556269943968 
894	 0.19050217064812 
895	 0.189863769639619 
896	 0.188681134026127 
897	 0.189742740255036 
898	 0.190035481031138 
899	 0.190055402845136 
900	 0.192832210001081 
901	 0.193403222527541 
902	 0.191191432277688 
903	 0.191558530172489 
904	 0.19196427052704 
905	 0.1905849074449 
906	 0.19058812629534 
907	 0.192083013646491 
908	 0.194532910119557 
909	 0.194651636615865 
910	 0.192486874289611 
911	 0.192699249645102 
912	 0.192721855111947 
913	 0.191539508823055 
914	 0.192833540393508 
915	 0.194444146841355 
916	 0.193433183309845 
917	 0.192958259875325 
918	 0.193715632460299 
919	 0.19595543637631 
920	 0.196949542209616 
921	 0.195998952384428 
922	 0.195313924969469 
923	 0.194534712409434 
924	 0.19332308771419 
925	 0.192889655756169 
926	 0.19267377717583 
927	 0.190974445187368 
928	 0.18845295053633 
929	 0.186181805946682 
930	 0.18834648266083 
931	 0.189582502418098 
932	 0.185705415941454 
933	 0.184474277635867 
934	 0.184917690615159 
935	 0.183547875425039 
936	 0.181266235088738 
937	 0.179249475364433 
938	 0.180215934330869 
939	 0.178850193202681 
940	 0.175039714058777 
941	 0.176101745052648 
942	 0.178847159323173 
943	 0.180307548585182 
944	 0.176104040049593 
945	 0.173141765091648 
946	 0.182793530399006 
947	 0.184861503892425 
948	 0.177909705955934 
949	 0.175708076426802 
950	 0.171188594205382 
951	 0.16318750143205 
952	 0.161089876389062 
953	 0.161791551928653 
954	 0.162068980107561 
955	 0.167368610397419 
956	 0.171134531665649 
957	 0.160613296510029 
958	 0.156134420456084 
959	 0.160018683609088 
960	 0.160676001351218 
961	 0.161820177952716 
962	 0.163808143742283 
963	 0.159143507751099 
964	 0.155506649489757 
965	 0.160034654021871 
966	 0.166018667475928 
967	 0.168945057347069 
968	 0.162442603872991 
969	 0.160666338270205 
970	 0.165339907951466 
971	 0.167387115036995 
972	 0.166241106842016 
973	 0.162585131211523 
974	 0.163041318341718 
975	 0.165373758701908 
976	 0.166255622855056 
977	 0.164448531561496 
978	 0.162168432670973 
979	 0.164887461736694 
980	 0.164398360317788 
981	 0.161579538240387 
982	 0.169445530354252 
983	 0.174593471482566 
984	 0.170746041634641 
985	 0.166842716650969 
986	 0.166255796030231 
987	 0.171272205568375 
988	 0.176188834304362 
989	 0.177892596568273 
990	 0.172493818954011 
991	 0.168247029879641 
992	 0.168687492478023 
993	 0.176912869912545 
994	 0.179639324615852 
995	 0.171963260183523 
996	 0.168419680564487 
997	 0.169599857755336 
998	 0.174254239108309 
999	 0.176402854180844 
1000	 0.176028139675522 
1001	 0.175155826029233 
1002	 0.176469028762645 
1003	 0.179009329159559 
1004	 0.177021022507776 
1005	 0.175420283046466 
1006	 0.176770943307152 
1007	 0.182274820490652 
1008	 0.187996488438581 
1009	 0.190091169649075 
1010	 0.184058570418271 
1011	 0.176786818841906 
1012	 0.178457322322809 
1013	 0.186809218806989 
1014	 0.195091699399408 
1015	 0.188535697558982 
1016	 0.182990602864742 
1017	 0.183160177569422 
1018	 0.185543458676571 
1019	 0.187265188374658 
1020	 0.187109600463616 
1021	 0.189462788453849 
1022	 0.191309284068789 
1023	 0.189826251551132 
1024	 0.191801011408704 
1025	 0.19460473615668 
1026	 0.192224602283551 
1027	 0.190539759480966 
1028	 0.190304734064019 
1029	 0.189267722211915 
1030	 0.187372780079194 
1031	 0.184344950084991 
1032	 0.178026658912547 
1033	 0.178182491180685 
1034	 0.189504829961979 
1035	 0.19993509537969 
1036	 0.204528373108825 
1037	 0.201036053895602 
1038	 0.20885869578433 
1039	 0.217571627628328 
1040	 0.204784878459862 
1041	 0.19382061431873 
1042	 0.189034751780405 
1043	 0.183705363724825 
1044	 0.190942345516283 
1045	 0.208573802087874 
1046	 0.21021382675978 
1047	 0.197282879107822 
1048	 0.176522890166133 
1049	 0.183032043438771 
1050	 0.198230685311911 
1051	 0.200437346891149 
1052	 0.194800676802682 
1053	 0.187576197465987 
1054	 0.188045210281845 
1055	 0.189089154761106 
1056	 0.188945637399195 
1057	 0.187374299995635 
1058	 0.183092761955325 
1059	 0.179277669566931 
1060	 0.189340468354286 
1061	 0.203432116289198 
1062	 0.212943917633726 
1063	 0.197716065214742 
1064	 0.187421570309638 
1065	 0.199665462544812 
1066	 0.188132711592403 
1067	 0.168335403077611 
1068	 0.163914926588316 
1069	 0.171843287426096 
1070	 0.177737250970603 
1071	 0.161260333697353 
1072	 0.184264951665307 
1073	 0.224643161031937 
1074	 0.184182983484125 
1075	 0.174206757608616 
