Wavelength	AVEI200003.asd
325	 0.028471138506605 
326	 3.27555690953819E-02 
327	 4.11830866781694E-02 
328	 0.038569769061706 
329	 3.42805020601117E-02 
330	 3.26812260642141E-02 
331	 3.57990605649284E-02 
332	 3.90299707106562E-02 
333	 3.82341788783039E-02 
334	 3.89787907767023E-02 
335	 4.00648009549614E-02 
336	 3.61570655997748E-02 
337	 3.43751553430187E-02 
338	 3.57601594097439E-02 
339	 3.38865570966173E-02 
340	 3.25431179999379E-02 
341	 0.034641944861558 
342	 0.034429302010418 
343	 3.27692955824466E-02 
344	 3.29160635899115E-02 
345	 3.33494134111087E-02 
346	 3.37445657469227E-02 
347	 0.034460934699995 
348	 3.49273598347209E-02 
349	 3.47808161664111E-02 
350	 3.44717076766371E-02 
351	 3.38720542935888E-02 
352	 3.25390154393157E-02 
353	 3.29509391849053E-02 
354	 3.43674601310023E-02 
355	 3.17986997662463E-02 
356	 2.95987387243216E-02 
357	 3.01733385194755E-02 
358	 2.98273167345967E-02 
359	 2.97462311818107E-02 
360	 3.23528802719017E-02 
361	 3.33706746246494E-02 
362	 3.25285298365412E-02 
363	 3.28873200571668E-02 
364	 3.26324057166151E-02 
365	 3.10664629126931E-02 
366	 3.01571082335279E-02 
367	 2.96995806278757E-02 
368	 2.91276777918382E-02 
369	 2.94040620165311E-02 
370	 3.04985003760476E-02 
371	 3.17624147017898E-02 
372	 3.25279487145726E-02 
373	 3.23165918083697E-02 
374	 3.07553870674326E-02 
375	 2.94427191227863E-02 
376	 3.04923241548399E-02 
377	 3.21091643925767E-02 
378	 3.30790143008994E-02 
379	 3.10372173267473E-02 
380	 2.97317755577577E-02 
381	 3.07492977056737E-02 
382	 3.04580203878197E-02 
383	 0.02975629050496 
384	 3.02321164884276E-02 
385	 2.97593984294014E-02 
386	 2.90218756314352E-02 
387	 3.20097292218891E-02 
388	 3.29200005360855E-02 
389	 2.99832035527499E-02 
390	 2.99639405033839E-02 
391	 3.08620481778452E-02 
392	 2.97157469303969E-02 
393	 2.92060239357431E-02 
394	 2.95863376769074E-02 
395	 2.98837458067222E-02 
396	 3.05974968629019E-02 
397	 3.16315175002218E-02 
398	 3.16114610102729E-02 
399	 3.08433866816679E-02 
400	 2.98149241813102E-02 
401	 2.96632755908217E-02 
402	 3.02400797528116E-02 
403	 3.07354636361329E-02 
404	 3.08929773510983E-02 
405	 3.06126610772531E-02 
406	 0.030092469685131 
407	 2.96633652608318E-02 
408	 2.96827844409904E-02 
409	 2.94221873702029E-02 
410	 2.90362561443093E-02 
411	 2.94769188218906E-02 
412	 2.98124314134844E-02 
413	 2.96988077991366E-02 
414	 3.00296699397336E-02 
415	 3.04073771688865E-02 
416	 3.02314406485932E-02 
417	 2.98621911025884E-02 
418	 2.96078426909556E-02 
419	 3.02056866218397E-02 
420	 3.04287899198687E-02 
421	 2.97183365118996E-02 
422	 2.91796217247865E-02 
423	 2.90419146148475E-02 
424	 0.029424915395925 
425	 2.98129729944856E-02 
426	 2.99632684008191E-02 
427	 0.029610070508434 
428	 2.92710125911018E-02 
429	 2.92751032885317E-02 
430	 2.92364668018196E-02 
431	 2.92418007653011E-02 
432	 2.95249068615515E-02 
433	 2.96384857807367E-02 
434	 2.95158719234292E-02 
435	 2.93596150841852E-02 
436	 2.94396361078282E-02 
437	 2.98673369487498E-02 
438	 2.99725042904787E-02 
439	 2.98814432093894E-02 
440	 3.00061316410074E-02 
441	 3.01526112166496E-02 
442	 3.02554836049101E-02 
443	 3.02962014580846E-02 
444	 3.02100105915912E-02 
445	 2.99817682232224E-02 
446	 3.00148956586898E-02 
447	 3.02328556165555E-02 
448	 3.02998649567773E-02 
449	 3.04649658019289E-02 
450	 3.07175411451435E-02 
451	 0.030634201361866 
452	 3.04849812313908E-02 
453	 3.05558480558481E-02 
454	 3.06877796460135E-02 
455	 3.08433345417081E-02 
456	 0.031021521748898 
457	 3.10832859185747E-02 
458	 3.10444424706289E-02 
459	 3.13936400218902E-02 
460	 3.17302972310553E-02 
461	 3.15501575295197E-02 
462	 3.14120731054595E-02 
463	 3.14201202298857E-02 
464	 3.14378990702669E-02 
465	 0.031612983236974 
466	 3.19239684535363E-02 
467	 0.03172193633771 
468	 3.12902759353871E-02 
469	 0.031142856717578 
470	 3.13930233502128E-02 
471	 3.18479063799375E-02 
472	 3.16678566316707E-02 
473	 3.16372894584987E-02 
474	 0.032173188708898 
475	 3.23220325593843E-02 
476	 3.21872712356498E-02 
477	 3.21647615090901E-02 
478	 3.23315232286695E-02 
479	 3.26140368794308E-02 
480	 3.25661754808514E-02 
481	 0.032444990845421 
482	 3.24618536088382E-02 
483	 3.24295898141958E-02 
484	 3.23823369917865E-02 
485	 3.24373503963109E-02 
486	 3.27036538037501E-02 
487	 3.31273655485598E-02 
488	 3.32115279296242E-02 
489	 3.32289217388253E-02 
490	 3.34752460899852E-02 
491	 3.34528234257838E-02 
492	 3.32479933685191E-02 
493	 3.33347643141218E-02 
494	 3.34574475990495E-02 
495	 3.35151719593471E-02 
496	 3.36038499989831E-02 
497	 3.36233482246843E-02 
498	 3.34377603571286E-02 
499	 3.35151305858377E-02 
500	 3.38828267721425E-02 
501	 3.42223654768448E-02 
502	 3.44456673546397E-02 
503	 3.45003745312123E-02 
504	 0.03449935693712 
505	 3.45021956378123E-02 
506	 3.45614997175129E-02 
507	 3.47406697076766E-02 
508	 3.50600233585073E-02 
509	 0.03555201297006 
510	 3.58925716389888E-02 
511	 3.58655132992561E-02 
512	 3.61030494038749E-02 
513	 3.64595178191825E-02 
514	 3.63122870875312E-02 
515	 0.036289446027142 
516	 3.65969514872599E-02 
517	 0.037036067162627 
518	 3.73069367050014E-02 
519	 3.71362121443168E-02 
520	 3.73326156571475E-02 
521	 3.78063050079289E-02 
522	 3.78266506312913E-02 
523	 3.79103964045004E-02 
524	 0.03824228934653 
525	 3.84029478928347E-02 
526	 0.038477502842571 
527	 0.038638681697804 
528	 3.89874922587155E-02 
529	 3.94598350841575E-02 
530	 3.97643225619846E-02 
531	 3.99998346462594E-02 
532	 4.02318930930527E-02 
533	 4.04133025437787E-02 
534	 4.05739336430267E-02 
535	 4.07962184270786E-02 
536	 0.040826522120151 
537	 4.07334478350247E-02 
538	 4.12142205151281E-02 
539	 4.17608965218836E-02 
540	 4.18641485000717E-02 
541	 4.19334456945676E-02 
542	 4.20371973060901E-02 
543	 4.21302834694207E-02 
544	 4.22478823155504E-02 
545	 4.24181020503705E-02 
546	 4.27248913702406E-02 
547	 4.29734371967848E-02 
548	 4.29063233697122E-02 
549	 4.30336315402293E-02 
550	 4.34041732876158E-02 
551	 4.37453605860784E-02 
552	 4.39201586725619E-02 
553	 0.043872780587537 
554	 4.39499499698352E-02 
555	 4.41615053083159E-02 
556	 4.44248528519221E-02 
557	 0.044730557460334 
558	 4.49815601773993E-02 
559	 4.48184671072088E-02 
560	 4.46247142469454E-02 
561	 4.47698812764146E-02 
562	 4.51543183744251E-02 
563	 4.55505685822568E-02 
564	 4.53984839275774E-02 
565	 4.54075169782364E-02 
566	 4.57941454702544E-02 
567	 4.59649001408062E-02 
568	 4.59075715221575E-02 
569	 4.56819024453859E-02 
570	 4.56677444200363E-02 
571	 4.58684178833353E-02 
572	 4.58888631883276E-02 
573	 4.59698402727895E-02 
574	 4.62310196376075E-02 
575	 4.63873601137684E-02 
576	 4.64941647296162E-02 
577	 0.046736922619476 
578	 4.68318078358153E-02 
579	 4.67568148195058E-02 
580	 4.68133218430609E-02 
581	 4.69698658762345E-02 
582	 4.71710231595604E-02 
583	 4.71834779208007E-02 
584	 4.71077489429991E-02 
585	 4.73048147932613E-02 
586	 4.75998035610305E-02 
587	 4.78689468321456E-02 
588	 4.78160998434812E-02 
589	 4.76324159153537E-02 
590	 4.76124805293681E-02 
591	 4.78001037860425E-02 
592	 4.81457534961758E-02 
593	 4.84841499958267E-02 
594	 4.86701578329098E-02 
595	 4.86309317711794E-02 
596	 4.85541031075278E-02 
597	 4.85513092137091E-02 
598	 4.87723060745564E-02 
599	 4.88364769178501E-02 
600	 4.87246264328275E-02 
601	 4.89158395513016E-02 
602	 4.91333998894056E-02 
603	 4.91446795457589E-02 
604	 4.94669411751156E-02 
605	 4.98660822562075E-02 
606	 4.94727484729903E-02 
607	 4.93189849831195E-02 
608	 4.97471668138293E-02 
609	 5.01280117610589E-02 
610	 5.01808784468972E-02 
611	 4.96468259617204E-02 
612	 4.95659990327058E-02 
613	 4.99754234370016E-02 
614	 5.00599716667521E-02 
615	 4.99798305887654E-02 
616	 4.98679020559077E-02 
617	 5.00869633995727E-02 
618	 0.050309176405547 
619	 0.049838885907539 
620	 4.98887865518546E-02 
621	 5.05831231136457E-02 
622	 5.07990899203809E-02 
623	 5.07198044457905E-02 
624	 5.05599084071839E-02 
625	 0.050483057590337 
626	 5.05482061327453E-02 
627	 5.08008748425298E-02 
628	 0.05098611286588 
629	 5.10010479917501E-02 
630	 5.09948654833944E-02 
631	 5.09768910467889E-02 
632	 5.09444317942941E-02 
633	 5.13800072707735E-02 
634	 5.20994691802406E-02 
635	 5.21363485388159E-02 
636	 5.21609249519095E-02 
637	 5.25133604509802E-02 
638	 5.25367844867787E-02 
639	 5.23923147261404E-02 
640	 0.052502356860445 
641	 5.26764499993315E-02 
642	 5.28460292362791E-02 
643	 5.29703991137661E-02 
644	 5.30254829292982E-02 
645	 5.30140779853977E-02 
646	 5.32496666612972E-02 
647	 5.36205285058489E-02 
648	 5.36360866313132E-02 
649	 5.38327540515206E-02 
650	 5.42879213157777E-02 
651	 5.42606505476369E-02 
652	 5.38411591702255E-02 
653	 0.053218193842323 
654	 5.31050422142362E-02 
655	 5.34900321185897E-02 
656	 5.36128552212535E-02 
657	 5.36126241807783E-02 
658	 5.35535621704785E-02 
659	 5.33557391172534E-02 
660	 5.30460422027201E-02 
661	 5.26656242274989E-02 
662	 5.22443166336965E-02 
663	 5.18803289620243E-02 
664	 5.19016166977204E-02 
665	 0.051906107028231 
666	 5.15492391188701E-02 
667	 5.09993177062972E-02 
668	 5.04024555471207E-02 
669	 4.99465499178219E-02 
670	 4.98980135989006E-02 
671	 5.02633623221089E-02 
672	 5.04397672347457E-02 
673	 0.050422298725887 
674	 5.02798119951592E-02 
675	 5.03599385273526E-02 
676	 5.06441632182774E-02 
677	 5.07430065333003E-02 
678	 5.11028654948409E-02 
679	 5.18507682272461E-02 
680	 5.21185980430617E-02 
681	 5.20597830998392E-02 
682	 5.20632335883313E-02 
683	 5.25216126275911E-02 
684	 5.34480026831095E-02 
685	 5.43291938972385E-02 
686	 0.055426507002595 
687	 5.69054295109715E-02 
688	 5.78057221133289E-02 
689	 5.83542932766999E-02 
690	 5.96892464622022E-02 
691	 6.09865520329266E-02 
692	 6.20830848511792E-02 
693	 0.063258389919057 
694	 0.064586261455971 
695	 6.60410640574243E-02 
696	 6.71191685814095E-02 
697	 6.79676305014607E-02 
698	 6.92822921676519E-02 
699	 7.07534435137807E-02 
700	 7.21709619664311E-02 
701	 0.073279299116088 
702	 7.42195292009556E-02 
703	 0.075247007062349 
704	 7.61512758367163E-02 
705	 7.70066379762705E-02 
706	 7.82122479931876E-02 
707	 7.91990066669574E-02 
708	 7.96848786408834E-02 
709	 8.06699846207576E-02 
710	 8.18617001709391E-02 
711	 8.24653728005353E-02 
712	 8.30278621002029E-02 
713	 8.37083378722555E-02 
714	 8.45068595303641E-02 
715	 8.50815058634278E-02 
716	 0.085144677895153 
717	 8.51566513525937E-02 
718	 8.54878321558877E-02 
719	 8.67944524779989E-02 
720	 8.79851759795764E-02 
721	 8.85981283094908E-02 
722	 8.91989846780678E-02 
723	 8.97196640406843E-02 
724	 8.99917581246957E-02 
725	 9.04089240833204E-02 
726	 9.09748777989248E-02 
727	 9.14695885377577E-02 
728	 9.19924761037898E-02 
729	 9.25682995585948E-02 
730	 9.29953380355379E-02 
731	 9.34816653644562E-02 
732	 9.43249317694915E-02 
733	 9.49168758017615E-02 
734	 9.52450838581552E-02 
735	 9.56951213713208E-02 
736	 9.61772645938833E-02 
737	 9.66656371859376E-02 
738	 9.76506148349279E-02 
739	 9.86567100056399E-02 
740	 9.86935527377691E-02 
741	 9.87927477932202E-02 
742	 9.92309720876041E-02 
743	 9.96652585079837E-02 
744	 0.100230595117562 
745	 0.10101279377061 
746	 0.101521068179995 
747	 0.101760896316735 
748	 0.101899992585215 
749	 0.102432264053104 
750	 0.103415123209128 
751	 0.104046286072831 
752	 0.104313533841575 
753	 0.104297046367536 
754	 0.104379160313976 
755	 0.104700780765501 
756	 0.10541740166948 
757	 0.105917053023262 
758	 0.105947077887405 
759	 0.105863183645612 
760	 0.105803464138173 
761	 0.106136792067371 
762	 0.106404995010784 
763	 0.10667196479011 
764	 0.107549079617527 
765	 0.108359441950996 
766	 0.108867993168555 
767	 0.109390189303969 
768	 0.109936949610038 
769	 0.110485277283114 
770	 0.11105774125778 
771	 0.111636117001304 
772	 0.112202672331647 
773	 0.112540486597824 
774	 0.112598824328954 
775	 0.1133454261453 
776	 0.114212817375527 
777	 0.113918264282959 
778	 0.113986714890481 
779	 0.114713752697316 
780	 0.115260732733182 
781	 0.115612850886787 
782	 0.115809572682845 
783	 0.116250531165965 
784	 0.116819364840172 
785	 0.117127135791381 
786	 0.117306659096861 
787	 0.11749287376286 
788	 0.118124618100553 
789	 0.118721783421877 
790	 0.118854953048123 
791	 0.119393716540948 
792	 0.120093547162178 
793	 0.119880449041509 
794	 0.120285900846356 
795	 0.121542877841868 
796	 0.121879513990696 
797	 0.12174098715445 
798	 0.121699718915033 
799	 0.121735982726905 
800	 0.121987989753892 
801	 0.122837356000401 
802	 0.123261496879985 
803	 0.123095308698155 
804	 0.123973981690562 
805	 0.12501147673759 
806	 0.125175269662374 
807	 0.12551405682568 
808	 0.125939995081048 
809	 0.125455944721505 
810	 0.125559524785925 
811	 0.126711007148241 
812	 0.127163027194402 
813	 0.127212555946515 
814	 0.127434513784842 
815	 0.126919889099955 
816	 0.126195863510051 
817	 0.127569336066536 
818	 0.128720286384183 
819	 0.128847925444128 
820	 0.129855584648938 
821	 0.130831219153159 
822	 0.130574387228316 
823	 0.130419830926682 
824	 0.130824025391559 
825	 0.13222704444331 
826	 0.132979288137387 
827	 0.132617320481012 
828	 0.132990728030045 
829	 0.133605711365519 
830	 0.133651256598141 
831	 0.133517758056357 
832	 0.1335007766045 
833	 0.134108794964555 
834	 0.135047176861969 
835	 0.13608102189004 
836	 0.136863979469481 
837	 0.137213367604652 
838	 0.137008822696744 
839	 0.137436934831045 
840	 0.138231821396312 
841	 0.137770398085993 
842	 0.137736306913375 
843	 0.138647049449846 
844	 0.138960092555903 
845	 0.13927805255565 
846	 0.14034300341277 
847	 0.140302995818428 
848	 0.139429806715673 
849	 0.139647105769031 
850	 0.139741503792468 
851	 0.139397147217482 
852	 0.139639587043863 
853	 0.140049291618937 
854	 0.140100290554581 
855	 0.139898777104955 
856	 0.140116483824049 
857	 0.14257477013361 
858	 0.143838877704697 
859	 0.143117689865672 
860	 0.14310943638155 
861	 0.143270295637917 
862	 0.142992021863548 
863	 0.143069061083089 
864	 0.143282752561928 
865	 0.142637811737115 
866	 0.143297378965066 
867	 0.145166488591279 
868	 0.144036215821052 
869	 0.143465687691388 
870	 0.14612477211933 
871	 0.147130174726032 
872	 0.146986250627919 
873	 0.148223507603424 
874	 0.148572951258313 
875	 0.147894556159121 
876	 0.148243431537556 
877	 0.149353677420248 
878	 0.150794223407671 
879	 0.150858057718032 
880	 0.15049345657764 
881	 0.151628955151069 
882	 0.1525454662992 
883	 0.15287520485647 
884	 0.153046193287081 
885	 0.153135387673888 
886	 0.153305455275713 
887	 0.154005271361674 
888	 0.155435768374663 
889	 0.157740695706648 
890	 0.158440160890602 
891	 0.157693271847296 
892	 0.158199906610359 
893	 0.158308442492023 
894	 0.15733841548123 
895	 0.155895423388949 
896	 0.155265876109696 
897	 0.156791812474077 
898	 0.15768522576627 
899	 0.158023987909115 
900	 0.159829532308385 
901	 0.160637420806745 
902	 0.159965213229499 
903	 0.159203193321055 
904	 0.160097677118472 
905	 0.163436595725592 
906	 0.163863252275941 
907	 0.162004064305318 
908	 0.160427303084837 
909	 0.160331916537005 
910	 0.161252943313487 
911	 0.158920107158541 
912	 0.159226863075574 
913	 0.164265197100145 
914	 0.163897312956338 
915	 0.161334317614775 
916	 0.161678773872387 
917	 0.162170435877203 
918	 0.161994985712546 
919	 0.159804322200932 
920	 0.160921672701764 
921	 0.165926258631242 
922	 0.16776730440812 
923	 0.166999815570821 
924	 0.164707690230804 
925	 0.164407719663301 
926	 0.165678448822118 
927	 0.166020216733158 
928	 0.164356801987394 
929	 0.161339398782103 
930	 0.163422110482454 
931	 0.16444924568896 
932	 0.15938065530862 
933	 0.155134912996373 
934	 0.152016539789931 
935	 0.148944895371348 
936	 0.152661825446237 
937	 0.159946393064724 
938	 0.159265030479806 
939	 0.154920396612806 
940	 0.149682216751532 
941	 0.148619211155716 
942	 0.148783940324417 
943	 0.14794559437322 
944	 0.148019951361793 
945	 0.147036487620643 
946	 0.141657158964309 
947	 0.1415337092857 
948	 0.1463666659833 
949	 0.147115738770494 
950	 0.144935168563902 
951	 0.141700693333565 
952	 0.144917397506269 
953	 0.150109903333042 
954	 0.152514454936303 
955	 0.148381052985699 
956	 0.14217713369685 
957	 0.142637199668796 
958	 0.142541296844332 
959	 0.142116966991357 
960	 0.149093462228076 
961	 0.151298414086902 
962	 0.145344640139161 
963	 0.146149044181114 
964	 0.147635744309452 
965	 0.143340388005649 
966	 0.139105477572818 
967	 0.139179024537144 
968	 0.149883166174501 
969	 0.152584192836723 
970	 0.145612760925474 
971	 0.14371152644354 
972	 0.143603813786397 
973	 0.144202496834119 
974	 0.150731049612816 
975	 0.156428385250799 
976	 0.15401195652502 
977	 0.150568452899591 
978	 0.147929675510045 
979	 0.146457694506858 
980	 0.147444353507768 
981	 0.149912361515797 
982	 0.148391028761965 
983	 0.150097630078423 
984	 0.156618739883766 
985	 0.151946868885036 
986	 0.146341714959871 
987	 0.15157129588261 
988	 0.158744415390238 
989	 0.16329999860783 
990	 0.159767012612805 
991	 0.155426763069718 
992	 0.153764179874038 
993	 0.158438646658598 
994	 0.161555322026098 
995	 0.159662620689985 
996	 0.159311300357947 
997	 0.160331734509087 
998	 0.161986373631666 
999	 0.163340399871962 
1000	 0.163656362874051 
1001	 0.162147859561658 
1002	 0.160853743049383 
1003	 0.159811687733087 
1004	 0.157001987948527 
1005	 0.154908566850474 
1006	 0.155254365091156 
1007	 0.160309970670151 
1008	 0.167131713155944 
1009	 0.172205908129319 
1010	 0.172043527871562 
1011	 0.166486884720654 
1012	 0.156607785115334 
1013	 0.157966548347099 
1014	 0.167223234054017 
1015	 0.167010762429348 
1016	 0.167612150179167 
1017	 0.170050218966724 
1018	 0.166339206780108 
1019	 0.160895639576425 
1020	 0.158575376719304 
1021	 0.170934944391881 
1022	 0.179379260986583 
1023	 0.167794431190572 
1024	 0.170069437764311 
1025	 0.181960918432385 
1026	 0.186990216230829 
1027	 0.176757764857956 
1028	 0.160148136298001 
1029	 0.174138307953118 
1030	 0.177673569404935 
1031	 0.16482962639261 
1032	 0.177235522505638 
1033	 0.188846565558029 
1034	 0.184992898218617 
1035	 0.18512572210721 
1036	 0.185070358639642 
1037	 0.179393810633142 
1038	 0.180696553752525 
1039	 0.183011018940196 
1040	 0.173087384207602 
1041	 0.172082767168365 
1042	 0.179241532791335 
1043	 0.174493476214064 
1044	 0.173116006781481 
1045	 0.176921637807505 
1046	 0.169954231415942 
1047	 0.16902887254723 
1048	 0.180630763316152 
1049	 0.175702384512122 
1050	 0.170254263231796 
1051	 0.180495866737114 
1052	 0.185427022236635 
1053	 0.185572512076985 
1054	 0.186409319570927 
1055	 0.191520505018216 
1056	 0.195181695238821 
1057	 0.180974700495117 
1058	 0.174968386344231 
1059	 0.183151608994558 
1060	 0.200957747125787 
1061	 0.191832840861888 
1062	 0.155121755049256 
1063	 0.18161513956625 
1064	 0.202415602346914 
1065	 0.170468792214218 
1066	 0.154067194046275 
1067	 0.170636948314688 
1068	 0.21879312324506 
1069	 0.198643016076969 
1070	 0.147903934196718 
1071	 0.164042434199435 
1072	 0.15942900138294 
1073	 0.140317449526709 
1074	 0.178968086601996 
1075	 0.179040122791795 
