Wavelength	AVEI200410.asd
325	 4.13950478400107E-02 
326	 2.95586133357533E-02 
327	 1.83448110340607E-02 
328	 2.46593869499849E-02 
329	 3.12640952165383E-02 
330	 3.20316757036048E-02 
331	 3.34221615047736E-02 
332	 3.27144022103981E-02 
333	 2.75084578752022E-02 
334	 2.99516171314281E-02 
335	 3.56328990654566E-02 
336	 2.87712196635192E-02 
337	 0.02613776564208 
338	 0.031158984542137 
339	 3.32665459199449E-02 
340	 3.56539958451094E-02 
341	 4.06158964374579E-02 
342	 3.96320219806054E-02 
343	 0.035110617513118 
344	 3.38630672941844E-02 
345	 3.32349721723934E-02 
346	 3.25761386029841E-02 
347	 3.15017598168723E-02 
348	 3.19775428055256E-02 
349	 3.45901012521777E-02 
350	 3.21282008806574E-02 
351	 2.87862379728892E-02 
352	 3.27583413334801E-02 
353	 3.43662191904677E-02 
354	 3.23290209674605E-02 
355	 3.12278515460421E-02 
356	 0.031179566448139 
357	 3.20680773850287E-02 
358	 3.26442316120399E-02 
359	 3.23863008935424E-02 
360	 3.07727929084703E-02 
361	 3.10144083062589E-02 
362	 3.27608406212317E-02 
363	 3.18205569368292E-02 
364	 3.14079454268124E-02 
365	 3.27856490132204E-02 
366	 3.17650198925674E-02 
367	 3.05361112367532E-02 
368	 3.25487155015094E-02 
369	 3.36943346513553E-02 
370	 3.32290023180988E-02 
371	 3.19188623251573E-02 
372	 3.14152371932738E-02 
373	 3.23937528196543E-02 
374	 3.24437487191577E-02 
375	 3.17760806355457E-02 
376	 3.10790891544597E-02 
377	 3.17447337959007E-02 
378	 3.30951257067633E-02 
379	 3.16736465912971E-02 
380	 3.04473951760554E-02 
381	 3.07860564744964E-02 
382	 3.07433346254633E-02 
383	 3.06030030047502E-02 
384	 3.09629498685571E-02 
385	 0.031216600976446 
386	 3.12690611565783E-02 
387	 0.031353078750588 
388	 3.14255494659121E-02 
389	 3.13533720055491E-02 
390	 3.02886895894136E-02 
391	 2.97295652532942E-02 
392	 3.13870461015881E-02 
393	 3.18845988385103E-02 
394	 3.09183895073586E-02 
395	 2.95625726594938E-02 
396	 2.98434075571558E-02 
397	 3.19860525074408E-02 
398	 3.21739590899477E-02 
399	 3.09325897752593E-02 
400	 2.92625942811254E-02 
401	 0.028926278784872 
402	 2.96761511629908E-02 
403	 3.00687990001573E-02 
404	 3.02888536062892E-02 
405	 3.04115596528042E-02 
406	 3.06769683991902E-02 
407	 3.06665291228146E-02 
408	 2.98629767497431E-02 
409	 2.99328636353489E-02 
410	 3.06954437157874E-02 
411	 3.05300732389835E-02 
412	 3.00045279767367E-02 
413	 2.94901601826087E-02 
414	 2.94691829890184E-02 
415	 2.97374674941284E-02 
416	 2.99587953230474E-02 
417	 3.02351696947459E-02 
418	 3.04531932295618E-02 
419	 3.01970229193604E-02 
420	 3.01325572883743E-02 
421	 0.030543947163067 
422	 3.06679225017334E-02 
423	 3.05156687785701E-02 
424	 0.030232530031648 
425	 3.02149428320116E-02 
426	 3.03843923438278E-02 
427	 2.99596055417978E-02 
428	 2.98185018195061E-02 
429	 3.04096108298997E-02 
430	 3.03996094163348E-02 
431	 0.030142880742354 
432	 3.05622983459096E-02 
433	 0.030480130038723 
434	 2.98892806971129E-02 
435	 2.99111061585292E-02 
436	 3.01491834081887E-02 
437	 3.03302575562796E-02 
438	 3.06330724622987E-02 
439	 0.030896645918217 
440	 3.07795727750438E-02 
441	 0.030842972640125 
442	 3.11679364992472E-02 
443	 3.13160920436344E-02 
444	 3.13407666913811E-02 
445	 3.13250360139162E-02 
446	 3.15923950819884E-02 
447	 3.19061691907812E-02 
448	 3.16165184545443E-02 
449	 3.12499032642083E-02 
450	 3.11020445491002E-02 
451	 3.16502277545484E-02 
452	 3.21298838915646E-02 
453	 3.17987540020982E-02 
454	 0.031573487048712 
455	 3.17035258547939E-02 
456	 3.23990319931285E-02 
457	 3.27528160294216E-02 
458	 0.032478387692879 
459	 3.24880271615506E-02 
460	 3.26389827845427E-02 
461	 3.26712218713056E-02 
462	 3.28145473176744E-02 
463	 3.29942586935353E-02 
464	 3.27563189814405E-02 
465	 3.29694175823519E-02 
466	 3.38343176134411E-02 
467	 3.33162164777569E-02 
468	 3.23956391331614E-02 
469	 0.032835881987487 
470	 3.32537686176208E-02 
471	 3.33728250149043E-02 
472	 3.35813591884237E-02 
473	 3.36629518191283E-02 
474	 3.35298844864111E-02 
475	 3.36981391412789E-02 
476	 3.38310050948489E-02 
477	 3.31643448413179E-02 
478	 3.31456358351747E-02 
479	 3.39610496831149E-02 
480	 3.45176467063671E-02 
481	 3.46212966995345E-02 
482	 3.41871100455383E-02 
483	 3.38367420212791E-02 
484	 3.37505608255456E-02 
485	 3.40517313566043E-02 
486	 3.43483971263168E-02 
487	 3.44645872312159E-02 
488	 3.44266059948989E-02 
489	 3.44323604551652E-02 
490	 3.46713586248616E-02 
491	 3.49192974717914E-02 
492	 3.50769094736124E-02 
493	 3.50196386409904E-02 
494	 3.48793011602498E-02 
495	 3.48103713330472E-02 
496	 3.53267420490965E-02 
497	 3.58927621740224E-02 
498	 3.57673326291104E-02 
499	 3.55499310002977E-02 
500	 3.55201564003164E-02 
501	 3.60743203509042E-02 
502	 3.65826185890204E-02 
503	 3.66804675933685E-02 
504	 3.68388414655655E-02 
505	 3.71006897460423E-02 
506	 3.74281816112271E-02 
507	 3.78252725150746E-02 
508	 3.82142343844492E-02 
509	 3.83261191847931E-02 
510	 3.83448872452923E-02 
511	 0.038451625113914 
512	 3.88977706178375E-02 
513	 3.94756697629038E-02 
514	 3.96120569372629E-02 
515	 3.96764393970631E-02 
516	 3.98803595133287E-02 
517	 4.06232572929266E-02 
518	 4.12877189348419E-02 
519	 4.12119784133906E-02 
520	 4.15208955860119E-02 
521	 4.22103420052596E-02 
522	 4.26864513936994E-02 
523	 4.28333848883436E-02 
524	 4.26739661931232E-02 
525	 4.28014412586388E-02 
526	 4.31833845701961E-02 
527	 4.36659441420066E-02 
528	 4.41536184651529E-02 
529	 0.044614633316042 
530	 4.51572967859155E-02 
531	 4.54794588484903E-02 
532	 4.54433681320715E-02 
533	 4.57123591324173E-02 
534	 4.62160455208854E-02 
535	 4.66500981582257E-02 
536	 4.67470478116451E-02 
537	 4.65529078575357E-02 
538	 4.67239712320043E-02 
539	 4.71336125413205E-02 
540	 0.047613663259984 
541	 0.0480472958046 
542	 4.83552785686515E-02 
543	 4.84286260286582E-02 
544	 4.85354595720964E-02 
545	 4.87746447914686E-02 
546	 4.89398738989898E-02 
547	 0.049035468798206 
548	 0.049090835193742 
549	 4.93041250843695E-02 
550	 4.96028473833611E-02 
551	 4.95313856941597E-02 
552	 4.95759765977475E-02 
553	 5.00075880399792E-02 
554	 5.03293743093621E-02 
555	 5.05153019179976E-02 
556	 5.06497898443964E-02 
557	 5.08501148146824E-02 
558	 5.11006690119601E-02 
559	 5.11045440572749E-02 
560	 5.11176893004979E-02 
561	 5.13682444193752E-02 
562	 5.14951287748392E-02 
563	 5.14887180812018E-02 
564	 5.14806857922183E-02 
565	 5.16253915198575E-02 
566	 5.18858112414482E-02 
567	 5.15650883459362E-02 
568	 5.11693531299046E-02 
569	 5.14217487258719E-02 
570	 0.051471096430028 
571	 5.13117780772956E-02 
572	 5.16825747679858E-02 
573	 5.20467705132993E-02 
574	 5.20689021333329E-02 
575	 5.18887860024817E-02 
576	 5.17144573937297E-02 
577	 5.19006728769809E-02 
578	 5.19137009946805E-02 
579	 0.051654309922856 
580	 5.14639338119468E-02 
581	 5.14231435621764E-02 
582	 5.15802626790425E-02 
583	 0.051763619650716 
584	 0.051965460946236 
585	 5.23557523373663E-02 
586	 5.22925180021774E-02 
587	 5.17036567237232E-02 
588	 5.19765191988013E-02 
589	 5.24873645943329E-02 
590	 5.22337163593209E-02 
591	 5.22188264468242E-02 
592	 5.25326827640049E-02 
593	 5.26804093149522E-02 
594	 0.052684563800567 
595	 5.25879643358726E-02 
596	 5.26790849170492E-02 
597	 5.28702884005889E-02 
598	 5.29274875075945E-02 
599	 5.31108091277045E-02 
600	 5.34101635540939E-02 
601	 5.34376702203268E-02 
602	 5.34668123299586E-02 
603	 0.053712932156806 
604	 0.053603458210148 
605	 5.32009309140486E-02 
606	 5.28319481544324E-02 
607	 5.28699123093606E-02 
608	 5.33713334354628E-02 
609	 5.35351403116112E-02 
610	 5.34446519783612E-02 
611	 5.33105792520289E-02 
612	 5.34451946540954E-02 
613	 5.37387667844123E-02 
614	 5.35532969273999E-02 
615	 5.31951424549652E-02 
616	 5.28831649980153E-02 
617	 5.27334404198853E-02 
618	 5.27022761504116E-02 
619	 5.26635228252781E-02 
620	 5.27614540806498E-02 
621	 5.29034257901696E-02 
622	 0.052466498761464 
623	 5.22860139308501E-02 
624	 5.30548524886613E-02 
625	 5.33362215898812E-02 
626	 5.31738709150063E-02 
627	 5.34851678676135E-02 
628	 5.35491201778515E-02 
629	 5.32009430156857E-02 
630	 5.31341728861647E-02 
631	 0.053468599802957 
632	 5.42506459651118E-02 
633	 5.44043799197552E-02 
634	 5.40278952414131E-02 
635	 5.44364959772057E-02 
636	 5.46059317888035E-02 
637	 5.40498747002694E-02 
638	 5.40006451298276E-02 
639	 5.42328351216764E-02 
640	 0.054044455646649 
641	 5.39293136949762E-02 
642	 5.40555099890952E-02 
643	 5.45712291149793E-02 
644	 0.054720864280553 
645	 5.39033288497077E-02 
646	 5.34118529809787E-02 
647	 5.33439773865173E-02 
648	 0.053222342772281 
649	 5.31799576693116E-02 
650	 5.32753458212393E-02 
651	 5.37170757185897E-02 
652	 5.39381796584619E-02 
653	 5.32732014231563E-02 
654	 5.30335569022099E-02 
655	 5.33303252944981E-02 
656	 5.34356519965084E-02 
657	 5.29492298767525E-02 
658	 5.18610782703733E-02 
659	 5.16389075665649E-02 
660	 5.18595765496519E-02 
661	 5.16044363616512E-02 
662	 5.12133378477439E-02 
663	 5.07818443172253E-02 
664	 0.050334754393076 
665	 5.01163020843854E-02 
666	 5.02780650984045E-02 
667	 5.01561045310486E-02 
668	 4.97805403811263E-02 
669	 0.049572412201917 
670	 4.91475751916667E-02 
671	 4.84825643231513E-02 
672	 4.81184787457781E-02 
673	 4.81873456357584E-02 
674	 4.87586821558091E-02 
675	 4.91547728459761E-02 
676	 4.93365392177792E-02 
677	 4.97793750445487E-02 
678	 5.01445798315907E-02 
679	 5.02990968561291E-02 
680	 5.06016644833247E-02 
681	 5.11712459526368E-02 
682	 0.05212515330878 
683	 5.30028636953768E-02 
684	 5.37001780312278E-02 
685	 5.44591300119774E-02 
686	 5.53923319845302E-02 
687	 0.056592536611005 
688	 5.79021795658179E-02 
689	 0.059324675844548 
690	 6.13253326963797E-02 
691	 6.28474275265496E-02 
692	 6.38506586785819E-02 
693	 6.55330396092978E-02 
694	 6.77054238080059E-02 
695	 0.069953304391921 
696	 7.20275346254988E-02 
697	 7.38407177787663E-02 
698	 7.53879278470304E-02 
699	 0.077026935171009 
700	 7.89217788534961E-02 
701	 8.09843371892682E-02 
702	 8.31547581855916E-02 
703	 8.54011673365995E-02 
704	 8.68619361168696E-02 
705	 8.77700983311735E-02 
706	 8.95929320350614E-02 
707	 9.12512766697931E-02 
708	 9.21040148812502E-02 
709	 9.28917673235855E-02 
710	 9.39727306220765E-02 
711	 9.58489834299839E-02 
712	 9.70884164049923E-02 
713	 0.097636054551187 
714	 9.95067441339986E-02 
715	 0.101465592244435 
716	 0.102406724345965 
717	 0.103690122492019 
718	 0.105343745315218 
719	 0.106199706763534 
720	 0.106783046285675 
721	 0.107326883535548 
722	 0.107784294552309 
723	 0.10866720894886 
724	 0.110511999029712 
725	 0.111521472864435 
726	 0.111599886865383 
727	 0.112219121099168 
728	 0.113119921234669 
729	 0.114061510884632 
730	 0.114026007035033 
731	 0.114068253511737 
732	 0.115698040057365 
733	 0.116640042369712 
734	 0.116608621646953 
735	 0.116177713212042 
736	 0.116342062745991 
737	 0.117603414147374 
738	 0.118005788263339 
739	 0.117892668516053 
740	 0.118377886775559 
741	 0.119328305726046 
742	 0.120391984104006 
743	 0.120205141071528 
744	 0.119969905160479 
745	 0.12069589030577 
746	 0.121487644449374 
747	 0.122082567871985 
748	 0.122248231695847 
749	 0.122390762227551 
750	 0.122696310995497 
751	 0.123186885646607 
752	 0.123790073246575 
753	 0.124421191101733 
754	 0.125156122547429 
755	 0.125700285276608 
756	 0.125096272496463 
757	 0.125016285925162 
758	 0.12618325534246 
759	 0.127040749913705 
760	 0.127893513062601 
761	 0.12897469096092 
762	 0.130724435243652 
763	 0.131954951808483 
764	 0.130168727932762 
765	 0.129171379073525 
766	 0.129823918187525 
767	 0.130075157166916 
768	 0.130015465687647 
769	 0.129838998513109 
770	 0.130176012863832 
771	 0.130985179824891 
772	 0.1315094904637 
773	 0.131936392192932 
774	 0.132376270733953 
775	 0.132732654760213 
776	 0.1329392457901 
777	 0.132870799881492 
778	 0.13315093411077 
779	 0.133845556997561 
780	 0.134348253258074 
781	 0.134663743672914 
782	 0.134866603957033 
783	 0.135620032197608 
784	 0.136515557180794 
785	 0.136422237220758 
786	 0.136572039918639 
787	 0.137211751620088 
788	 0.137329774450599 
789	 0.137461490796285 
790	 0.138121986185797 
791	 0.138771609497206 
792	 0.139166603335382 
793	 0.138964804017153 
794	 0.138849876479507 
795	 0.139138446919645 
796	 0.139925644415069 
797	 0.140726667920046 
798	 0.14106025762722 
799	 0.141246882545215 
800	 0.141540894164272 
801	 0.142565069020854 
802	 0.142840495501576 
803	 0.142113492885612 
804	 0.142474845980969 
805	 0.143459834176623 
806	 0.144373142707637 
807	 0.14459091260026 
808	 0.144381736141507 
809	 0.144957370427337 
810	 0.145616144029759 
811	 0.14605439509275 
812	 0.146288086581806 
813	 0.146708503557301 
814	 0.1478138887767 
815	 0.148388210759732 
816	 0.148454892071651 
817	 0.149324425648526 
818	 0.149896960026289 
819	 0.149798381315686 
820	 0.149670154656079 
821	 0.149561706655364 
822	 0.149481682038595 
823	 0.149838785819672 
824	 0.150550110472166 
825	 0.151187710017619 
826	 0.151674323005119 
827	 0.152042102997655 
828	 0.152855094673768 
829	 0.15310001001127 
830	 0.151615402793128 
831	 0.152049311586155 
832	 0.154086178688329 
833	 0.15456775374501 
834	 0.154655755018034 
835	 0.154680595883432 
836	 0.153753646901923 
837	 0.153273309953151 
838	 0.154769299294283 
839	 0.15580406582035 
840	 0.156048393380853 
841	 0.156215506479594 
842	 0.156124946890801 
843	 0.155872805760864 
844	 0.156222055370155 
845	 0.156760715743271 
846	 0.156928805708789 
847	 0.155894935481925 
848	 0.154650369293749 
849	 0.156570524789081 
850	 0.158192182482082 
851	 0.158203738874401 
852	 0.158206621344267 
853	 0.158374121215355 
854	 0.158778984747713 
855	 0.159533628929285 
856	 0.160334773825073 
857	 0.160392208929578 
858	 0.160756569873996 
859	 0.161353787646658 
860	 0.15966338837341 
861	 0.15884206242323 
862	 0.161629757390618 
863	 0.161624903652188 
864	 0.159593323534835 
865	 0.160177877191389 
866	 0.161559967108803 
867	 0.16270794599488 
868	 0.161617066097956 
869	 0.16037709414117 
870	 0.16080923902745 
871	 0.162739813756192 
872	 0.164397010088077 
873	 0.162384664401831 
874	 0.161669665464316 
875	 0.163473973575224 
876	 0.166057163501474 
877	 0.167632957273066 
878	 0.167084497234812 
879	 0.166252704764076 
880	 0.166099824120748 
881	 0.167641526773073 
882	 0.169699061367791 
883	 0.171038890851139 
884	 0.168736263469684 
885	 0.167437737060507 
886	 0.169386513965883 
887	 0.169832564601671 
888	 0.16947601942038 
889	 0.169925930481151 
890	 0.169753443900291 
891	 0.169315348066025 
892	 0.170834003269331 
893	 0.171901381765674 
894	 0.171692849305767 
895	 0.173227909093497 
896	 0.17495094088127 
897	 0.174732627250645 
898	 0.174684457295388 
899	 0.175595464423496 
900	 0.178543425772595 
901	 0.177984204902126 
902	 0.174067223969752 
903	 0.176496096937569 
904	 0.177772874750386 
905	 0.172930305104294 
906	 0.174363449802016 
907	 0.178961707531657 
908	 0.177888267922273 
909	 0.175706940073843 
910	 0.174358598810784 
911	 0.175930145147497 
912	 0.178887282697164 
913	 0.181477406158814 
914	 0.179184515777479 
915	 0.176127902099684 
916	 0.177690049407644 
917	 0.180326101972802 
918	 0.182546615943675 
919	 0.182903381922939 
920	 0.181060881267586 
921	 0.177924850274429 
922	 0.178250859259602 
923	 0.180395385787514 
924	 0.182363332706378 
925	 0.18138939393184 
926	 0.178118165046034 
927	 0.175271834805571 
928	 0.175717815735491 
929	 0.179393754872086 
930	 0.1777166169372 
931	 0.179582299651406 
932	 0.190569706000804 
933	 0.188075131300969 
934	 0.178979196242107 
935	 0.179778227952494 
936	 0.179474180597426 
937	 0.177347630119752 
938	 0.177440255511772 
939	 0.180703540241804 
940	 0.186139460321993 
941	 0.189502979698435 
942	 0.189258951158696 
943	 0.185799502096154 
944	 0.19271870205207 
945	 0.200344167932989 
946	 0.191036173731112 
947	 0.183993721476244 
948	 0.183728470300227 
949	 0.186988954508315 
950	 0.190978793313467 
951	 0.192119055399999 
952	 0.178361019759188 
953	 0.172579019453384 
954	 0.192585333444659 
955	 0.192749537614204 
956	 0.178534164214886 
957	 0.172036777355079 
958	 0.175663119024174 
959	 0.185499643124174 
960	 0.187576868367283 
961	 0.180979856610993 
962	 0.169995226057761 
963	 0.179130492477556 
964	 0.190511630087279 
965	 0.186922301822016 
966	 0.18507667218612 
967	 0.184800504448805 
968	 0.180004129651389 
969	 0.180432580431343 
970	 0.185822824939628 
971	 0.185282808125865 
972	 0.18363993346864 
973	 0.183820822592345 
974	 0.18698520377963 
975	 0.18873137455518 
976	 0.184438286489969 
977	 0.179378517780334 
978	 0.176430237229095 
979	 0.179144265637336 
980	 0.183141368479364 
981	 0.185943878060637 
982	 0.183499840674681 
983	 0.184137514704936 
984	 0.190389042796429 
985	 0.188968330408052 
986	 0.184362935823337 
987	 0.182419425271593 
988	 0.178785836521528 
989	 0.177459108760675 
990	 0.187885637190816 
991	 0.189433303377782 
992	 0.182022925803431 
993	 0.187069233880448 
994	 0.191603329019985 
995	 0.190016976971403 
996	 0.191655446845299 
997	 0.190297578838838 
998	 0.180806166341721 
999	 0.181851769253845 
1000	 0.189630381213866 
1001	 0.191829940172153 
1002	 0.190907472165549 
1003	 0.188808522564716 
1004	 0.190480688296285 
1005	 0.192621573597888 
1006	 0.193299485077949 
1007	 0.190924629381844 
1008	 0.186610816057455 
1009	 0.18240803400313 
1010	 0.184891342696242 
1011	 0.193274341394961 
1012	 0.204191014047178 
1013	 0.195277878471663 
1014	 0.175187966676196 
1015	 0.175917934418932 
1016	 0.186373077944686 
1017	 0.198498515376539 
1018	 0.194832155975056 
1019	 0.186588777523441 
1020	 0.182923211474975 
1021	 0.1968110621822 
1022	 0.208499072229587 
1023	 0.199386179175006 
1024	 0.198416534961155 
1025	 0.203323550207688 
1026	 0.202258616517958 
1027	 0.205696660330226 
1028	 0.208329316705957 
1029	 0.184432410460095 
1030	 0.178963634662414 
1031	 0.198786878990302 
1032	 0.193008609195747 
1033	 0.185457323835776 
1034	 0.191072945590867 
1035	 0.202170634635 
1036	 0.20224410933251 
1037	 0.179431191887337 
1038	 0.185473940504901 
1039	 0.204803360564193 
1040	 0.19639227139575 
1041	 0.18540344820611 
1042	 0.178804590619039 
1043	 0.177762910122689 
1044	 0.183087934842328 
1045	 0.190934201459503 
1046	 0.179533932224495 
1047	 0.178297056595555 
1048	 0.196348935818411 
1049	 0.181719366701266 
1050	 0.173982504500426 
1051	 0.209236826086615 
1052	 0.211089847596696 
1053	 0.184978312037341 
1054	 0.160384109346207 
1055	 0.172853692197967 
1056	 0.209864352385857 
1057	 0.215316105439974 
1058	 0.209361094532625 
1059	 0.200385848774849 
1060	 0.199760412837441 
1061	 0.20103420121564 
1062	 0.201901193071115 
1063	 0.208324284961932 
1064	 0.198648595520936 
1065	 0.168242589018346 
1066	 0.185135338690558 
1067	 0.204322657317086 
1068	 0.172495674441138 
1069	 0.150686056230722 
1070	 0.156087710766646 
1071	 0.195504752994534 
1072	 0.192937071259429 
1073	 0.160442065822426 
1074	 0.160635383331408 
1075	 0.188483223741645 
