Wavelength	AVEI200202.asd
325	 0.044109130520366 
326	 5.01463380295231E-02 
327	 6.14074075738544E-02 
328	 4.87151786662839E-02 
329	 4.28718668736828E-02 
330	 5.11994089439338E-02 
331	 4.79370693287761E-02 
332	 4.26969840415389E-02 
333	 4.56904930747373E-02 
334	 4.55821531013064E-02 
335	 4.40144484099055E-02 
336	 5.02567816056306E-02 
337	 5.06281098478634E-02 
338	 4.41344161401036E-02 
339	 4.66380037078501E-02 
340	 5.00865105797319E-02 
341	 4.76008348394264E-02 
342	 4.52492499761658E-02 
343	 4.43201427739217E-02 
344	 4.53640749911513E-02 
345	 0.046838485211993 
346	 4.74717775346029E-02 
347	 4.45668589609306E-02 
348	 4.23082818469085E-02 
349	 0.043198416224982 
350	 4.21508118391175E-02 
351	 4.12529499506299E-02 
352	 4.49882468637778E-02 
353	 4.57137684752852E-02 
354	 0.043564035720266 
355	 4.65662610748153E-02 
356	 4.80464937481812E-02 
357	 0.044757676348418 
358	 4.47932757538371E-02 
359	 4.70487852190605E-02 
360	 4.84528163736197E-02 
361	 4.82722757908994E-02 
362	 4.65226771975024E-02 
363	 4.38350166861467E-02 
364	 4.30113866426092E-02 
365	 0.044962529750297 
366	 4.50121326114726E-02 
367	 4.42007138797942E-02 
368	 4.45698635921078E-02 
369	 4.48585078980016E-02 
370	 4.50958492482566E-02 
371	 4.64708892967294E-02 
372	 4.67761817673446E-02 
373	 0.045200240804003 
374	 4.53139534926134E-02 
375	 4.55410446331116E-02 
376	 4.32723899299239E-02 
377	 4.32930308634518E-02 
378	 4.58112481921436E-02 
379	 4.77811841508077E-02 
380	 0.048419773450154 
381	 4.76002638283345E-02 
382	 4.81420606684148E-02 
383	 4.84498375565855E-02 
384	 0.04614085022071 
385	 4.53824815425279E-02 
386	 4.64281763553236E-02 
387	 4.69681770383348E-02 
388	 4.57554762344279E-02 
389	 4.31257340287536E-02 
390	 4.47766867404445E-02 
391	 4.68609777996938E-02 
392	 4.45447129714627E-02 
393	 0.043846209636494 
394	 4.49365983129488E-02 
395	 4.45405232600635E-02 
396	 4.40812556484206E-02 
397	 4.41240955778112E-02 
398	 4.43789539184845E-02 
399	 4.46562486859232E-02 
400	 4.48005035002202E-02 
401	 4.40071807157363E-02 
402	 4.31275138659622E-02 
403	 4.47159162972296E-02 
404	 4.56470361179846E-02 
405	 4.49241940392554E-02 
406	 4.49911020262118E-02 
407	 4.51526084936304E-02 
408	 4.43183505508427E-02 
409	 4.41028621737389E-02 
410	 4.45983216042259E-02 
411	 4.50891760556275E-02 
412	 4.50723423343876E-02 
413	 4.44449391127508E-02 
414	 0.044179565382981 
415	 4.44140213050057E-02 
416	 0.045173571602986 
417	 4.54988178462369E-02 
418	 4.53600526863805E-02 
419	 4.55201030098741E-02 
420	 4.54382590087811E-02 
421	 4.49750934431432E-02 
422	 4.52246439294834E-02 
423	 4.58648584887599E-02 
424	 4.62551107553886E-02 
425	 4.66513335759801E-02 
426	 4.70143055644199E-02 
427	 4.70688776035218E-02 
428	 4.69853643173778E-02 
429	 4.68643498406589E-02 
430	 4.64940453534343E-02 
431	 4.61574553634052E-02 
432	 4.63482485512657E-02 
433	 4.64841932690986E-02 
434	 4.64959308080061E-02 
435	 4.67885236268023E-02 
436	 4.70104552228275E-02 
437	 4.69492674460169E-02 
438	 4.68615293421078E-02 
439	 4.69280920767634E-02 
440	 4.74281105536693E-02 
441	 0.047707569568638 
442	 4.76613696014398E-02 
443	 4.77800832193804E-02 
444	 4.80237676015885E-02 
445	 4.83234096803195E-02 
446	 4.84234875497007E-02 
447	 4.83620633731948E-02 
448	 4.82977312681145E-02 
449	 4.84077313933059E-02 
450	 4.86737068494274E-02 
451	 4.86378663928162E-02 
452	 4.85262644183108E-02 
453	 4.85915513503691E-02 
454	 4.88317457312305E-02 
455	 0.049128676351343 
456	 4.91523985319652E-02 
457	 4.91971439546881E-02 
458	 4.93859686429487E-02 
459	 4.96768125803915E-02 
460	 4.99375132971888E-02 
461	 5.00224370704835E-02 
462	 5.01154014446499E-02 
463	 5.02272025837857E-02 
464	 5.02737323191493E-02 
465	 5.01725135461519E-02 
466	 4.99755135066078E-02 
467	 5.03683231748225E-02 
468	 5.08563625231976E-02 
469	 5.06234030355906E-02 
470	 5.01815747793371E-02 
471	 4.98637164773023E-02 
472	 5.03011416162007E-02 
473	 5.07153885674244E-02 
474	 5.06319770227856E-02 
475	 5.06460988294113E-02 
476	 5.06163897390865E-02 
477	 0.05009666670375 
478	 5.04005482575649E-02 
479	 5.14995846476977E-02 
480	 5.16354048237415E-02 
481	 5.13762604438136E-02 
482	 5.12597885964916E-02 
483	 5.15648001897202E-02 
484	 5.20521300124587E-02 
485	 5.20321290138676E-02 
486	 5.18050818348149E-02 
487	 5.15555618143265E-02 
488	 5.16868707100187E-02 
489	 5.17807041946271E-02 
490	 5.14240754017942E-02 
491	 5.15012767427783E-02 
492	 5.19334948557306E-02 
493	 5.19937446833033E-02 
494	 5.23201307860312E-02 
495	 5.29865858059676E-02 
496	 5.27198720741292E-02 
497	 5.22556295666498E-02 
498	 5.26814926138985E-02 
499	 5.30862030717991E-02 
500	 5.32673270540659E-02 
501	 5.33650981514636E-02 
502	 5.33577717272258E-02 
503	 5.32434458715841E-02 
504	 5.30200427177647E-02 
505	 5.29314250604924E-02 
506	 5.33789909876682E-02 
507	 5.35966247257209E-02 
508	 0.053501619797928 
509	 5.37536176755895E-02 
510	 0.053998885267974 
511	 5.39729017515658E-02 
512	 5.41600616567747E-02 
513	 5.44559596839235E-02 
514	 0.054391755906376 
515	 5.45884499319305E-02 
516	 5.51096734908095E-02 
517	 5.50822316909761E-02 
518	 5.46876154775827E-02 
519	 5.42328825708527E-02 
520	 5.43711113831392E-02 
521	 5.49245404549725E-02 
522	 5.50380300946779E-02 
523	 5.50764210655687E-02 
524	 5.52256705518547E-02 
525	 5.56247734653734E-02 
526	 5.60633207796184E-02 
527	 5.62327687421734E-02 
528	 0.056025266313086 
529	 5.56476298283285E-02 
530	 5.58601665180615E-02 
531	 5.61946582114729E-02 
532	 5.63272599955247E-02 
533	 5.62923962881394E-02 
534	 5.63148614026051E-02 
535	 5.68738049783783E-02 
536	 5.70480258859895E-02 
537	 5.67206376254069E-02 
538	 5.68569014488174E-02 
539	 5.70647987246608E-02 
540	 5.69423086365241E-02 
541	 5.69842789743699E-02 
542	 5.71730215802034E-02 
543	 5.71981988261504E-02 
544	 5.72439483064356E-02 
545	 5.73773401479495E-02 
546	 5.75067367406817E-02 
547	 5.76999357588009E-02 
548	 5.80535539660119E-02 
549	 5.81220500333558E-02 
550	 5.79844335578281E-02 
551	 0.058334211302977 
552	 5.85807764518072E-02 
553	 5.84136720197586E-02 
554	 0.058561752415159 
555	 5.89168832460375E-02 
556	 5.91110198140392E-02 
557	 5.90508384906202E-02 
558	 5.88410063340052E-02 
559	 5.91811000676263E-02 
560	 5.94569537771299E-02 
561	 5.91364939953397E-02 
562	 5.93003444711432E-02 
563	 5.98074798376696E-02 
564	 5.97620709312286E-02 
565	 5.96889453148153E-02 
566	 5.97584564976777E-02 
567	 5.96757270668518E-02 
568	 5.96496498110176E-02 
569	 0.059968903399707 
570	 0.060097609086799 
571	 6.00128424126316E-02 
572	 6.01376297935382E-02 
573	 6.02428872587473E-02 
574	 6.02292231053911E-02 
575	 6.05044707174274E-02 
576	 6.07911118920368E-02 
577	 6.04872977466788E-02 
578	 6.01776258315809E-02 
579	 0.060108372382134 
580	 6.04177584975568E-02 
581	 6.08177766554602E-02 
582	 6.10138989213107E-02 
583	 6.06157556851771E-02 
584	 6.00375362283226E-02 
585	 0.060546884895938 
586	 6.09151545788459E-02 
587	 6.07368519883296E-02 
588	 6.07953399394838E-02 
589	 6.10283105182101E-02 
590	 6.12541077481895E-02 
591	 0.061343161996863 
592	 6.12963563706469E-02 
593	 6.12501273387528E-02 
594	 6.12226836837282E-02 
595	 6.12347149930318E-02 
596	 6.12916247092836E-02 
597	 6.14308004856822E-02 
598	 6.17409239090916E-02 
599	 6.17887320084177E-02 
600	 6.15268812496173E-02 
601	 6.13921856229966E-02 
602	 6.13701250323396E-02 
603	 6.14259010994799E-02 
604	 6.14649014736906E-02 
605	 6.14687671610911E-02 
606	 6.14361551317955E-02 
607	 6.14596080719704E-02 
608	 6.15930911672449E-02 
609	 6.19232471281525E-02 
610	 0.062109995765051 
611	 6.17353979551189E-02 
612	 6.17379289071585E-02 
613	 6.21148825838658E-02 
614	 6.20346434791225E-02 
615	 6.18759196229402E-02 
616	 6.18510925905915E-02 
617	 6.16969065137633E-02 
618	 6.15821985352816E-02 
619	 6.18524495486816E-02 
620	 6.20778667719619E-02 
621	 6.21298331945574E-02 
622	 6.20741802078254E-02 
623	 6.20825810173343E-02 
624	 6.22847593105669E-02 
625	 6.22818866391537E-02 
626	 6.21188334033372E-02 
627	 6.20766027510139E-02 
628	 0.0622334369213 
629	 6.25647200256864E-02 
630	 6.27001632052195E-02 
631	 6.25880942207196E-02 
632	 6.22226348147375E-02 
633	 0.062119207495241 
634	 6.23341095180201E-02 
635	 6.25883916489378E-02 
636	 6.27673301876275E-02 
637	 6.27927767072559E-02 
638	 6.27324330579348E-02 
639	 6.26423025252454E-02 
640	 6.25866715713857E-02 
641	 0.062659376919503 
642	 0.06288352218162 
643	 0.063326494527427 
644	 6.32430292686796E-02 
645	 6.21191580396276E-02 
646	 6.22638338090958E-02 
647	 6.33755895281131E-02 
648	 6.34543490447765E-02 
649	 6.34111772892656E-02 
650	 0.06348409482354 
651	 6.31617994318962E-02 
652	 6.27501445603705E-02 
653	 6.26465762943042E-02 
654	 6.29505709286125E-02 
655	 6.33407459862989E-02 
656	 6.25416196626572E-02 
657	 6.18785805580076E-02 
658	 6.21244935784627E-02 
659	 6.25429342552257E-02 
660	 6.28200864257987E-02 
661	 6.26214876575341E-02 
662	 6.23102691846917E-02 
663	 6.20421201629717E-02 
664	 6.18939814061537E-02 
665	 0.062024405021439 
666	 6.24807211210364E-02 
667	 6.22366154237358E-02 
668	 6.15674700195094E-02 
669	 6.15673219390275E-02 
670	 6.17621290455709E-02 
671	 6.19510009509529E-02 
672	 0.06190576862919 
673	 0.061828707858703 
674	 6.19711627869306E-02 
675	 6.20712673873296E-02 
676	 6.21133267343079E-02 
677	 6.22388470871085E-02 
678	 6.23568512267769E-02 
679	 6.24193776234755E-02 
680	 6.24372099278253E-02 
681	 6.25010368170736E-02 
682	 6.27419808310259E-02 
683	 6.31108123668858E-02 
684	 6.35421106107933E-02 
685	 6.39012378588197E-02 
686	 6.41757154364084E-02 
687	 6.43335294232937E-02 
688	 6.43032808137157E-02 
689	 6.43158798713159E-02 
690	 6.49084583778805E-02 
691	 6.52338733219568E-02 
692	 6.51689140943485E-02 
693	 6.55172473402624E-02 
694	 6.59287180102259E-02 
695	 6.59846831635437E-02 
696	 6.59747937504838E-02 
697	 6.60489893412342E-02 
698	 6.64868600841686E-02 
699	 6.67676602329419E-02 
700	 6.66530421726001E-02 
701	 6.64169931811103E-02 
702	 6.65014259552046E-02 
703	 6.74443174703975E-02 
704	 6.74989256569957E-02 
705	 6.67303013938967E-02 
706	 6.68687249766986E-02 
707	 6.74123255359062E-02 
708	 6.79552610814024E-02 
709	 6.79646795407842E-02 
710	 6.76916234466476E-02 
711	 6.77260465402451E-02 
712	 6.80717502730873E-02 
713	 6.85460348874562E-02 
714	 6.82021218230233E-02 
715	 6.80960700958428E-02 
716	 6.92014769291118E-02 
717	 6.94493804318298E-02 
718	 6.87631339611303E-02 
719	 0.068723285290363 
720	 6.89104810513202E-02 
721	 6.90919481118287E-02 
722	 6.89340733121231E-02 
723	 6.87830577887513E-02 
724	 6.90450931871422E-02 
725	 6.90195763310315E-02 
726	 6.88997430724732E-02 
727	 6.98808722221139E-02 
728	 7.04856140356217E-02 
729	 7.00924981414056E-02 
730	 7.00735501373063E-02 
731	 0.070094570055698 
732	 6.95044056842877E-02 
733	 6.91391688072839E-02 
734	 6.91857018250208E-02 
735	 0.069664247632801 
736	 6.99673903018425E-02 
737	 6.97554827991067E-02 
738	 7.00535386915322E-02 
739	 7.05133715181006E-02 
740	 7.01865032850427E-02 
741	 7.03231654157783E-02 
742	 0.070978627088347 
743	 0.070670336087639 
744	 7.03743597499908E-02 
745	 0.070875961550419 
746	 7.09012957033921E-02 
747	 7.05297961340373E-02 
748	 7.04113346683117E-02 
749	 0.070723238632285 
750	 7.13914565578458E-02 
751	 7.15309855110047E-02 
752	 7.14125522212886E-02 
753	 7.14011611638191E-02 
754	 7.14779383966896E-02 
755	 7.16100842655132E-02 
756	 7.16982448996132E-02 
757	 7.16942140511044E-02 
758	 7.16015773719059E-02 
759	 7.16127057272053E-02 
760	 7.22696314872162E-02 
761	 7.43147598232455E-02 
762	 7.48244347758419E-02 
763	 7.38371400134638E-02 
764	 7.34955319505953E-02 
765	 7.32979012714138E-02 
766	 0.073090672277184 
767	 7.29139293243876E-02 
768	 7.27411879497926E-02 
769	 7.25361569961353E-02 
770	 7.26278459731155E-02 
771	 7.29541239341025E-02 
772	 7.30134272347326E-02 
773	 7.29092516432072E-02 
774	 7.27528458648187E-02 
775	 7.28473865600285E-02 
776	 7.31378331919252E-02 
777	 7.34388257271392E-02 
778	 7.38279695094161E-02 
779	 7.41313448491673E-02 
780	 0.073599929639538 
781	 7.31316932973403E-02 
782	 7.34241139461645E-02 
783	 7.37960037671832E-02 
784	 7.39661161897171E-02 
785	 7.35464823021176E-02 
786	 7.34735287877589E-02 
787	 0.073986549018901 
788	 7.45862900063102E-02 
789	 7.46949468582137E-02 
790	 7.38993480318566E-02 
791	 7.38390538262349E-02 
792	 7.43795760801614E-02 
793	 7.44073329217187E-02 
794	 0.074307658215081 
795	 7.42386709511213E-02 
796	 7.43901546981944E-02 
797	 7.47476999487966E-02 
798	 7.52326756739286E-02 
799	 7.50666969345907E-02 
800	 7.44475644316085E-02 
801	 7.42959985068403E-02 
802	 7.44532524862138E-02 
803	 7.48011820107267E-02 
804	 7.48718268409405E-02 
805	 7.49451609480191E-02 
806	 7.53383836958552E-02 
807	 7.55181006752306E-02 
808	 7.53500860361449E-02 
809	 7.46944818770181E-02 
810	 7.44138004512201E-02 
811	 7.48313979038192E-02 
812	 7.50669091874914E-02 
813	 0.075193561153365 
814	 7.54119795762496E-02 
815	 7.58327236364387E-02 
816	 7.63503682424341E-02 
817	 7.65135604091867E-02 
818	 7.68525580392582E-02 
819	 7.73584807319656E-02 
820	 0.076624354116776 
821	 0.075866573514219 
822	 7.65740753631773E-02 
823	 7.64206968215572E-02 
824	 7.57109892923578E-02 
825	 7.69180717893628E-02 
826	 7.74380554083358E-02 
827	 7.64637907292663E-02 
828	 7.61656064489354E-02 
829	 7.65368908371195E-02 
830	 7.72679636147431E-02 
831	 7.74097606077799E-02 
832	 7.70860277667685E-02 
833	 7.74300516823574E-02 
834	 7.72989092388405E-02 
835	 7.64723497421613E-02 
836	 7.65038207515341E-02 
837	 7.70371961830232E-02 
838	 7.74990719761496E-02 
839	 7.72131235104875E-02 
840	 7.64854164167481E-02 
841	 7.66173080575355E-02 
842	 7.68801492061185E-02 
843	 7.69903812146803E-02 
844	 7.71972850343104E-02 
845	 7.72504389386092E-02 
846	 0.076884401494545 
847	 0.076731437966436 
848	 7.68283868650978E-02 
849	 7.68245116358325E-02 
850	 7.69971531581155E-02 
851	 7.73848378093353E-02 
852	 7.75170978778523E-02 
853	 7.77351967879995E-02 
854	 7.83947572455803E-02 
855	 7.86903416030246E-02 
856	 7.85387991895491E-02 
857	 7.81881978429703E-02 
858	 7.75897085887028E-02 
859	 7.69314499448795E-02 
860	 7.70162609067777E-02 
861	 7.74311519570151E-02 
862	 7.77082179102282E-02 
863	 7.76191841537791E-02 
864	 7.72540159785066E-02 
865	 7.69146642338699E-02 
866	 7.70110387543407E-02 
867	 7.75034171813899E-02 
868	 7.73694117515995E-02 
869	 7.74438759800807E-02 
870	 7.82643148553884E-02 
871	 7.77816602731387E-02 
872	 7.67369739001873E-02 
873	 7.70889974769105E-02 
874	 7.84897023854645E-02 
875	 8.00440388789995E-02 
876	 7.85551001355334E-02 
877	 7.73374839129819E-02 
878	 7.85406116344081E-02 
879	 7.88850945233363E-02 
880	 7.83498861179204E-02 
881	 7.76339266224826E-02 
882	 7.76164728791219E-02 
883	 7.83950497740214E-02 
884	 7.93788763343095E-02 
885	 7.95960832858034E-02 
886	 7.87200001354364E-02 
887	 7.86868902452399E-02 
888	 7.92027998860692E-02 
889	 0.079556867285125 
890	 7.89742745599684E-02 
891	 7.79944873894024E-02 
892	 7.90565183274006E-02 
893	 7.97614549390211E-02 
894	 7.91806406863698E-02 
895	 7.93843732968081E-02 
896	 7.99637032979215E-02 
897	 8.01976827192356E-02 
898	 8.01748765786212E-02 
899	 7.98930582215503E-02 
900	 7.93016526639799E-02 
901	 7.92439324101488E-02 
902	 7.97116787612029E-02 
903	 7.90377530401434E-02 
904	 0.079392594028395 
905	 8.20294093033561E-02 
906	 8.21249668262947E-02 
907	 0.080599533764148 
908	 8.03967298990815E-02 
909	 7.97840822945988E-02 
910	 7.90655549857943E-02 
911	 8.12671068199418E-02 
912	 8.17045880158975E-02 
913	 7.89249261094901E-02 
914	 8.29106308385821E-02 
915	 8.74657501321925E-02 
916	 0.084292133931644 
917	 8.06875792022661E-02 
918	 7.87831945866478E-02 
919	 7.97435289894893E-02 
920	 8.03474597712033E-02 
921	 7.96431535809657E-02 
922	 7.93393314135706E-02 
923	 8.00874171844707E-02 
924	 8.20894973736485E-02 
925	 8.08493991311499E-02 
926	 7.86824510116067E-02 
927	 8.28308250717978E-02 
928	 8.44970322188718E-02 
929	 8.15742999436966E-02 
930	 8.12133919850015E-02 
931	 8.23865623099979E-02 
932	 8.38894710652148E-02 
933	 0.082223723614053 
934	 8.16973345677108E-02 
935	 8.91145451895411E-02 
936	 0.088105749863309 
937	 8.05467823167148E-02 
938	 8.16894360690056E-02 
939	 8.30082784775548E-02 
940	 8.24326977480799E-02 
941	 8.21525928856946E-02 
942	 8.41165114122464E-02 
943	 8.82424221209183E-02 
944	 8.12337069697258E-02 
945	 0.072201159152407 
946	 7.85044467979831E-02 
947	 7.62182322462168E-02 
948	 6.81185380445888E-02 
949	 8.48081024663197E-02 
950	 9.14139897704434E-02 
951	 0.079535338031941 
952	 8.87077385402491E-02 
953	 9.54187891766712E-02 
954	 7.84339306018907E-02 
955	 6.96656676736334E-02 
956	 7.26654638906131E-02 
957	 8.37689119978581E-02 
958	 8.70274256293882E-02 
959	 8.13511339606483E-02 
960	 7.91117901149538E-02 
961	 8.05142510980451E-02 
962	 8.38106778833829E-02 
963	 7.82301564299379E-02 
964	 7.34920778482874E-02 
965	 7.91199117827368E-02 
966	 8.52686562429035E-02 
967	 0.088778269360822 
968	 8.67682243281414E-02 
969	 8.65307132035812E-02 
970	 8.83328597330937E-02 
971	 8.47204234845155E-02 
972	 8.20136670467431E-02 
973	 8.34784697615759E-02 
974	 8.54809223242836E-02 
975	 0.086406470778904 
976	 8.49364300466618E-02 
977	 8.14838152582324E-02 
978	 7.86088655512518E-02 
979	 8.11294486368093E-02 
980	 8.36522040903753E-02 
981	 8.51925328152134E-02 
982	 8.99313534000243E-02 
983	 8.81587167647758E-02 
984	 7.79241087574048E-02 
985	 7.97282114534385E-02 
986	 8.87493284932305E-02 
987	 9.68847907836938E-02 
988	 9.35533131018003E-02 
989	 8.41065551929185E-02 
990	 8.28911508931881E-02 
991	 8.22031120068564E-02 
992	 8.18663189844308E-02 
993	 8.88889075136891E-02 
994	 9.23971595827093E-02 
995	 8.81824830004658E-02 
996	 0.086837131612292 
997	 8.36391034629545E-02 
998	 7.44649763703111E-02 
999	 7.52475512934672E-02 
1000	 0.08118675008167 
1001	 7.91063269899966E-02 
1002	 0.07944322463268 
1003	 8.41017790763341E-02 
1004	 9.22794242874108E-02 
1005	 9.18648891645678E-02 
1006	 8.17869517287421E-02 
1007	 8.47214511821507E-02 
1008	 9.12794932150715E-02 
1009	 9.31865302973237E-02 
1010	 0.092631022440162 
1011	 9.24120022790269E-02 
1012	 9.56713281761228E-02 
1013	 9.00837222463912E-02 
1014	 8.16910857440236E-02 
1015	 9.24910676155309E-02 
1016	 0.101039247365985 
1017	 0.101170310678018 
1018	 9.59720013748966E-02 
1019	 8.96842268518606E-02 
1020	 8.58632403565803E-02 
1021	 8.92406945207825E-02 
1022	 9.26093019290836E-02 
1023	 8.91063465609657E-02 
1024	 8.59637663853569E-02 
1025	 8.46220666455548E-02 
1026	 8.52089194277874E-02 
1027	 8.78917071111003E-02 
1028	 9.08296201707678E-02 
1029	 8.90960098635058E-02 
1030	 8.68797623711184E-02 
1031	 8.50741217206761E-02 
1032	 0.07911860817091 
1033	 0.081178295000153 
1034	 9.51361968139706E-02 
1035	 9.38528177489558E-02 
1036	 8.97794975554208E-02 
1037	 9.75681763061945E-02 
1038	 0.10209762334926 
1039	 9.84390719851496E-02 
1040	 8.24282362158545E-02 
1041	 8.24590373635063E-02 
1042	 9.67851952861629E-02 
1043	 9.51950146243453E-02 
1044	 9.61639991152176E-02 
1045	 0.102063654155714 
1046	 0.09556437404595 
1047	 9.40709845113712E-02 
1048	 0.103135858527423 
1049	 0.09068495291003 
1050	 8.60136047451946E-02 
1051	 0.11496416144614 
1052	 9.63672749380703E-02 
1053	 6.69948893155067E-02 
1054	 9.91321165983344E-02 
1055	 0.117405495232475 
1056	 0.116073308191535 
1057	 0.116515673834489 
1058	 0.10975371874607 
1059	 0.101083634570773 
1060	 0.120331015913537 
1061	 0.110296245065555 
1062	 5.82447710926144E-02 
1063	 5.69340917213975E-02 
1064	 8.55767323117038E-02 
1065	 0.118518397115463 
1066	 0.136322445582044 
1067	 0.136212794847322 
1068	 0.119498548147382 
1069	 0.107849367768464 
1070	 9.61614983597479E-02 
1071	 6.73914792738257E-02 
1072	 8.23716848988818E-02 
1073	 0.120625053004351 
1074	 9.57809972747746E-02 
1075	 8.60536002515733E-02 
