Wavelength	AVEI200242.asd
325	 3.82729625159557E-02 
326	 3.61395560607215E-02 
327	 4.40677123231074E-02 
328	 0.044948536173224 
329	 4.62905541631907E-02 
330	 0.05008005319418 
331	 5.16100892774732E-02 
332	 0.0546818962345 
333	 6.23853028167855E-02 
334	 5.56714948377706E-02 
335	 4.18556021525866E-02 
336	 4.49191168111346E-02 
337	 0.048242775428009 
338	 4.72104394033565E-02 
339	 4.57657383187342E-02 
340	 4.54453328030206E-02 
341	 4.69069038495641E-02 
342	 4.40665265618417E-02 
343	 4.03509455579656E-02 
344	 0.044047904360246 
345	 4.61568753766183E-02 
346	 4.53576710895959E-02 
347	 0.047127635324439 
348	 4.71742456753977E-02 
349	 4.33816699180903E-02 
350	 4.38541969863198E-02 
351	 4.63329381736494E-02 
352	 4.57259837074026E-02 
353	 4.30437476604488E-02 
354	 4.02509913274113E-02 
355	 4.34598588644791E-02 
356	 4.65498283710085E-02 
357	 4.58881687481889E-02 
358	 4.42313142650838E-02 
359	 4.28620821632686E-02 
360	 4.30808350614771E-02 
361	 0.044264842574917 
362	 4.52853078439367E-02 
363	 4.31090652687955E-02 
364	 4.10132127416211E-02 
365	 4.08812525089369E-02 
366	 4.21693356893286E-02 
367	 0.04342341635814 
368	 4.28888015557649E-02 
369	 4.22502211694478E-02 
370	 4.19339819675556E-02 
371	 4.20094916458296E-02 
372	 4.15814591351489E-02 
373	 4.04587676794206E-02 
374	 4.08486258228545E-02 
375	 4.20936420806307E-02 
376	 4.29689168492694E-02 
377	 4.24072636699203E-02 
378	 4.11275540863759E-02 
379	 4.25852912209683E-02 
380	 4.31974395780237E-02 
381	 4.16415223385828E-02 
382	 4.20415274541737E-02 
383	 4.24040950837401E-02 
384	 3.97485885978735E-02 
385	 4.07249618909398E-02 
386	 4.39317611305578E-02 
387	 3.98142976648456E-02 
388	 3.66389494925105E-02 
389	 0.038032983945653 
390	 4.09852366667711E-02 
391	 4.23681702064021E-02 
392	 3.91861315484277E-02 
393	 3.82954190787754E-02 
394	 3.98720590419335E-02 
395	 3.99802158898056E-02 
396	 3.95010847819834E-02 
397	 3.89367121581125E-02 
398	 3.91425486257234E-02 
399	 3.94402811335024E-02 
400	 3.90826236938584E-02 
401	 3.80579823227444E-02 
402	 3.70849295219559E-02 
403	 3.79651683598714E-02 
404	 3.85276658704103E-02 
405	 3.79719365714797E-02 
406	 3.72765072684066E-02 
407	 3.67876874647181E-02 
408	 3.68041879270731E-02 
409	 3.73804209347905E-02 
410	 3.80478627836141E-02 
411	 3.74874952975234E-02 
412	 3.70737435730738E-02 
413	 3.73848173833436E-02 
414	 3.75466432072894E-02 
415	 3.76195579148787E-02 
416	 3.77901911035544E-02 
417	 3.80491548480897E-02 
418	 3.81972027672721E-02 
419	 3.75897219897879E-02 
420	 3.71115128365329E-02 
421	 3.72598391209264E-02 
422	 0.037870924578033 
423	 3.82545626623452E-02 
424	 3.74694085184672E-02 
425	 3.69947114053058E-02 
426	 3.72193287953969E-02 
427	 3.81309225035859E-02 
428	 3.84655454118755E-02 
429	 3.75555570080264E-02 
430	 3.71899447226065E-02 
431	 3.72689456051635E-02 
432	 3.72008974354606E-02 
433	 3.69858908582868E-02 
434	 3.67616152599072E-02 
435	 3.70871957129777E-02 
436	 3.73781035198495E-02 
437	 3.72745957251433E-02 
438	 0.037247981974506 
439	 3.73692877151123E-02 
440	 3.76900494372886E-02 
441	 3.75522827583479E-02 
442	 3.69920315056885E-02 
443	 3.70478889425594E-02 
444	 3.73381403133366E-02 
445	 3.75271988710195E-02 
446	 3.78566632450925E-02 
447	 3.81082405261654E-02 
448	 3.77347621965551E-02 
449	 3.73425326283353E-02 
450	 3.71760851409596E-02 
451	 3.72646992763022E-02 
452	 3.73579380898428E-02 
453	 3.72177308734555E-02 
454	 3.71481040744368E-02 
455	 3.71742204278637E-02 
456	 3.72027435124502E-02 
457	 3.71842861008425E-02 
458	 3.71318264050169E-02 
459	 3.72089028813341E-02 
460	 3.75626085463837E-02 
461	 3.83164506242734E-02 
462	 3.82342218175994E-02 
463	 3.74714169044981E-02 
464	 3.74155660152503E-02 
465	 0.037555695492977 
466	 3.76133142861623E-02 
467	 0.037412970791569 
468	 3.72720725967465E-02 
469	 3.76799141919376E-02 
470	 3.80644440948428E-02 
471	 3.82674289810014E-02 
472	 3.83523495704013E-02 
473	 3.84048848236613E-02 
474	 3.84696953939151E-02 
475	 3.84040986741929E-02 
476	 3.82719892316049E-02 
477	 3.82014779885977E-02 
478	 0.038280194285305 
479	 3.84300375977311E-02 
480	 3.81688544335372E-02 
481	 3.80568350335356E-02 
482	 3.85141032616644E-02 
483	 3.88708946644255E-02 
484	 3.89572107883477E-02 
485	 3.86654181244821E-02 
486	 3.82813544901708E-02 
487	 3.80434164321848E-02 
488	 3.84416169149878E-02 
489	 3.88287447650444E-02 
490	 3.85492537419838E-02 
491	 3.83806244606717E-02 
492	 3.84842225197258E-02 
493	 3.89778909632593E-02 
494	 0.038840390633521 
495	 3.78934560516604E-02 
496	 3.80496196513573E-02 
497	 3.87741741763713E-02 
498	 3.91418580197732E-02 
499	 3.94075642291833E-02 
500	 0.03957627774388 
501	 0.039505021887786 
502	 3.96982297142288E-02 
503	 4.03367255802961E-02 
504	 4.01912323618243E-02 
505	 3.99074484707082E-02 
506	 4.08292384020764E-02 
507	 4.15054778811075E-02 
508	 4.16643552149859E-02 
509	 4.20032194526663E-02 
510	 4.23397055003793E-02 
511	 4.25338712231602E-02 
512	 4.27675393396625E-02 
513	 4.32115620962663E-02 
514	 4.42609387346608E-02 
515	 4.49338609743621E-02 
516	 4.50353109029284E-02 
517	 4.57398985675339E-02 
518	 4.65648414719055E-02 
519	 4.69003815753165E-02 
520	 4.70629525432807E-02 
521	 4.72920778592456E-02 
522	 0.048064003114576 
523	 4.86930876548046E-02 
524	 4.89684615472566E-02 
525	 4.97542157231055E-02 
526	 5.06701966910538E-02 
527	 5.10547130228341E-02 
528	 5.14256528329017E-02 
529	 5.19521120369783E-02 
530	 5.28191122063846E-02 
531	 0.053326933306672 
532	 0.053139521453592 
533	 5.37414519520772E-02 
534	 5.46944896160069E-02 
535	 5.47130069249869E-02 
536	 5.46588080082328E-02 
537	 5.48251644639208E-02 
538	 5.51874299089802E-02 
539	 5.57815484404649E-02 
540	 5.65940583632424E-02 
541	 5.69222142065446E-02 
542	 5.68562442562582E-02 
543	 5.70317385457428E-02 
544	 5.72314313016403E-02 
545	 5.74393354981407E-02 
546	 5.80339473316948E-02 
547	 5.85828447884302E-02 
548	 5.84931424921123E-02 
549	 5.86083960326089E-02 
550	 5.90218238223535E-02 
551	 5.92846928732229E-02 
552	 5.94814258124806E-02 
553	 0.059659781319146 
554	 5.98024786544946E-02 
555	 5.99023391177933E-02 
556	 5.99354582011177E-02 
557	 0.060080258170976 
558	 6.03103915210836E-02 
559	 6.02560358531447E-02 
560	 6.00014866676313E-02 
561	 5.96768706860674E-02 
562	 5.97502234481028E-02 
563	 6.00451717673456E-02 
564	 5.98560570433131E-02 
565	 5.96533205412128E-02 
566	 5.96333880607034E-02 
567	 5.98194846558574E-02 
568	 5.98770374358727E-02 
569	 5.93865535759061E-02 
570	 5.89231126047227E-02 
571	 5.86152672591473E-02 
572	 5.83122868903361E-02 
573	 5.80939758324189E-02 
574	 5.79923695932603E-02 
575	 5.79251343740948E-02 
576	 5.77350306101008E-02 
577	 0.057138626846037 
578	 5.68791973101061E-02 
579	 5.71023422043919E-02 
580	 5.73073179971047E-02 
581	 5.72937290170365E-02 
582	 5.69542084378464E-02 
583	 5.71286886392031E-02 
584	 5.75170735107327E-02 
585	 5.69457845950236E-02 
586	 5.62478595569163E-02 
587	 5.58513037986105E-02 
588	 5.61869716041103E-02 
589	 5.65261059828703E-02 
590	 5.58717430581193E-02 
591	 5.57295778572424E-02 
592	 5.61913930780515E-02 
593	 5.63042765406643E-02 
594	 5.62979986285402E-02 
595	 5.62923906637445E-02 
596	 5.62261104241088E-02 
597	 5.61417750691077E-02 
598	 5.61361246053035E-02 
599	 5.58751242846534E-02 
600	 5.54202191239278E-02 
601	 0.055497139147006 
602	 5.56335753537664E-02 
603	 5.54281499829878E-02 
604	 5.55990056920385E-02 
605	 5.59712073605432E-02 
606	 5.58063534315888E-02 
607	 5.55466919447245E-02 
608	 5.53380524369912E-02 
609	 0.055003460266449 
610	 5.46090285271399E-02 
611	 5.42533731972894E-02 
612	 0.054109422918031 
613	 5.40974834438937E-02 
614	 5.37800330569723E-02 
615	 5.35468829675308E-02 
616	 0.053614564645853 
617	 5.36786230193739E-02 
618	 5.36669942011992E-02 
619	 5.35310509358494E-02 
620	 5.34565773611096E-02 
621	 5.34542623158561E-02 
622	 5.33446976526772E-02 
623	 5.30000546327971E-02 
624	 5.23799732702786E-02 
625	 5.24778743382858E-02 
626	 5.30643812994862E-02 
627	 5.30188844759852E-02 
628	 5.31038737063677E-02 
629	 5.34890412237214E-02 
630	 5.34123047963694E-02 
631	 5.31820543835914E-02 
632	 5.32547338016286E-02 
633	 0.053180609425238 
634	 5.29453825728284E-02 
635	 5.28113345149394E-02 
636	 5.28527298510272E-02 
637	 5.30249147661115E-02 
638	 5.25905172992341E-02 
639	 0.051887036583142 
640	 5.16910911307562E-02 
641	 5.14088417675114E-02 
642	 5.09319699825104E-02 
643	 0.050607988085672 
644	 5.01280764197822E-02 
645	 4.92792651070913E-02 
646	 4.92191931616416E-02 
647	 4.96545886151356E-02 
648	 4.92190731709344E-02 
649	 4.87644087585642E-02 
650	 4.86273539426437E-02 
651	 4.87446378241661E-02 
652	 4.88640089223977E-02 
653	 4.86925909263269E-02 
654	 4.79742642268274E-02 
655	 4.71426449881379E-02 
656	 4.80504932733504E-02 
657	 4.88030138893818E-02 
658	 4.82798785459155E-02 
659	 0.047396718317157 
660	 4.66193038581855E-02 
661	 4.65163676565231E-02 
662	 0.046143199020637 
663	 4.52897572794063E-02 
664	 4.42265925738477E-02 
665	 4.37123168341474E-02 
666	 4.42750409291607E-02 
667	 4.45353040834772E-02 
668	 4.43394534661301E-02 
669	 4.38939617515641E-02 
670	 0.043906446699948 
671	 4.45149546175104E-02 
672	 0.044750724477478 
673	 4.46087388658828E-02 
674	 4.42005638223781E-02 
675	 4.42407183923674E-02 
676	 4.46494910203922E-02 
677	 4.45712599048848E-02 
678	 4.46653121179209E-02 
679	 4.52278529446167E-02 
680	 4.56956411098846E-02 
681	 4.60630087368446E-02 
682	 4.64261622264471E-02 
683	 4.68982448305652E-02 
684	 4.76737421176888E-02 
685	 4.94413777395386E-02 
686	 5.12004815359258E-02 
687	 5.20218388431316E-02 
688	 5.27518013861168E-02 
689	 5.39754146014506E-02 
690	 5.67783129548038E-02 
691	 0.058947775363878 
692	 6.02242310506124E-02 
693	 6.27485924908385E-02 
694	 0.065937746894724 
695	 6.89048453287014E-02 
696	 7.15706563056027E-02 
697	 7.41837261655241E-02 
698	 7.76669234792178E-02 
699	 8.11280542243775E-02 
700	 8.41922746323494E-02 
701	 8.78452831889111E-02 
702	 9.16104309262471E-02 
703	 9.47206138406647E-02 
704	 9.82934909573855E-02 
705	 0.102297054574739 
706	 0.105542244811076 
707	 0.108641695002764 
708	 0.111969763939724 
709	 0.115302200219584 
710	 0.118603795654279 
711	 0.121852773789822 
712	 0.125164378153147 
713	 0.128455608607042 
714	 0.131404396578323 
715	 0.134040045900174 
716	 0.136558079887913 
717	 0.139309605139616 
718	 0.142483112486848 
719	 0.145861439579571 
720	 0.148337158468973 
721	 0.149746935679858 
722	 0.151718156548149 
723	 0.154247356101716 
724	 0.157079380068954 
725	 0.158531317618061 
726	 0.158974777009814 
727	 0.161356419392794 
728	 0.163762355666917 
729	 0.165255408389651 
730	 0.166358513015221 
731	 0.167469487581032 
732	 0.169047576660423 
733	 0.169874325456498 
734	 0.170154362003513 
735	 0.171394556706694 
736	 0.172687381790763 
737	 0.173406495972259 
738	 0.174001068334106 
739	 0.174783790266942 
740	 0.176250340889338 
741	 0.177228127034185 
742	 0.177458868823134 
743	 0.177455529437198 
744	 0.177992354129956 
745	 0.179607678560084 
746	 0.180862062196717 
747	 0.181510780301408 
748	 0.181585553719714 
749	 0.181964982638762 
750	 0.182871333820059 
751	 0.183404998141314 
752	 0.183739532206814 
753	 0.184130188156467 
754	 0.184531235645894 
755	 0.184975859432356 
756	 0.185505503326108 
757	 0.186342912624741 
758	 0.187617577839132 
759	 0.188878909803929 
760	 0.190240214632495 
761	 0.190432488437018 
762	 0.190428834346043 
763	 0.190484248339132 
764	 0.189769401340629 
765	 0.1899237639362 
766	 0.191079342951082 
767	 0.191293496509791 
768	 0.191307743420222 
769	 0.192108624560142 
770	 0.192418834229553 
771	 0.192259675917224 
772	 0.192801945559513 
773	 0.193622577855902 
774	 0.19438225383153 
775	 0.194826568599812 
776	 0.194978868093115 
777	 0.194939391260528 
778	 0.195276827178719 
779	 0.196025700216417 
780	 0.196458797196355 
781	 0.196806912616368 
782	 0.197299126975094 
783	 0.198191682579277 
784	 0.199190543761665 
785	 0.199600152667715 
786	 0.199871529120698 
787	 0.200236318341133 
788	 0.201082332494913 
789	 0.201679936032474 
790	 0.201376693301688 
791	 0.201114118325936 
792	 0.201242954887846 
793	 0.20218729793662 
794	 0.20270813431477 
795	 0.202610722456094 
796	 0.203531819559324 
797	 0.204475739204339 
798	 0.204399781975111 
799	 0.204129753666797 
800	 0.204113309917203 
801	 0.205152972006821 
802	 0.205810073111866 
803	 0.205682983756558 
804	 0.206142811075097 
805	 0.206617844934788 
806	 0.206458533857217 
807	 0.207235734712462 
808	 0.208584965371628 
809	 0.208501247539472 
810	 0.208369395233947 
811	 0.208899470262375 
812	 0.210523602368279 
813	 0.212031069359206 
814	 0.211756234589568 
815	 0.211866055154038 
816	 0.21254991152001 
817	 0.212450670851712 
818	 0.212578103142421 
819	 0.213293358403309 
820	 0.214077005974337 
821	 0.214757663800566 
822	 0.215164751029388 
823	 0.214939295523671 
824	 0.214528517346939 
825	 0.21532287409339 
826	 0.216270333893418 
827	 0.216890888665254 
828	 0.216970309716827 
829	 0.217041640856229 
830	 0.217765685248015 
831	 0.218639915290858 
832	 0.219357378951381 
833	 0.219574756069111 
834	 0.218864223130558 
835	 0.217573718390669 
836	 0.218588757366467 
837	 0.220144351460681 
838	 0.220029025301045 
839	 0.219373296294109 
840	 0.218979969734687 
841	 0.220538651683477 
842	 0.221452010077724 
843	 0.220889954346417 
844	 0.22137384421794 
845	 0.221669426556413 
846	 0.22029410157744 
847	 0.219949724356051 
848	 0.220747585227777 
849	 0.22130593524835 
850	 0.221756944777583 
851	 0.22195018370354 
852	 0.221074818265378 
853	 0.220518437595592 
854	 0.221701033469267 
855	 0.222161929045093 
856	 0.222155100523688 
857	 0.223773285569999 
858	 0.224444988213086 
859	 0.223536285265978 
860	 0.222401119291402 
861	 0.222334349246938 
862	 0.224319418695812 
863	 0.225619253109003 
864	 0.225806364391564 
865	 0.225231534106933 
866	 0.224684694585476 
867	 0.224620755004364 
868	 0.225159205733756 
869	 0.226408818624364 
870	 0.228153313064179 
871	 0.227339572626518 
872	 0.225937423766186 
873	 0.228679759583456 
874	 0.230650776288399 
875	 0.230811305900243 
876	 0.231619722709713 
877	 0.232020548214437 
878	 0.231484128442837 
879	 0.232192524540986 
880	 0.233548111560887 
881	 0.234098276477625 
882	 0.234392926270752 
883	 0.234671168762165 
884	 0.235235127268649 
885	 0.236194609904024 
886	 0.237502673302404 
887	 0.238491165815129 
888	 0.238982887807866 
889	 0.238901886328594 
890	 0.239640277098684 
891	 0.240674850996587 
892	 0.238919753379897 
893	 0.238576479518499 
894	 0.24124923397097 
895	 0.242936281009472 
896	 0.242938350105191 
897	 0.241062033490042 
898	 0.240811155180098 
899	 0.242598254834942 
900	 0.245447463472681 
901	 0.24567039927451 
902	 0.243113617728113 
903	 0.243156192258964 
904	 0.244484071025886 
905	 0.245725390672649 
906	 0.245473989133733 
907	 0.244300187545861 
908	 0.243644058934464 
909	 0.243931953273519 
910	 0.245276040945406 
911	 0.247476631764753 
912	 0.248308481767029 
913	 0.246893568821963 
914	 0.247052158633228 
915	 0.246850856322167 
916	 0.243701569584789 
917	 0.243947684850628 
918	 0.24678714435603 
919	 0.246327972205432 
920	 0.24663765249299 
921	 0.24873368411557 
922	 0.250718886040196 
923	 0.251828526055737 
924	 0.251394859134831 
925	 0.249388861689764 
926	 0.246710081730997 
927	 0.245236883251188 
928	 0.246576424276559 
929	 0.249730931488436 
930	 0.245949867478898 
931	 0.241773596620962 
932	 0.242289808923367 
933	 0.240290263786981 
934	 0.23371622063747 
935	 0.221878657573461 
936	 0.221840290854054 
937	 0.230774818110246 
938	 0.229511416964575 
939	 0.229927811926009 
940	 0.23402451214779 
941	 0.235805514453035 
942	 0.23205924454413 
943	 0.222211424958293 
944	 0.220892580059605 
945	 0.22338606463646 
946	 0.218782223726332 
947	 0.218245608286864 
948	 0.221632726981233 
949	 0.219839256808869 
950	 0.217926471722527 
951	 0.216858459193571 
952	 0.209141624725939 
953	 0.205352960124304 
954	 0.213461537817285 
955	 0.209559933033252 
956	 0.200176699475375 
957	 0.203893216655596 
958	 0.206726597109684 
959	 0.206602109059665 
960	 0.208953369468837 
961	 0.210189000254206 
962	 0.208941711829105 
963	 0.2083012537163 
964	 0.20502684800396 
965	 0.196592228966867 
966	 0.19412183119134 
967	 0.197914581969829 
968	 0.204939014133425 
969	 0.208854219645034 
970	 0.20814687714729 
971	 0.205968582189521 
972	 0.202481439881202 
973	 0.198749609644551 
974	 0.200334110512349 
975	 0.202915477825292 
976	 0.201604408459958 
977	 0.205754877214076 
978	 0.210960544606998 
979	 0.204490647729523 
980	 0.200630033890123 
981	 0.202846098724087 
982	 0.207256682551889 
983	 0.209710635795473 
984	 0.208563658772218 
985	 0.208450906623006 
986	 0.210614400489326 
987	 0.215276840363618 
988	 0.212428346848714 
989	 0.206510283879081 
990	 0.209725833948528 
991	 0.213307379598848 
992	 0.2132666720285 
993	 0.204453111310998 
994	 0.199764716939835 
995	 0.20542350890168 
996	 0.21337591049702 
997	 0.218290421755662 
998	 0.216460345667231 
999	 0.216600523318351 
1000	 0.219900569564032 
1001	 0.225676401740232 
1002	 0.225783448772178 
1003	 0.220285396460956 
1004	 0.217364699325921 
1005	 0.216607701562881 
1006	 0.218053304192041 
1007	 0.222154380153789 
1008	 0.22393413310422 
1009	 0.220040095581249 
1010	 0.215719941167336 
1011	 0.216326414100485 
1012	 0.227096451828793 
1013	 0.222865162370052 
1014	 0.209873234855044 
1015	 0.217356118529028 
1016	 0.224299136887938 
1017	 0.225492268910923 
1018	 0.227104312795915 
1019	 0.228421623734603 
1020	 0.22886906396917 
1021	 0.226033435611423 
1022	 0.228084601644013 
1023	 0.241138244906686 
1024	 0.242092979023893 
1025	 0.23184986015998 
1026	 0.219615711050807 
1027	 0.222650055104754 
1028	 0.2374266834116 
1029	 0.241499469836245 
1030	 0.241923296649092 
1031	 0.242467982321398 
1032	 0.253323661820414 
1033	 0.251862698079227 
1034	 0.22957092735775 
1035	 0.231651312318718 
1036	 0.241974129338667 
1037	 0.238909349295623 
1038	 0.229720916193855 
1039	 0.22125456431314 
1040	 0.22151437926163 
1041	 0.228193438575176 
1042	 0.239804614552151 
1043	 0.254936392288056 
1044	 0.260827747590529 
1045	 0.254155653184502 
1046	 0.237408548081975 
1047	 0.243491434631126 
1048	 0.279493624358344 
1049	 0.262564539693908 
1050	 0.241229015649903 
1051	 0.263330110706535 
1052	 0.2577735418205 
1053	 0.23621664704178 
1054	 0.235293568506524 
1055	 0.227739610155151 
1056	 0.219282608391706 
1057	 0.235328440966085 
1058	 0.250709906652514 
1059	 0.254394975256419 
1060	 0.229635757063617 
1061	 0.222034444194866 
1062	 0.24558448305516 
1063	 0.265770937581665 
1064	 0.271090737156741 
1065	 0.256450475998586 
1066	 0.249191493143164 
1067	 0.23862528415437 
1068	 0.211459871391203 
1069	 0.213010157470762 
1070	 0.234260629895971 
1071	 0.245114121809493 
1072	 0.270552848788187 
1073	 0.289495543065866 
1074	 0.240426855966986 
1075	 0.185102358793191 
