Wavelength	AVEI200322.asd
325	 0.068248806265733 
326	 6.66937870357933E-02 
327	 6.35843213626564E-02 
328	 6.36348729198872E-02 
329	 6.19536631183469E-02 
330	 5.82337312137954E-02 
331	 6.04366253329012E-02 
332	 6.34252319876016E-02 
333	 6.20666109694535E-02 
334	 6.01896001922041E-02 
335	 5.88877569163102E-02 
336	 5.90682920287273E-02 
337	 5.79055882325111E-02 
338	 5.59946651502454E-02 
339	 0.060236032134114 
340	 6.39136555253661E-02 
341	 0.061928547547996 
342	 6.15039603589497E-02 
343	 0.061401919852439 
344	 0.056695029561713 
345	 5.63321347377354E-02 
346	 6.03612046167526E-02 
347	 5.94146896583689E-02 
348	 5.80380650560682E-02 
349	 5.88642140748965E-02 
350	 5.50951401889003E-02 
351	 5.15569564373863E-02 
352	 5.70302214759597E-02 
353	 0.059036618509138 
354	 0.05612447755974 
355	 5.51625264172169E-02 
356	 5.48680660603289E-02 
357	 5.44216300415604E-02 
358	 5.34881608963389E-02 
359	 5.42794810960522E-02 
360	 6.02344336603603E-02 
361	 5.98649402670476E-02 
362	 0.053785995865675 
363	 5.35184069154224E-02 
364	 5.48163438270617E-02 
365	 5.54822872603987E-02 
366	 5.70740898382286E-02 
367	 5.81132104832903E-02 
368	 5.65566405229974E-02 
369	 5.52293826371082E-02 
370	 5.50227328808076E-02 
371	 0.056497868353647 
372	 5.76079263365817E-02 
373	 5.70576859896069E-02 
374	 5.43637010790365E-02 
375	 5.25317532669719E-02 
376	 5.54229562475054E-02 
377	 5.58417128257373E-02 
378	 5.34584983191337E-02 
379	 5.29542655421656E-02 
380	 5.27300158457233E-02 
381	 5.25055952447785E-02 
382	 5.56504963118355E-02 
383	 5.83061704139389E-02 
384	 5.51583165107164E-02 
385	 5.24435656785452E-02 
386	 5.16411514826176E-02 
387	 5.19234760376106E-02 
388	 5.21884866181598E-02 
389	 0.051698230164597 
390	 4.94852307761154E-02 
391	 4.80380610100846E-02 
392	 5.01864364002865E-02 
393	 5.14355868564519E-02 
394	 5.13360882977867E-02 
395	 5.19272030651341E-02 
396	 5.10116316488752E-02 
397	 4.85260980090352E-02 
398	 4.85922967750162E-02 
399	 4.95097677824648E-02 
400	 4.93073245316226E-02 
401	 4.92429731488985E-02 
402	 4.92375270237724E-02 
403	 4.84731360135331E-02 
404	 4.81625692356522E-02 
405	 4.86318259724634E-02 
406	 4.84592784651143E-02 
407	 4.81504135266776E-02 
408	 4.84663524350375E-02 
409	 0.048734782188408 
410	 4.87533552388004E-02 
411	 4.83034770243185E-02 
412	 4.83630625258399E-02 
413	 4.91040088633844E-02 
414	 4.84059144106152E-02 
415	 4.75154862472606E-02 
416	 4.82551123670682E-02 
417	 4.86428444073598E-02 
418	 4.84565744408687E-02 
419	 0.048598708928021 
420	 4.83113886103529E-02 
421	 4.74288920576795E-02 
422	 4.77921200306429E-02 
423	 4.85052605244645E-02 
424	 4.79863695444319E-02 
425	 4.78062486167092E-02 
426	 4.81146024307246E-02 
427	 4.78714035326368E-02 
428	 4.80697460697888E-02 
429	 4.91376034316579E-02 
430	 4.91363246621247E-02 
431	 4.84772591041492E-02 
432	 4.82896061646622E-02 
433	 4.80020017397414E-02 
434	 4.76570782634915E-02 
435	 0.047824918303824 
436	 4.80482175851961E-02 
437	 4.80262519218068E-02 
438	 4.80047285230882E-02 
439	 4.80027809169785E-02 
440	 4.80004804489542E-02 
441	 4.79194337039365E-02 
442	 4.78236424082869E-02 
443	 4.81183438825752E-02 
444	 4.82340906241747E-02 
445	 4.77741912240761E-02 
446	 4.77700770959359E-02 
447	 4.80688388471728E-02 
448	 4.79113516273414E-02 
449	 4.79401461951727E-02 
450	 0.048270150624543 
451	 4.83741815495527E-02 
452	 4.84836641492442E-02 
453	 4.88335265390449E-02 
454	 4.89586777486812E-02 
455	 0.048880068511589 
456	 4.88822055097731E-02 
457	 4.90717733222505E-02 
458	 4.93926854813329E-02 
459	 4.92339857577424E-02 
460	 4.88349071756986E-02 
461	 4.85449393471675E-02 
462	 4.84863409764184E-02 
463	 4.86310540437394E-02 
464	 0.048795676750717 
465	 4.88136048591153E-02 
466	 4.86158316364242E-02 
467	 4.84348353409628E-02 
468	 4.84098969705922E-02 
469	 4.86876974842631E-02 
470	 4.90258865147555E-02 
471	 4.92101238823714E-02 
472	 4.87488119246302E-02 
473	 0.048483685095732 
474	 4.88932682973064E-02 
475	 4.91844559782833E-02 
476	 4.91913485894162E-02 
477	 4.88154032262985E-02 
478	 4.86089316571093E-02 
479	 0.048682742295591 
480	 4.86901283321755E-02 
481	 4.86231429331432E-02 
482	 4.85126502587856E-02 
483	 4.87119066364529E-02 
484	 4.91528078055011E-02 
485	 4.95919519281341E-02 
486	 0.049596985306848 
487	 4.90882948351267E-02 
488	 4.86369870513921E-02 
489	 4.84901887582965E-02 
490	 4.88135349605783E-02 
491	 4.91046916212269E-02 
492	 4.92895792831496E-02 
493	 4.96003185689255E-02 
494	 4.93441598410716E-02 
495	 4.84694369995298E-02 
496	 4.85902705651516E-02 
497	 4.91607250640966E-02 
498	 4.92780752336304E-02 
499	 4.95799796609329E-02 
500	 5.01165554175722E-02 
501	 5.05955930995405E-02 
502	 5.10097453605519E-02 
503	 5.13134110522631E-02 
504	 5.12436864297949E-02 
505	 0.051135200469409 
506	 0.051575590805401 
507	 5.19582538264434E-02 
508	 5.22527740342247E-02 
509	 5.31019581056518E-02 
510	 5.38277235083381E-02 
511	 5.39411593625265E-02 
512	 5.44482623657473E-02 
513	 0.055237065973999 
514	 0.055625508036962 
515	 5.61288620484475E-02 
516	 5.68841648049618E-02 
517	 5.76119669023561E-02 
518	 5.82833574202224E-02 
519	 5.88878016561884E-02 
520	 5.95102908019483E-02 
521	 6.00906621846099E-02 
522	 6.03780439242879E-02 
523	 6.08644160046968E-02 
524	 6.17195187310475E-02 
525	 0.062401022798117 
526	 6.29425509058108E-02 
527	 0.063474110861334 
528	 6.38945932395281E-02 
529	 6.42465424948932E-02 
530	 6.47974870442671E-02 
531	 6.51325058886275E-02 
532	 6.50745694697661E-02 
533	 6.56843481697385E-02 
534	 6.65748722601086E-02 
535	 0.066684030093499 
536	 6.67973997218271E-02 
537	 6.71782921373028E-02 
538	 6.78524297103983E-02 
539	 6.84502541038051E-02 
540	 6.86131140564067E-02 
541	 6.84726081264238E-02 
542	 6.82853437575844E-02 
543	 6.86051519552639E-02 
544	 6.90035304507078E-02 
545	 6.93177447004133E-02 
546	 0.069741238668559 
547	 7.01653983423169E-02 
548	 7.04350062738169E-02 
549	 7.04424210950979E-02 
550	 7.03489043452081E-02 
551	 7.07825386560127E-02 
552	 7.11853496745395E-02 
553	 0.07122629651767 
554	 0.071310631008748 
555	 7.14795416078077E-02 
556	 7.17362585308056E-02 
557	 7.16179414550321E-02 
558	 7.11659581589319E-02 
559	 7.12837045357215E-02 
560	 7.16290714277079E-02 
561	 7.18309288486291E-02 
562	 7.17577760669883E-02 
563	 7.15336052514844E-02 
564	 7.15785731084858E-02 
565	 7.15627970766972E-02 
566	 7.13448904979446E-02 
567	 7.09376141025613E-02 
568	 7.04937635897321E-02 
569	 7.02031476847499E-02 
570	 6.99298929634464E-02 
571	 6.97203012497996E-02 
572	 6.98885551761355E-02 
573	 6.97788734867692E-02 
574	 6.90850997019741E-02 
575	 6.88513072685037E-02 
576	 0.068976062403924 
577	 6.90206198859914E-02 
578	 0.068854358829814 
579	 6.84583599159311E-02 
580	 6.80461606187725E-02 
581	 6.76982008536666E-02 
582	 6.74858961755597E-02 
583	 6.75161737687009E-02 
584	 6.76054415066312E-02 
585	 6.72258626932997E-02 
586	 0.066976777067029 
587	 6.70501763456595E-02 
588	 6.70028079980409E-02 
589	 6.68740918714095E-02 
590	 6.67716544845997E-02 
591	 6.65828126714192E-02 
592	 6.64124604777228E-02 
593	 0.066713564764109 
594	 6.67660063154906E-02 
595	 6.61949843703812E-02 
596	 6.56049590320873E-02 
597	 6.53594531129872E-02 
598	 6.59352317880229E-02 
599	 6.64799660700922E-02 
600	 6.66488588298684E-02 
601	 6.63934951790693E-02 
602	 6.58881902680536E-02 
603	 6.53460059418313E-02 
604	 6.53312674809193E-02 
605	 6.56076793300568E-02 
606	 0.065303888104189 
607	 6.49979564911215E-02 
608	 6.48748929556881E-02 
609	 6.46021855728396E-02 
610	 6.44415626735798E-02 
611	 6.47393420233151E-02 
612	 6.45974736552891E-02 
613	 0.063997104253016 
614	 0.063597210657595 
615	 6.35756397185667E-02 
616	 6.39405488717029E-02 
617	 6.37285513564134E-02 
618	 6.32010694157246E-02 
619	 6.30365454787764E-02 
620	 6.30118754712601E-02 
621	 6.30709353949247E-02 
622	 0.063244936403152 
623	 6.32412070944319E-02 
624	 6.28309825147527E-02 
625	 6.26134080004667E-02 
626	 6.25427709353398E-02 
627	 6.21432250557736E-02 
628	 6.18850146092341E-02 
629	 6.19635792007093E-02 
630	 0.062314005291642 
631	 6.26510109221977E-02 
632	 6.26410222750885E-02 
633	 6.21520603200705E-02 
634	 6.14730671248452E-02 
635	 6.16312218978738E-02 
636	 6.17144445942102E-02 
637	 0.061237867417655 
638	 6.10103378319766E-02 
639	 6.08453383998532E-02 
640	 6.02279215175889E-02 
641	 5.95970637025348E-02 
642	 0.059110550296622 
643	 5.87464933884012E-02 
644	 5.85123459992195E-02 
645	 5.83745392033944E-02 
646	 5.78226749760785E-02 
647	 5.70323160977405E-02 
648	 5.67459419096385E-02 
649	 5.64123137361391E-02 
650	 5.58767044733229E-02 
651	 5.54563375033055E-02 
652	 5.53080028325614E-02 
653	 5.55722995274524E-02 
654	 0.055673907905135 
655	 5.54366930623852E-02 
656	 0.05481692852375 
657	 5.44044737997401E-02 
658	 5.45242530469271E-02 
659	 5.47418022344976E-02 
660	 5.47044053323021E-02 
661	 5.39405001835022E-02 
662	 5.31475394578664E-02 
663	 5.26523467954022E-02 
664	 5.28136182429594E-02 
665	 0.052913203830946 
666	 5.23610531514764E-02 
667	 5.16226599272382E-02 
668	 5.11034355788934E-02 
669	 5.16265730199676E-02 
670	 5.18819090176973E-02 
671	 5.14455586222302E-02 
672	 5.10145073426708E-02 
673	 5.07811537631473E-02 
674	 5.08917867637149E-02 
675	 5.12383305142031E-02 
676	 5.16232391939914E-02 
677	 5.15133622633041E-02 
678	 5.17405181238097E-02 
679	 5.25902588287491E-02 
680	 5.25809216610308E-02 
681	 5.23644039773716E-02 
682	 5.32467686764563E-02 
683	 5.39526786950653E-02 
684	 5.44408298737966E-02 
685	 5.60853414997616E-02 
686	 0.057944582489389 
687	 5.91692520321036E-02 
688	 6.07865793162402E-02 
689	 6.26479533959425E-02 
690	 6.43891161498752E-02 
691	 6.58941658141507E-02 
692	 6.73932981091032E-02 
693	 6.98688616426796E-02 
694	 7.29728850173321E-02 
695	 7.61130289079624E-02 
696	 7.83940354066467E-02 
697	 0.08019194827235 
698	 8.30933986237305E-02 
699	 8.61975414509518E-02 
700	 8.90780438367409E-02 
701	 9.21290337283793E-02 
702	 9.50524050014598E-02 
703	 9.74276616482401E-02 
704	 0.100149440103293 
705	 0.103195919838059 
706	 0.105639302635095 
707	 0.10772662464513 
708	 0.109674377582437 
709	 0.112023015272169 
710	 0.114386334223687 
711	 0.115878377079023 
712	 0.117643800046284 
713	 0.119864315150879 
714	 0.121679717722282 
715	 0.123391448643217 
716	 0.125384552680224 
717	 0.12727101382712 
718	 0.128962732756968 
719	 0.130176477544701 
720	 0.131539667581375 
721	 0.133070417181745 
722	 0.134018004137274 
723	 0.134839293560924 
724	 0.135978674525756 
725	 0.137209225149554 
726	 0.138400498017267 
727	 0.139693770421805 
728	 0.140498155113764 
729	 0.140693199886498 
730	 0.141754938312748 
731	 0.142893431098888 
732	 0.142810505085889 
733	 0.143252172461974 
734	 0.144254420971211 
735	 0.144444363799278 
736	 0.144684725756532 
737	 0.145506177966082 
738	 0.146369028297357 
739	 0.146934151246639 
740	 0.146680290706164 
741	 0.146948378771006 
742	 0.147918951391557 
743	 0.148421823590703 
744	 0.148652146570855 
745	 0.148822044606604 
746	 0.149018995610126 
747	 0.149259219296138 
748	 0.149522384116037 
749	 0.149720325217571 
750	 0.149877306071738 
751	 0.150302751238461 
752	 0.150784481587544 
753	 0.151078944234635 
754	 0.151273532759651 
755	 0.151414620483695 
756	 0.151642920902128 
757	 0.151494755137454 
758	 0.150914505728 
759	 0.151413661566098 
760	 0.153580445792275 
761	 0.156122516082752 
762	 0.15658048899122 
763	 0.155553432015452 
764	 0.155744650848824 
765	 0.155709088515345 
766	 0.155160813931278 
767	 0.155189253586828 
768	 0.15540426599157 
769	 0.155288384540206 
770	 0.155493176565425 
771	 0.155956558172684 
772	 0.155873402942073 
773	 0.155821773166719 
774	 0.156191894904552 
775	 0.156789529098655 
776	 0.157363480318094 
777	 0.157528940730183 
778	 0.1577313814645 
779	 0.157980833895967 
780	 0.157643601298028 
781	 0.157620156751957 
782	 0.158534669128928 
783	 0.15902024285115 
784	 0.159015717728034 
785	 0.158874956261173 
786	 0.158941052581935 
787	 0.159254577298395 
788	 0.159242403310636 
789	 0.159191376428514 
790	 0.159408874693747 
791	 0.159991744610157 
792	 0.160709441088042 
793	 0.161032959568647 
794	 0.160965363719324 
795	 0.160658463028471 
796	 0.160858318075495 
797	 0.161407438206041 
798	 0.162043064202711 
799	 0.161889810708709 
800	 0.161277436965964 
801	 0.161564914256275 
802	 0.162010462579493 
803	 0.162313939822557 
804	 0.16249066517614 
805	 0.162418504073866 
806	 0.162028415648035 
807	 0.162474756423375 
808	 0.16350156347143 
809	 0.163668158613091 
810	 0.163755573642473 
811	 0.164063388466672 
812	 0.164382656957332 
813	 0.164558861535023 
814	 0.164434211057959 
815	 0.165183555874994 
816	 0.166612403557958 
817	 0.167259914093612 
818	 0.166908015493048 
819	 0.16584913582352 
820	 0.166134154138117 
821	 0.166750424116491 
822	 0.166374250070379 
823	 0.167041434728221 
824	 0.168306637165691 
825	 0.167649270207341 
826	 0.167464235625388 
827	 0.168546220088501 
828	 0.16907806748782 
829	 0.169373000205078 
830	 0.16997339928323 
831	 0.169574252951517 
832	 0.168604748023386 
833	 0.169040803083862 
834	 0.169521653373388 
835	 0.169494767832205 
836	 0.169285422749878 
837	 0.169436722073834 
838	 0.170470792908053 
839	 0.170610240992084 
840	 0.170049326851659 
841	 0.170545357080152 
842	 0.170736080560801 
843	 0.170238501335557 
844	 0.170298539274821 
845	 0.170638768749743 
846	 0.170849177371819 
847	 0.171503130747547 
848	 0.172249243375422 
849	 0.171763506982512 
850	 0.171415718724122 
851	 0.171742754187376 
852	 0.172236235229939 
853	 0.172503352217676 
854	 0.172216036786598 
855	 0.172428665192987 
856	 0.17303425718063 
857	 0.173238432643504 
858	 0.173388404861915 
859	 0.173519459818515 
860	 0.173304712300955 
861	 0.1729428533161 
862	 0.172678591807582 
863	 0.172932412227479 
864	 0.173583760892047 
865	 0.174115855636051 
866	 0.175011685085385 
867	 0.176080575370502 
868	 0.175955645032314 
869	 0.175421360293894 
870	 0.175150776769505 
871	 0.174492201501797 
872	 0.17412271657725 
873	 0.175482243159444 
874	 0.176610282978526 
875	 0.17706992616748 
876	 0.178028621448921 
877	 0.178199228775092 
878	 0.176903972363062 
879	 0.176357795082733 
880	 0.176734050797508 
881	 0.177764604809106 
882	 0.177984411582006 
883	 0.177422605302671 
884	 0.177655643281802 
885	 0.178957283396587 
886	 0.180991730375256 
887	 0.180332268600091 
888	 0.179003250553286 
889	 0.180129742551082 
890	 0.180059771871261 
891	 0.178839002951989 
892	 0.179347721685797 
893	 0.179470852116299 
894	 0.178669176034738 
895	 0.180129319075337 
896	 0.18141607625352 
897	 0.179621443302781 
898	 0.180871432551188 
899	 0.183800341501944 
900	 0.181559442274283 
901	 0.180516821039264 
902	 0.181905596206931 
903	 0.180985516729286 
904	 0.18094973632098 
905	 0.183856828474256 
906	 0.184176881899072 
907	 0.183009907231419 
908	 0.183870314119603 
909	 0.182904871372448 
910	 0.180606138807665 
911	 0.182959042389279 
912	 0.18519815136332 
913	 0.184508893864497 
914	 0.182110943329973 
915	 0.18116225632603 
916	 0.18495927393124 
917	 0.185147097954754 
918	 0.181919283040756 
919	 0.180300480256984 
920	 0.181312961064942 
921	 0.184408711022236 
922	 0.184600855770245 
923	 0.182669616009998 
924	 0.179772652042709 
925	 0.178469258118899 
926	 0.178918573477305 
927	 0.180287222705322 
928	 0.182473170741559 
929	 0.18379500217157 
930	 0.17654388569902 
931	 0.173305958182665 
932	 0.183242875162962 
933	 0.185217263766674 
934	 0.181287779225949 
935	 0.180166516208804 
936	 0.179165066598807 
937	 0.178821214454438 
938	 0.181660912424401 
939	 0.181717108835817 
940	 0.178107099683905 
941	 0.175202960483774 
942	 0.177044264996193 
943	 0.184435109787405 
944	 0.178466939864211 
945	 0.168069745757878 
946	 0.172049885619109 
947	 0.17345682060371 
948	 0.170038632423335 
949	 0.167945220368458 
950	 0.171449336134603 
951	 0.179150475537581 
952	 0.174139553155015 
953	 0.16702890301116 
954	 0.168026558615724 
955	 0.168802843053234 
956	 0.167653904482493 
957	 0.163790735038203 
958	 0.162957943195901 
959	 0.1648755056564 
960	 0.162805354247345 
961	 0.162508351185225 
962	 0.165674455280263 
963	 0.166037275004948 
964	 0.163504225490672 
965	 0.159116733358894 
966	 0.160508066621441 
967	 0.165709214016015 
968	 0.168620409586929 
969	 0.168040841267529 
970	 0.164503421046566 
971	 0.160789328303368 
972	 0.162550160871661 
973	 0.170372562393898 
974	 0.167489487597939 
975	 0.161283851309496 
976	 0.161623863698528 
977	 0.161656001698647 
978	 0.161578538757597 
979	 0.164552046106388 
980	 0.165430592299279 
981	 0.163411190727761 
982	 0.161082943732793 
983	 0.161358409649319 
984	 0.165362768233966 
985	 0.170222393597325 
986	 0.171216155334033 
987	 0.164455082237934 
988	 0.160205705458675 
989	 0.160868770759413 
990	 0.166947297199244 
991	 0.169837216063619 
992	 0.168902124067339 
993	 0.173225634737066 
994	 0.172503308077761 
995	 0.164179711749057 
996	 0.165225928022581 
997	 0.167839007957556 
998	 0.164171502370125 
999	 0.168494202938419 
1000	 0.175316883136807 
1001	 0.171212778765369 
1002	 0.167113961754842 
1003	 0.166032083611486 
1004	 0.167514510697137 
1005	 0.173657889747789 
1006	 0.181330365794002 
1007	 0.17288510937471 
1008	 0.166712455920777 
1009	 0.175802832344333 
1010	 0.173213441410675 
1011	 0.168764106804651 
1012	 0.17967550554343 
1013	 0.183822421168549 
1014	 0.179188470001117 
1015	 0.172492519417493 
1016	 0.170988717551495 
1017	 0.174667193348758 
1018	 0.170801137737299 
1019	 0.170609378905249 
1020	 0.178385562990789 
1021	 0.179370169930856 
1022	 0.179276989999432 
1023	 0.184025763321172 
1024	 0.180140577597831 
1025	 0.175903654094785 
1026	 0.187835588561196 
1027	 0.178901779258305 
1028	 0.157256304467919 
1029	 0.176704988850487 
1030	 0.187559214345133 
1031	 0.179624291709384 
1032	 0.191940437888495 
1033	 0.203237306078372 
1034	 0.199757793924849 
1035	 0.183753431769587 
1036	 0.170722334445996 
1037	 0.175355830993867 
1038	 0.178848515062614 
1039	 0.180377650369045 
1040	 0.184140299494424 
1041	 0.191593381822866 
1042	 0.197740733087701 
1043	 0.184600025279801 
1044	 0.187038797849012 
1045	 0.205648895243446 
1046	 0.189380778447238 
1047	 0.171755245049922 
1048	 0.172863718535429 
1049	 0.167456817740434 
1050	 0.171043811139641 
1051	 0.195633993303292 
1052	 0.190067256988068 
1053	 0.169952420880864 
1054	 0.172048025220696 
1055	 0.181723491318772 
1056	 0.192802104888707 
1057	 0.201340040697243 
1058	 0.200269245179863 
1059	 0.189803666405498 
1060	 0.181696881644412 
1061	 0.176079258033211 
1062	 0.175771644185907 
1063	 0.192332644568547 
1064	 0.196517117542396 
1065	 0.171060651033431 
1066	 0.156411940656739 
1067	 0.171798287755108 
1068	 0.220056155084154 
1069	 0.206226307005594 
1070	 0.163128625414755 
1071	 0.172932255667575 
1072	 0.177767975044385 
1073	 0.173972578269705 
1074	 0.183135674132858 
1075	 0.205144454433358 
