Wavelength	AVEI200032.asd
325	 1.96257981272815E-02 
326	 2.58943861647077E-02 
327	 3.70955473354194E-02 
328	 3.22521520584582E-02 
329	 2.74123798620137E-02 
330	 0.028026075902924 
331	 2.73943611979679E-02 
332	 2.76016918739476E-02 
333	 3.07119896198247E-02 
334	 3.15422255292733E-02 
335	 3.02189354093329E-02 
336	 2.88661640093863E-02 
337	 0.028685304514925 
338	 2.98613107212274E-02 
339	 3.11418146769687E-02 
340	 3.16478845772531E-02 
341	 3.07469771511552E-02 
342	 2.84460033674032E-02 
343	 2.64275887663603E-02 
344	 2.77685834930347E-02 
345	 2.83077676288099E-02 
346	 2.74392082809433E-02 
347	 2.76672431437364E-02 
348	 2.76398258286694E-02 
349	 2.67684563906815E-02 
350	 2.88106568091836E-02 
351	 3.09838162687099E-02 
352	 2.82384647564609E-02 
353	 2.75026287618215E-02 
354	 0.029255303890959 
355	 2.85784822807615E-02 
356	 0.027799452292017 
357	 2.81399968531193E-02 
358	 2.73010608735742E-02 
359	 2.60579563532845E-02 
360	 2.59204826305224E-02 
361	 2.58377933168467E-02 
362	 2.59333847705289E-02 
363	 2.76643893696931E-02 
364	 2.83681620485983E-02 
365	 2.70314142202219E-02 
366	 2.73333247699263E-02 
367	 2.76906151217005E-02 
368	 2.55193084906665E-02 
369	 2.48661654423446E-02 
370	 2.60231811326539E-02 
371	 2.66631364008921E-02 
372	 2.73240355154857E-02 
373	 2.79707807735289E-02 
374	 2.66897350363233E-02 
375	 2.51155916819442E-02 
376	 2.56763662314551E-02 
377	 2.66768971376908E-02 
378	 2.73884500268013E-02 
379	 2.69595198825648E-02 
380	 2.61910128836417E-02 
381	 2.57252184418882E-02 
382	 2.65346835351328E-02 
383	 2.75793619010469E-02 
384	 2.74128097366206E-02 
385	 2.67350617188122E-02 
386	 2.64461359967497E-02 
387	 2.90970267533173E-02 
388	 2.95664324388269E-02 
389	 2.63230357015929E-02 
390	 2.53438644740953E-02 
391	 2.59860961890795E-02 
392	 0.026803558755523 
393	 2.63332436352989E-02 
394	 2.52651111076902E-02 
395	 2.67638267198658E-02 
396	 2.73151556696969E-02 
397	 2.59700107556192E-02 
398	 2.64406375596476E-02 
399	 2.71503567247918E-02 
400	 2.62519185377537E-02 
401	 2.58191202587521E-02 
402	 0.025936939769068 
403	 2.57586813321362E-02 
404	 2.61131903585052E-02 
405	 2.70759536711232E-02 
406	 2.70393886546786E-02 
407	 2.65923516638042E-02 
408	 2.66186481144861E-02 
409	 2.67166190343202E-02 
410	 0.026805561424735 
411	 0.026897679899979 
412	 2.68890055505401E-02 
413	 2.67770401458488E-02 
414	 2.68726559103612E-02 
415	 2.70420414609629E-02 
416	 2.70829570700385E-02 
417	 2.66414862118217E-02 
418	 2.60813963789981E-02 
419	 2.68283956402919E-02 
420	 2.73352732477852E-02 
421	 2.68630416816365E-02 
422	 2.65981042349489E-02 
423	 2.66030218613634E-02 
424	 2.67596197563623E-02 
425	 2.69195840553932E-02 
426	 2.69728861463362E-02 
427	 2.66807007340058E-02 
428	 2.66265501693613E-02 
429	 2.70912013293848E-02 
430	 2.70173043767766E-02 
431	 2.67989030802654E-02 
432	 2.73535191598694E-02 
433	 2.73539412310729E-02 
434	 2.67445996390698E-02 
435	 2.66236635477388E-02 
436	 2.68150353456448E-02 
437	 2.71480537802369E-02 
438	 2.73237971525664E-02 
439	 2.73359257797036E-02 
440	 2.72696034573387E-02 
441	 2.71843992259194E-02 
442	 2.71446174703123E-02 
443	 2.72973851699398E-02 
444	 2.73911578617026E-02 
445	 2.72467211332986E-02 
446	 2.72641139135164E-02 
447	 2.74164697205254E-02 
448	 0.027506474099351 
449	 2.75100651135479E-02 
450	 2.74513381186282E-02 
451	 2.75187181948423E-02 
452	 2.76548563085058E-02 
453	 2.77926160738661E-02 
454	 2.79734538630243E-02 
455	 2.81546903649467E-02 
456	 2.82147020353554E-02 
457	 2.82542889899667E-02 
458	 2.82971065173576E-02 
459	 0.028188297864068 
460	 2.81827462119504E-02 
461	 0.028574607011847 
462	 2.86608837411642E-02 
463	 2.84055840901444E-02 
464	 2.81778685243687E-02 
465	 2.82463719473447E-02 
466	 2.86827923199952E-02 
467	 0.028813435130642 
468	 2.87672753071255E-02 
469	 2.88548713252209E-02 
470	 2.89229647454039E-02 
471	 2.88925071114229E-02 
472	 2.85823892377608E-02 
473	 2.83970128870397E-02 
474	 2.85776875791556E-02 
475	 0.028766311129454 
476	 2.89812640257043E-02 
477	 2.93673211324846E-02 
478	 2.95419337694864E-02 
479	 2.94239404888061E-02 
480	 2.91932969740214E-02 
481	 2.90566517828348E-02 
482	 2.91608635373886E-02 
483	 2.92573191285822E-02 
484	 2.92143945895132E-02 
485	 2.87388865438177E-02 
486	 2.88607909644702E-02 
487	 2.97633031618995E-02 
488	 3.02373698549197E-02 
489	 3.01858263027484E-02 
490	 2.96610197572246E-02 
491	 2.94978639635115E-02 
492	 2.97511560100547E-02 
493	 3.00667335283638E-02 
494	 3.02980241859932E-02 
495	 3.03393778252905E-02 
496	 3.01423205293231E-02 
497	 2.99177363405715E-02 
498	 2.99326490672341E-02 
499	 3.00981519415863E-02 
500	 3.03731318899637E-02 
501	 3.07454237413682E-02 
502	 0.03088478675886 
503	 3.06352082624309E-02 
504	 3.04707154899541E-02 
505	 3.04648308652551E-02 
506	 0.030611498626965 
507	 3.08076732598265E-02 
508	 3.10494533684458E-02 
509	 3.15227424165967E-02 
510	 3.18393009824535E-02 
511	 3.17310174773654E-02 
512	 3.18712862232105E-02 
513	 3.21362537762045E-02 
514	 3.19230855607051E-02 
515	 3.19205504079324E-02 
516	 3.22964463938709E-02 
517	 3.25134081275258E-02 
518	 0.032570734145355 
519	 3.25295778427998E-02 
520	 3.27762979231919E-02 
521	 3.32491869053285E-02 
522	 3.35886653681819E-02 
523	 3.37978762144128E-02 
524	 3.38827724596635E-02 
525	 3.39322273804765E-02 
526	 3.40185159343774E-02 
527	 3.42222195247343E-02 
528	 3.43699545747071E-02 
529	 3.44743194462922E-02 
530	 0.034768644942588 
531	 3.49984238409463E-02 
532	 3.50383595748483E-02 
533	 3.54233580161399E-02 
534	 3.58784637025567E-02 
535	 3.57087694562757E-02 
536	 3.55986953602963E-02 
537	 3.57607696386443E-02 
538	 3.60751683738205E-02 
539	 3.63454408532747E-02 
540	 3.63962646903561E-02 
541	 3.64720107521303E-02 
542	 0.036602221007175 
543	 3.67190476748976E-02 
544	 3.68669245631726E-02 
545	 3.70567077903305E-02 
546	 3.72582759575757E-02 
547	 3.73947830376918E-02 
548	 3.73728015135304E-02 
549	 0.037485370318315 
550	 3.77396529625437E-02 
551	 3.79018460573383E-02 
552	 3.79696295536795E-02 
553	 3.79701045536175E-02 
554	 3.81570962511832E-02 
555	 3.84512571911816E-02 
556	 3.86543433346838E-02 
557	 0.038694766153339 
558	 3.85720223008294E-02 
559	 3.84252932962057E-02 
560	 3.83593512320522E-02 
561	 3.84751014881271E-02 
562	 3.89526745486888E-02 
563	 3.94951355340558E-02 
564	 3.92396567253953E-02 
565	 0.039147044164258 
566	 3.95428804854342E-02 
567	 3.98094059112488E-02 
568	 3.98714818748144E-02 
569	 3.97106999242529E-02 
570	 3.94256754457023E-02 
571	 3.91900173373712E-02 
572	 0.039442058273433 
573	 3.96357216980544E-02 
574	 3.95003931739514E-02 
575	 0.03980215541285 
576	 4.02717318975687E-02 
577	 0.040244406632964 
578	 4.01046207402409E-02 
579	 4.00151855780547E-02 
580	 4.01124398941556E-02 
581	 4.03276988875781E-02 
582	 4.05686452757949E-02 
583	 4.05053117995843E-02 
584	 4.03458737987362E-02 
585	 4.08349941867904E-02 
586	 4.10888222083217E-02 
587	 4.08312917597716E-02 
588	 4.07883488561459E-02 
589	 0.040844014939847 
590	 4.07605539564712E-02 
591	 4.07638197851304E-02 
592	 4.08980582289867E-02 
593	 4.11260187370883E-02 
594	 4.13829936639719E-02 
595	 4.15879158487213E-02 
596	 4.14516721492901E-02 
597	 4.12552221981254E-02 
598	 4.15579821034316E-02 
599	 0.041748079879978 
600	 4.17068491286764E-02 
601	 4.17803334635275E-02 
602	 4.19055720846655E-02 
603	 0.042030411912687 
604	 4.24207630986167E-02 
605	 4.28226716011699E-02 
606	 4.24646886536805E-02 
607	 4.22054207458154E-02 
608	 4.23668398826813E-02 
609	 0.042587112899883 
610	 0.042735224704509 
611	 4.26906112476933E-02 
612	 4.26291203247109E-02 
613	 4.25635580219879E-02 
614	 4.23149870377638E-02 
615	 4.23140025434091E-02 
616	 4.27563062613848E-02 
617	 4.29439587626233E-02 
618	 4.28615487872611E-02 
619	 4.26364849558295E-02 
620	 4.27923033226246E-02 
621	 0.043287001359598 
622	 4.31596794713946E-02 
623	 4.28753824945346E-02 
624	 0.042891121816464 
625	 4.31586577597559E-02 
626	 4.35214847014843E-02 
627	 0.043609011213767 
628	 4.36092960387402E-02 
629	 4.36131518561311E-02 
630	 4.37078239216071E-02 
631	 4.38394470953689E-02 
632	 0.043929145158262 
633	 0.044199053440617 
634	 0.044568241636653 
635	 4.46000580286292E-02 
636	 4.47025518234036E-02 
637	 4.50360270322437E-02 
638	 4.47995872260148E-02 
639	 4.43977551252293E-02 
640	 4.47312846641606E-02 
641	 0.044958981605007 
642	 4.49323017386872E-02 
643	 4.52287579106776E-02 
644	 4.54479744208987E-02 
645	 4.52625219177076E-02 
646	 4.53839339253153E-02 
647	 4.57288885829501E-02 
648	 4.56969222327745E-02 
649	 0.045735270059174 
650	 4.59382784776352E-02 
651	 4.59001862543394E-02 
652	 4.55039698962955E-02 
653	 4.46637106310104E-02 
654	 0.044592977605322 
655	 4.52731480651878E-02 
656	 4.54534265727293E-02 
657	 4.55245499256769E-02 
658	 4.56539772939148E-02 
659	 4.53706735752508E-02 
660	 4.50110130260981E-02 
661	 4.51821259593233E-02 
662	 4.51932643636412E-02 
663	 4.49288789727099E-02 
664	 4.48121120712231E-02 
665	 4.46383424680019E-02 
666	 4.42589346241066E-02 
667	 4.41043012426828E-02 
668	 4.41418308762009E-02 
669	 4.40892800760659E-02 
670	 4.41153842339176E-02 
671	 0.044243936580971 
672	 4.43316928595732E-02 
673	 0.044284406633642 
674	 4.40232050885143E-02 
675	 4.40276913381085E-02 
676	 4.43029144679916E-02 
677	 4.44663644356978E-02 
678	 4.47670706300609E-02 
679	 4.52747481364459E-02 
680	 4.55153735445584E-02 
681	 4.56739276322616E-02 
682	 0.046134360351412 
683	 4.65763006853422E-02 
684	 4.69578565447949E-02 
685	 4.74839462461945E-02 
686	 4.81584072548307E-02 
687	 4.89789368099063E-02 
688	 4.98480641595056E-02 
689	 5.07084603084325E-02 
690	 5.16893218052187E-02 
691	 5.26273466302678E-02 
692	 5.35077378691462E-02 
693	 5.43294351431449E-02 
694	 5.53564112974015E-02 
695	 5.67871273367933E-02 
696	 5.81147879395658E-02 
697	 5.92708050503694E-02 
698	 6.04730615885774E-02 
699	 6.15337679525734E-02 
700	 6.24283119376182E-02 
701	 6.37559885662103E-02 
702	 6.51152175061035E-02 
703	 6.58787915941132E-02 
704	 6.69007874615292E-02 
705	 6.82725794328108E-02 
706	 6.95774424640512E-02 
707	 7.05158227686816E-02 
708	 7.09744490985639E-02 
709	 7.17965494788744E-02 
710	 7.29178663226715E-02 
711	 7.39837914120684E-02 
712	 7.50800598196486E-02 
713	 0.076106025714501 
714	 7.66485017249392E-02 
715	 7.70178419240427E-02 
716	 7.75489515673009E-02 
717	 7.81315007437065E-02 
718	 7.88603816036693E-02 
719	 7.98649360199344E-02 
720	 8.09811954887235E-02 
721	 8.19491439309005E-02 
722	 8.24275806431869E-02 
723	 8.28533958753146E-02 
724	 8.36664540954401E-02 
725	 8.44780114133181E-02 
726	 8.50607180927317E-02 
727	 8.52284099073278E-02 
728	 8.54649956176512E-02 
729	 8.60030652109176E-02 
730	 8.64164752050823E-02 
731	 8.70417326227469E-02 
732	 8.83679209084109E-02 
733	 8.92514057817537E-02 
734	 8.95834794189837E-02 
735	 8.98588079759732E-02 
736	 9.01533415609891E-02 
737	 9.05715921725181E-02 
738	 0.091601311965258 
739	 9.27279246310151E-02 
740	 9.28973047745999E-02 
741	 9.30521055575166E-02 
742	 9.34964955568394E-02 
743	 0.094167901048996 
744	 9.49069279777794E-02 
745	 9.55661282473046E-02 
746	 0.096032900496572 
747	 9.62921700449206E-02 
748	 9.63092000507868E-02 
749	 9.66032805810425E-02 
750	 9.73152156714553E-02 
751	 9.79752045004543E-02 
752	 9.85298188207765E-02 
753	 9.89603728753752E-02 
754	 9.91640097348005E-02 
755	 0.099347020707254 
756	 0.100196620363765 
757	 0.100719816842949 
758	 0.100517420913263 
759	 0.10016188430122 
760	 0.100077954372466 
761	 0.101471958490938 
762	 0.10197658538163 
763	 0.101733110068352 
764	 0.103106011558171 
765	 0.104114806390951 
766	 0.10419025890281 
767	 0.104180041222224 
768	 0.104375586331877 
769	 0.105041232365256 
770	 0.105877972786678 
771	 0.106662052244273 
772	 0.106955385977842 
773	 0.107066479217829 
774	 0.107262140419631 
775	 0.107916947390485 
776	 0.108715758079066 
777	 0.108996963947078 
778	 0.109373679732145 
779	 0.109923803737755 
780	 0.110156500371396 
781	 0.110434907281947 
782	 0.111041820448711 
783	 0.111717862080775 
784	 0.112220873942468 
785	 0.112100190714858 
786	 0.112297312775785 
787	 0.113018172079073 
788	 0.113559372836917 
789	 0.113753963132975 
790	 0.113562920396258 
791	 0.114254601353851 
792	 0.11540987213565 
793	 0.115406663845489 
794	 0.115487584443697 
795	 0.11603356515839 
796	 0.116648271009629 
797	 0.117135168692132 
798	 0.117324912936574 
799	 0.117277502408591 
800	 0.117315192672773 
801	 0.118305089646819 
802	 0.118881428018687 
803	 0.118752133073976 
804	 0.119647447983525 
805	 0.1206332965297 
806	 0.120626512190966 
807	 0.120769790459438 
808	 0.121024674321167 
809	 0.120440604340246 
810	 0.12059168683253 
811	 0.121913467391233 
812	 0.122274047260417 
813	 0.122102241357346 
814	 0.122215904405113 
815	 0.122162930893161 
816	 0.12218801421487 
817	 0.123270380975877 
818	 0.124367021714192 
819	 0.124975558150492 
820	 0.125297373867491 
821	 0.125526954590351 
822	 0.125871914195848 
823	 0.126618298856159 
824	 0.127673603627132 
825	 0.128771226644812 
826	 0.129262541490926 
827	 0.129061146387291 
828	 0.129419004596301 
829	 0.130034430307927 
830	 0.130373532081728 
831	 0.130359060559912 
832	 0.130352369802835 
833	 0.131402926066985 
834	 0.132557758676196 
835	 0.133333697589815 
836	 0.133727431783368 
837	 0.133721619880438 
838	 0.13335612364204 
839	 0.13420763778418 
840	 0.135740152508801 
841	 0.135430792641314 
842	 0.135122083282542 
843	 0.135554929830663 
844	 0.136180413760424 
845	 0.136741214972378 
846	 0.136996174333965 
847	 0.13700539902715 
848	 0.136947069088673 
849	 0.137273155939226 
850	 0.137545037938444 
851	 0.137661417401441 
852	 0.138181228379345 
853	 0.138602875179141 
854	 0.138365045113122 
855	 0.137654900316332 
856	 0.1373309001481 
857	 0.139502546062957 
858	 0.140915180462906 
859	 0.140687523283813 
860	 0.140686018931099 
861	 0.140994980468336 
862	 0.141516559197876 
863	 0.140873588953278 
864	 0.139852727054272 
865	 0.140871867828839 
866	 0.142193123385276 
867	 0.143088734983926 
868	 0.143241875673871 
869	 0.143306839185057 
870	 0.143864094171664 
871	 0.144902335698074 
872	 0.146055179342552 
873	 0.146653469770082 
874	 0.146954122934524 
875	 0.146983204526307 
876	 0.146354239234386 
877	 0.146699612067298 
878	 0.148830846346654 
879	 0.149254962071761 
880	 0.148939978407291 
881	 0.150272416457995 
882	 0.150855291234256 
883	 0.150575380664543 
884	 0.151304974040429 
885	 0.152186321740068 
886	 0.152789860998117 
887	 0.153689772458206 
888	 0.15469266132009 
889	 0.155475280314914 
890	 0.155720644266951 
891	 0.155589928652903 
892	 0.15598416888457 
893	 0.155662022487471 
894	 0.15425678401402 
895	 0.153334289592057 
896	 0.1536510249608 
897	 0.155742404850153 
898	 0.15645961418168 
899	 0.156332356775392 
900	 0.158802502071427 
901	 0.15965254820562 
902	 0.158192575687718 
903	 0.157566044935879 
904	 0.158857986532494 
905	 0.162216746353284 
906	 0.161544464212797 
907	 0.158951795549463 
908	 0.159862058391497 
909	 0.160804855227503 
910	 0.160664568813014 
911	 0.158652236199799 
912	 0.158931296802301 
913	 0.162888388243375 
914	 0.162420557683198 
915	 0.160661768694729 
916	 0.162270053994067 
917	 0.162266766060721 
918	 0.160764764570872 
919	 0.160452072483527 
920	 0.16200273845431 
921	 0.164787192525116 
922	 0.164396568593821 
923	 0.162466789983713 
924	 0.160780105778099 
925	 0.16028443507512 
926	 0.160659783824775 
927	 0.160709836785291 
928	 0.159386444233387 
929	 0.157111012712634 
930	 0.159209831797684 
931	 0.157657363953989 
932	 0.146953567253654 
933	 0.143770922173813 
934	 0.148019355542305 
935	 0.153732138965954 
936	 0.149867829813815 
937	 0.14237393407931 
938	 0.156279203053316 
939	 0.156514624557159 
940	 0.139327784212713 
941	 0.13903788416807 
942	 0.142828520803897 
943	 0.141134640795605 
944	 0.143065304810802 
945	 0.14666241479397 
946	 0.147180977436544 
947	 0.146794121033291 
948	 0.146552550867584 
949	 0.148500692340471 
950	 0.147547181982555 
951	 0.143496305974026 
952	 0.147813235132755 
953	 0.152290274305454 
954	 0.149559811245071 
955	 0.145840283284045 
956	 0.144004559162158 
957	 0.147321569352341 
958	 0.14615008436365 
959	 0.141061533241575 
960	 0.142693211556427 
961	 0.144176903637111 
962	 0.14253436737455 
963	 0.139994845170725 
964	 0.139728425516526 
965	 0.144125520831673 
966	 0.145503485943988 
967	 0.14505561750182 
968	 0.148155414852454 
969	 0.147124158025805 
970	 0.142613647121279 
971	 0.145111197394897 
972	 0.147207286259626 
973	 0.145943052181333 
974	 0.150406020167191 
975	 0.154102525690369 
976	 0.149733562019339 
977	 0.147577254810362 
978	 0.148480771168799 
979	 0.14981161424829 
980	 0.149033751035528 
981	 0.147086929436179 
982	 0.150958452770359 
983	 0.154119417387099 
984	 0.153328143282177 
985	 0.152359769236116 
986	 0.150511625268677 
987	 0.147227127891543 
988	 0.149594601090998 
989	 0.155204811337828 
990	 0.156968313509058 
991	 0.15691957645469 
992	 0.156510918916891 
993	 0.159598494207003 
994	 0.160540478780271 
995	 0.157377506423299 
996	 0.15645967238575 
997	 0.158371616616891 
998	 0.162667649805249 
999	 0.163648532570564 
1000	 0.161743640329178 
1001	 0.159689970306212 
1002	 0.159189941113304 
1003	 0.160215442747539 
1004	 0.160911742101268 
1005	 0.160022737678668 
1006	 0.157850839335574 
1007	 0.158171043651574 
1008	 0.162891467859399 
1009	 0.171557847497743 
1010	 0.174493616072912 
1011	 0.169283722318947 
1012	 0.155212082153356 
1013	 0.155763512877321 
1014	 0.167937434436391 
1015	 0.170794795628104 
1016	 0.169134057226981 
1017	 0.164856941689322 
1018	 0.161263657444449 
1019	 0.160536445680431 
1020	 0.164402432896082 
1021	 0.17535970124971 
1022	 0.182575525934687 
1023	 0.177108002910143 
1024	 0.17881061553425 
1025	 0.18265341942929 
1026	 0.175072285229338 
1027	 0.166274654420365 
1028	 0.162608231314758 
1029	 0.176850650881034 
1030	 0.17711346727086 
1031	 0.160800627501321 
1032	 0.171810925806494 
1033	 0.181385933910701 
1034	 0.173662272493425 
1035	 0.17260289018248 
1036	 0.171923286578001 
1037	 0.164058736483766 
1038	 0.169762868577498 
1039	 0.179438039559202 
1040	 0.172570184291195 
1041	 0.171063127574875 
1042	 0.177024317244068 
1043	 0.17960922932903 
1044	 0.179101221386996 
1045	 0.175226124705532 
1046	 0.167301068156243 
1047	 0.164421611430715 
1048	 0.170539675477548 
1049	 0.171812480561314 
1050	 0.169749054657958 
1051	 0.166754033068877 
1052	 0.156649953312571 
1053	 0.152725744809689 
1054	 0.17409938275035 
1055	 0.194286382796076 
1056	 0.197952884913789 
1057	 0.167767221862377 
1058	 0.15015093909809 
1059	 0.153433414485644 
1060	 0.151783001335529 
1061	 0.156013866812105 
1062	 0.168809750854217 
1063	 0.18089715412738 
1064	 0.18931915418731 
1065	 0.191810277223775 
1066	 0.188950470605419 
1067	 0.182963294051885 
1068	 0.176942829406791 
1069	 0.168841133352281 
1070	 0.161884602873376 
1071	 0.163824426406964 
1072	 0.165878917403724 
1073	 0.161496277999977 
1074	 0.138459297982157 
1075	 0.147577329083182 
