Wavelength	AVEI200105.asd
325	 2.59024846306051E-02 
326	 3.15235148276989E-02 
327	 3.88534280674036E-02 
328	 3.28057670042918E-02 
329	 2.83448490236779E-02 
330	 3.02485280562901E-02 
331	 3.25107660735065E-02 
332	 3.26587155756793E-02 
333	 2.90489615102309E-02 
334	 2.73347391712133E-02 
335	 2.81036236083358E-02 
336	 3.05601336232563E-02 
337	 3.12725886601635E-02 
338	 2.99185269702509E-02 
339	 3.08854965743189E-02 
340	 3.18891446005023E-02 
341	 3.11469262839666E-02 
342	 3.13218043218202E-02 
343	 3.26318762591341E-02 
344	 3.51415540517701E-02 
345	 0.033974370879376 
346	 2.97567624882629E-02 
347	 2.95415421408221E-02 
348	 3.19677060855376E-02 
349	 3.52104268946658E-02 
350	 3.36786539336567E-02 
351	 3.01121882650965E-02 
352	 2.97847854452798E-02 
353	 3.07661278121899E-02 
354	 3.20667803339572E-02 
355	 3.19718924997977E-02 
356	 3.11176826447056E-02 
357	 3.02025408132388E-02 
358	 3.13650889773478E-02 
359	 3.27452998639021E-02 
360	 3.12793907502378E-02 
361	 3.01239377579879E-02 
362	 2.98543313163696E-02 
363	 2.94418951494193E-02 
364	 2.96030944901979E-02 
365	 3.06338203304461E-02 
366	 3.22330610968867E-02 
367	 3.31173165306619E-02 
368	 0.031720940831722 
369	 3.00530885989822E-02 
370	 2.90230187542359E-02 
371	 2.96997335657474E-02 
372	 3.06625255084367E-02 
373	 3.09678681137576E-02 
374	 3.00840137294102E-02 
375	 2.88870145438842E-02 
376	 2.86230683074156E-02 
377	 2.86149981010432E-02 
378	 0.028497409465437 
379	 2.74304935373006E-02 
380	 2.73487627809745E-02 
381	 2.89694332833635E-02 
382	 3.02050524836397E-02 
383	 3.08299481135207E-02 
384	 3.08456313920499E-02 
385	 2.95332644588805E-02 
386	 2.75445979074552E-02 
387	 2.70443315523533E-02 
388	 2.75959722662623E-02 
389	 2.87006069027087E-02 
390	 2.89300834407517E-02 
391	 2.87321050252666E-02 
392	 2.87863260219806E-02 
393	 2.85820441720856E-02 
394	 2.81121166428914E-02 
395	 2.75610698780561E-02 
396	 2.72557304454987E-02 
397	 2.73219689261025E-02 
398	 2.75467296668327E-02 
399	 2.78746349417322E-02 
400	 2.82662659567025E-02 
401	 2.79854948668615E-02 
402	 2.73707601520947E-02 
403	 2.75400409759131E-02 
404	 2.77834655433306E-02 
405	 2.77126324103948E-02 
406	 2.67368515136301E-02 
407	 2.60158075358833E-02 
408	 2.69729320982166E-02 
409	 0.027721848787092 
410	 0.027761543161231 
411	 2.69176376163676E-02 
412	 2.64932660217576E-02 
413	 2.70240571825853E-02 
414	 2.75969846431468E-02 
415	 2.77357641002982E-02 
416	 2.69859056614349E-02 
417	 2.66552685815033E-02 
418	 2.68946861177644E-02 
419	 2.70986326185194E-02 
420	 2.73096473141546E-02 
421	 2.74913019057192E-02 
422	 2.73512094308779E-02 
423	 2.71128387894441E-02 
424	 0.027144911601882 
425	 0.026883439347171 
426	 2.64650018289853E-02 
427	 2.68814262860577E-02 
428	 2.73415895730449E-02 
429	 2.73300523572558E-02 
430	 2.72113075511944E-02 
431	 2.70284362518582E-02 
432	 0.026767907954819 
433	 2.66729371302654E-02 
434	 2.67171218896772E-02 
435	 2.64855026847557E-02 
436	 2.64705624624212E-02 
437	 2.69143265034799E-02 
438	 2.68814854055754E-02 
439	 2.66208022364258E-02 
440	 2.68432460061447E-02 
441	 2.69430786313789E-02 
442	 2.68272914151225E-02 
443	 0.026915025433804 
444	 2.69112449711105E-02 
445	 2.66113261505928E-02 
446	 2.66012968676709E-02 
447	 2.67950854200796E-02 
448	 2.67652105890337E-02 
449	 2.68519960293517E-02 
450	 2.71174530978526E-02 
451	 2.73581483563562E-02 
452	 2.73808693029254E-02 
453	 2.70463553117131E-02 
454	 2.70905736499029E-02 
455	 2.74139959893967E-02 
456	 0.027292336781194 
457	 2.72709697861418E-02 
458	 2.75015438461862E-02 
459	 2.75267963007444E-02 
460	 2.74859830646146E-02 
461	 2.75798826072946E-02 
462	 2.74347086812441E-02 
463	 2.71181579118572E-02 
464	 2.70527750155272E-02 
465	 2.72055594340784E-02 
466	 2.74737847630643E-02 
467	 2.71981257720055E-02 
468	 2.68974550078934E-02 
469	 2.74346091487988E-02 
470	 2.75381852775093E-02 
471	 2.71564247141164E-02 
472	 2.73584319149215E-02 
473	 2.75891125721121E-02 
474	 2.74948249157965E-02 
475	 2.72846086339845E-02 
476	 0.027014101787799 
477	 2.66924869197608E-02 
478	 2.68864529904563E-02 
479	 2.74472147347268E-02 
480	 2.70314067539239E-02 
481	 2.65698727547732E-02 
482	 2.68196792262923E-02 
483	 2.71410241825857E-02 
484	 2.73737518162229E-02 
485	 2.74037257417441E-02 
486	 2.74095705710212E-02 
487	 2.74280922310937E-02 
488	 2.72299665619037E-02 
489	 2.71713394947674E-02 
490	 2.75877090792359E-02 
491	 2.77616195553734E-02 
492	 2.76697455094135E-02 
493	 2.76718893460971E-02 
494	 2.75856729127461E-02 
495	 2.74084454007212E-02 
496	 2.75323269622254E-02 
497	 2.78170927459949E-02 
498	 2.80367926619761E-02 
499	 2.80607537821661E-02 
500	 2.79936864413802E-02 
501	 2.83334785978523E-02 
502	 2.86502718974843E-02 
503	 2.86888586283565E-02 
504	 2.86392038309759E-02 
505	 2.86916389305765E-02 
506	 2.91124716705489E-02 
507	 2.95252951385189E-02 
508	 2.98052135872759E-02 
509	 2.99159822995191E-02 
510	 3.01733178723291E-02 
511	 3.07925283510111E-02 
512	 0.03127884813265 
513	 3.15080014663414E-02 
514	 3.13334597955207E-02 
515	 3.15120723121367E-02 
516	 3.22100845558672E-02 
517	 0.032576915935886 
518	 3.28075986333961E-02 
519	 3.31782254008754E-02 
520	 3.36101459788432E-02 
521	 3.41310518917616E-02 
522	 3.49120831764949E-02 
523	 3.54494117650898E-02 
524	 3.55856316403048E-02 
525	 3.59387025888917E-02 
526	 3.64543508310643E-02 
527	 0.036954407235662 
528	 0.037420225119803 
529	 3.78185731971363E-02 
530	 3.80807826741071E-02 
531	 3.84511503801855E-02 
532	 3.90491874325726E-02 
533	 0.039373792709762 
534	 3.95040000365456E-02 
535	 3.97436820103857E-02 
536	 0.039939573975351 
537	 0.040088922096631 
538	 4.03785071970218E-02 
539	 4.06084838420818E-02 
540	 4.05975854963602E-02 
541	 4.07608105345778E-02 
542	 4.10861213843888E-02 
543	 4.13108490405551E-02 
544	 4.15440508510967E-02 
545	 4.18048848690527E-02 
546	 4.19590431682128E-02 
547	 4.20919763874807E-02 
548	 0.042328247877017 
549	 4.24117340518334E-02 
550	 4.23694717789177E-02 
551	 4.24808035740777E-02 
552	 4.27498427281122E-02 
553	 4.31297725200286E-02 
554	 4.32257910453208E-02 
555	 4.31073929209673E-02 
556	 4.29899063962198E-02 
557	 4.31129502435287E-02 
558	 4.34309543817715E-02 
559	 4.32974699637658E-02 
560	 4.30861174115149E-02 
561	 4.31550778110339E-02 
562	 4.32050103120988E-02 
563	 4.31714839023151E-02 
564	 4.30115207400089E-02 
565	 4.29641494129359E-02 
566	 4.30440974927126E-02 
567	 4.26624563567855E-02 
568	 4.22203763774671E-02 
569	 4.22879115623599E-02 
570	 4.20685025125106E-02 
571	 4.15851918656051E-02 
572	 4.15910955754707E-02 
573	 4.17000817442256E-02 
574	 4.16631031670036E-02 
575	 4.15188658615393E-02 
576	 4.12923299556674E-02 
577	 4.10208959507589E-02 
578	 0.040825934683985 
579	 4.07440388227831E-02 
580	 4.06804167432163E-02 
581	 4.07549111968418E-02 
582	 4.10153445074814E-02 
583	 4.05976558952415E-02 
584	 3.98349063961038E-02 
585	 3.99544953792943E-02 
586	 4.02865806699242E-02 
587	 4.05082001415412E-02 
588	 4.03427337573238E-02 
589	 3.99900623279032E-02 
590	 3.97665677219954E-02 
591	 3.95581297507658E-02 
592	 3.94101911601153E-02 
593	 0.039514977175852 
594	 3.96069083848306E-02 
595	 0.039536099977007 
596	 3.95088325778073E-02 
597	 3.94382227783857E-02 
598	 3.91093463328411E-02 
599	 3.89538352746008E-02 
600	 3.90947542536412E-02 
601	 3.94332938183652E-02 
602	 3.96358540106169E-02 
603	 0.0394402442575 
604	 3.93513923448375E-02 
605	 0.03937825704363 
606	 3.93259152570062E-02 
607	 3.90443699931021E-02 
608	 3.85974095848069E-02 
609	 3.88375727935002E-02 
610	 3.90770912442769E-02 
611	 3.83749262207373E-02 
612	 3.78755853697873E-02 
613	 0.037794366169456 
614	 3.78364362645654E-02 
615	 3.78492636861202E-02 
616	 3.77489420990005E-02 
617	 3.78287892797224E-02 
618	 3.78438310293579E-02 
619	 0.037294613866233 
620	 3.68940330507034E-02 
621	 3.68131435729288E-02 
622	 3.67604638919513E-02 
623	 3.66308062910208E-02 
624	 3.63833150730947E-02 
625	 3.67155467115155E-02 
626	 3.73759990552309E-02 
627	 0.03746656149938 
628	 3.70901658740833E-02 
629	 0.036438397520534 
630	 3.64532194583585E-02 
631	 3.68166349797612E-02 
632	 3.70181108797518E-02 
633	 3.72602814990937E-02 
634	 3.75174506656267E-02 
635	 3.77069878966567E-02 
636	 3.74843115201941E-02 
637	 0.036735782023654 
638	 3.62891608818614E-02 
639	 3.61129179417933E-02 
640	 3.59418413259007E-02 
641	 3.56753853182279E-02 
642	 3.53056369776755E-02 
643	 3.50108080818944E-02 
644	 3.47467693302887E-02 
645	 3.44639158241074E-02 
646	 3.41072142593106E-02 
647	 3.37916120525838E-02 
648	 3.38819051018671E-02 
649	 3.37992329976941E-02 
650	 0.033417939133017 
651	 3.34723402388853E-02 
652	 3.36953320163298E-02 
653	 3.36996765659735E-02 
654	 3.32811412158796E-02 
655	 0.032698360507666 
656	 3.31426144681322E-02 
657	 3.34716383585854E-02 
658	 3.30509785048429E-02 
659	 3.26995746827107E-02 
660	 0.032410174507287 
661	 3.19844279725605E-02 
662	 3.19898980069698E-02 
663	 3.22745461518398E-02 
664	 3.14922685580031E-02 
665	 0.030671743607601 
666	 3.06778362316628E-02 
667	 3.07400668436318E-02 
668	 3.07551191436976E-02 
669	 3.07990378860644E-02 
670	 3.09637934294142E-02 
671	 3.11694807058577E-02 
672	 3.07668296758003E-02 
673	 3.03844174428688E-02 
674	 3.07711854765867E-02 
675	 3.08488864215377E-02 
676	 3.06201228380693E-02 
677	 3.08840706603928E-02 
678	 3.11211397906889E-02 
679	 3.10937229923272E-02 
680	 3.12012941353719E-02 
681	 3.14133505598796E-02 
682	 3.15927491479058E-02 
683	 3.20228871988059E-02 
684	 3.27580687442624E-02 
685	 3.37266515494766E-02 
686	 3.47312030047879E-02 
687	 3.55938248078852E-02 
688	 3.66651369777888E-02 
689	 3.78398141998664E-02 
690	 3.89213961644222E-02 
691	 0.040197179815461 
692	 0.041792997647848 
693	 4.35721978516347E-02 
694	 4.56793025946205E-02 
695	 4.81376992989022E-02 
696	 0.050153662071461 
697	 5.19310056258367E-02 
698	 5.45258711532225E-02 
699	 5.74600006764489E-02 
700	 6.04100225414273E-02 
701	 6.30723388007226E-02 
702	 6.55323491885307E-02 
703	 6.79844305134916E-02 
704	 7.06495564048178E-02 
705	 7.35006887666258E-02 
706	 7.61013472806465E-02 
707	 7.86769028975629E-02 
708	 8.13426744241262E-02 
709	 8.38131860079233E-02 
710	 8.62090062890338E-02 
711	 8.88634281030904E-02 
712	 9.12417555211689E-02 
713	 9.32647409298539E-02 
714	 9.54553094647528E-02 
715	 0.097576490300225 
716	 9.94985835521583E-02 
717	 0.101297539703765 
718	 0.103262992766987 
719	 0.105881701912797 
720	 0.108118964058857 
721	 0.109567874882237 
722	 0.11093857217556 
723	 0.112359371828052 
724	 0.113804273170519 
725	 0.115139529816952 
726	 0.116338488054627 
727	 0.117781688176943 
728	 0.119197472484055 
729	 0.120423926150776 
730	 0.12140495494485 
731	 0.122228290445418 
732	 0.123013442131331 
733	 0.123936841746093 
734	 0.12496817602576 
735	 0.125744153623169 
736	 0.126713572699532 
737	 0.128026046562029 
738	 0.128514362869353 
739	 0.128660026711228 
740	 0.129685164837152 
741	 0.130236828794869 
742	 0.130187467311899 
743	 0.130781243512145 
744	 0.131566440593648 
745	 0.132134247245639 
746	 0.132660793064574 
747	 0.13309837177972 
748	 0.133220551746591 
749	 0.133747421070886 
750	 0.134712142752639 
751	 0.134706118027978 
752	 0.134665684363264 
753	 0.135624971465096 
754	 0.135944831797122 
755	 0.135754349759421 
756	 0.136425271937007 
757	 0.136964966896175 
758	 0.137029329667247 
759	 0.137489626809417 
760	 0.138379071127262 
761	 0.138477968253572 
762	 0.137887733014702 
763	 0.13754911420494 
764	 0.138894211911042 
765	 0.140142078746223 
766	 0.140642820874043 
767	 0.14084527372786 
768	 0.141055190659217 
769	 0.141555881579207 
770	 0.142168795186523 
771	 0.142706951298538 
772	 0.142701341296771 
773	 0.142578960783196 
774	 0.14265572355188 
775	 0.142928909722348 
776	 0.14338949498485 
777	 0.144026429722366 
778	 0.144605726304493 
779	 0.144943422040132 
780	 0.144642616206338 
781	 0.144582527908355 
782	 0.145397554037047 
783	 0.145934387083823 
784	 0.146208942655548 
785	 0.146722026974699 
786	 0.146896908165485 
787	 0.146708083902635 
788	 0.146972011425077 
789	 0.147296283869972 
790	 0.147310207735164 
791	 0.147669691648518 
792	 0.148182434169231 
793	 0.148088266513496 
794	 0.148059633619221 
795	 0.148287381211355 
796	 0.148413105909881 
797	 0.148546286664407 
798	 0.148825773918067 
799	 0.149470632606607 
800	 0.150146673197192 
801	 0.14982010082892 
802	 0.149543138862884 
803	 0.149747197759279 
804	 0.150201043938075 
805	 0.150775265693598 
806	 0.151337513046982 
807	 0.151644754488139 
808	 0.151790895119101 
809	 0.152183582365935 
810	 0.152730169633907 
811	 0.153253764211156 
812	 0.152883228268567 
813	 0.152277498180554 
814	 0.152441248557876 
815	 0.153332899424581 
816	 0.154616682398427 
817	 0.15520161140654 
818	 0.155962787451722 
819	 0.157056702338914 
820	 0.157293305205775 
821	 0.157091529295175 
822	 0.157031673455027 
823	 0.157388171861943 
824	 0.158127062764592 
825	 0.158998805125078 
826	 0.15957671202352 
827	 0.159716702002737 
828	 0.159766253169261 
829	 0.159789007545851 
830	 0.159827358824965 
831	 0.160047033969595 
832	 0.160488207782774 
833	 0.161152646079135 
834	 0.161838980363285 
835	 0.162364415594862 
836	 0.162348250976674 
837	 0.16225786530682 
838	 0.162643391953896 
839	 0.163400302688457 
840	 0.164048897350379 
841	 0.163179267811769 
842	 0.163052905035759 
843	 0.164296100575564 
844	 0.164307801330204 
845	 0.164051006301465 
846	 0.164784640197954 
847	 0.164932617692308 
848	 0.164485880674087 
849	 0.164294787387669 
850	 0.164487712882111 
851	 0.165003217105823 
852	 0.16491376890271 
853	 0.16469272745806 
854	 0.164941111347072 
855	 0.16576307629182 
856	 0.166707750385084 
857	 0.166722360763778 
858	 0.166258789914204 
859	 0.165702443870055 
860	 0.165988630535537 
861	 0.166925182682996 
862	 0.168128228286621 
863	 0.167551116048804 
864	 0.166323284837021 
865	 0.168125732199037 
866	 0.169213603128896 
867	 0.168677745295693 
868	 0.168690165863263 
869	 0.168925166371634 
870	 0.169133213801896 
871	 0.170340904367173 
872	 0.171553329605326 
873	 0.170546834774448 
874	 0.1703006895205 
875	 0.171474341169007 
876	 0.172689773043896 
877	 0.17363548117312 
878	 0.17414006045718 
879	 0.174803436542808 
880	 0.175535608372995 
881	 0.17606756592405 
882	 0.176048941739887 
883	 0.175912979361205 
884	 0.177693262512837 
885	 0.178257006533766 
886	 0.176551949228896 
887	 0.178488880444269 
888	 0.181518518684119 
889	 0.181466304813603 
890	 0.180852412344233 
891	 0.180192613490683 
892	 0.178996990947784 
893	 0.179424057849903 
894	 0.181773720448767 
895	 0.180401265202395 
896	 0.17853072841342 
897	 0.180526091775824 
898	 0.182284248713292 
899	 0.183083645335634 
900	 0.183547571930155 
901	 0.183231846875104 
902	 0.182790689464661 
903	 0.1856840915752 
904	 0.187241460209678 
905	 0.184427997021821 
906	 0.185190629278468 
907	 0.187833182373012 
908	 0.187233654762037 
909	 0.186731652635739 
910	 0.18668948397363 
911	 0.18457886420074 
912	 0.184108957035284 
913	 0.18682292220351 
914	 0.187533654011143 
915	 0.187141442338382 
916	 0.187391954841534 
917	 0.18594828530691 
918	 0.184514379837105 
919	 0.189134075742444 
920	 0.191146578284868 
921	 0.18848557970089 
922	 0.187710731525606 
923	 0.187106376631204 
924	 0.185134767389154 
925	 0.18584591540614 
926	 0.187752853373965 
927	 0.186070496844336 
928	 0.182543954010939 
929	 0.178635330100047 
930	 0.178977541418384 
931	 0.17893460110527 
932	 0.175338310207568 
933	 0.177984154255993 
934	 0.182169488863945 
935	 0.178650079663441 
936	 0.173011065273231 
937	 0.169338008828618 
938	 0.17414999025172 
939	 0.176878327730786 
940	 0.174627587033734 
941	 0.171908065922984 
942	 0.169984355539406 
943	 0.169497872908604 
944	 0.167817003124154 
945	 0.169218498091968 
946	 0.180735112289878 
947	 0.181638314438618 
948	 0.172112893528069 
949	 0.171774955882876 
950	 0.168743063174263 
951	 0.16031093509538 
952	 0.159335649720159 
953	 0.161727919128622 
954	 0.162858612175612 
955	 0.163575496209256 
956	 0.163952446941713 
957	 0.164156974382157 
958	 0.164375358330899 
959	 0.163511320520215 
960	 0.156803613384088 
961	 0.155700863968715 
962	 0.163623056076291 
963	 0.167657180564104 
964	 0.167426671561629 
965	 0.164075412123112 
966	 0.163680890935503 
967	 0.164560894684896 
968	 0.160916469565744 
969	 0.16000587656826 
970	 0.16336585719187 
971	 0.169998840731617 
972	 0.170439375785722 
973	 0.161568041345698 
974	 0.15873972364115 
975	 0.162087096822058 
976	 0.169098881683915 
977	 0.167727237708802 
978	 0.160967412061607 
979	 0.160460565981215 
980	 0.161211631066216 
981	 0.162385884031017 
982	 0.165765238592825 
983	 0.169231968907388 
984	 0.170943616048674 
985	 0.167599856403126 
986	 0.164410198029428 
987	 0.166995898049067 
988	 0.170487501714976 
989	 0.172237315126858 
990	 0.168824073249956 
991	 0.165302840440274 
992	 0.164873324326705 
993	 0.173280432689697 
994	 0.176693125391446 
995	 0.169921651204496 
996	 0.167521708388178 
997	 0.16912499517085 
998	 0.172582478085184 
999	 0.172065575378757 
1000	 0.16911428675004 
1001	 0.168199946997881 
1002	 0.172421677413116 
1003	 0.179325598056343 
1004	 0.179086606243493 
1005	 0.175361990613191 
1006	 0.17191848840112 
1007	 0.179092403314963 
1008	 0.185128652889537 
1009	 0.18146910615589 
1010	 0.180249920596214 
1011	 0.180033819328804 
1012	 0.176948793355855 
1013	 0.180772033966933 
1014	 0.188476293859402 
1015	 0.188348150062449 
1016	 0.18196955084613 
1017	 0.173190807393647 
1018	 0.174864840365588 
1019	 0.181704974886476 
1020	 0.1893664331573 
1021	 0.19481629459231 
1022	 0.191178107374087 
1023	 0.175494431433703 
1024	 0.182846379532956 
1025	 0.199215996782383 
1026	 0.192273972948865 
1027	 0.188725597883155 
1028	 0.191736440683718 
1029	 0.191981822507494 
1030	 0.183544663085156 
1031	 0.169564784485249 
1032	 0.173817702903774 
1033	 0.179124328930685 
1034	 0.176478780494569 
1035	 0.186686140801791 
1036	 0.197402656492769 
1037	 0.195442186156049 
1038	 0.203613784791527 
1039	 0.213459195419063 
1040	 0.205208752005626 
1041	 0.194086904005521 
1042	 0.18603148406315 
1043	 0.186811265142648 
1044	 0.192548841772289 
1045	 0.198578226514391 
1046	 0.193395057236235 
1047	 0.189119349551932 
1048	 0.190610641338903 
1049	 0.180374147649067 
1050	 0.172566772709587 
1051	 0.179802360886999 
1052	 0.175173853770213 
1053	 0.170806672667851 
1054	 0.190083055195348 
1055	 0.185416876271603 
1056	 0.167247420960159 
1057	 0.187662609908984 
1058	 0.196625398990505 
1059	 0.184921188992213 
1060	 0.175443608973384 
1061	 0.173456584234685 
1062	 0.17991530634698 
1063	 0.185258652522133 
1064	 0.185495202630322 
1065	 0.179050561708012 
1066	 0.171348417000109 
1067	 0.165958656227277 
1068	 0.167823860386142 
1069	 0.188464395725722 
1070	 0.205998759404535 
1071	 0.186169996803984 
1072	 0.167693439050153 
1073	 0.164883771177569 
1074	 0.19267624052281 
1075	 0.193792663157937 
