Wavelength	AVEI200192.asd
325	 0.051804807592975 
326	 4.96598921057417E-02 
327	 0.041687131849041 
328	 3.88073790737905E-02 
329	 4.14356993644246E-02 
330	 4.75058217811553E-02 
331	 4.72098336026332E-02 
332	 4.39393279528983E-02 
333	 4.17155151204047E-02 
334	 4.37773898644048E-02 
335	 4.78748096438309E-02 
336	 4.78052292698284E-02 
337	 4.69740835668684E-02 
338	 4.62988672758984E-02 
339	 4.51735185032321E-02 
340	 4.35537511290684E-02 
341	 4.16183008406864E-02 
342	 4.21628816560414E-02 
343	 4.41706527667018E-02 
344	 0.045169099091904 
345	 4.45499882560509E-02 
346	 4.29845446415036E-02 
347	 4.37691475312672E-02 
348	 4.46843522917032E-02 
349	 4.40955796859253E-02 
350	 4.18356335513852E-02 
351	 3.92870748000958E-02 
352	 3.83335915756928E-02 
353	 4.02204211006019E-02 
354	 4.37896955936709E-02 
355	 4.43180916785184E-02 
356	 4.28846908987537E-02 
357	 4.07355229369327E-02 
358	 4.18161357851183E-02 
359	 4.32464114629444E-02 
360	 4.00239782791366E-02 
361	 0.040066397978487 
362	 4.29460455767185E-02 
363	 0.040305803640616 
364	 3.89960390908807E-02 
365	 4.18054916906872E-02 
366	 0.041328370215862 
367	 3.95877798350807E-02 
368	 4.02043885972677E-02 
369	 4.06718500427805E-02 
370	 4.03932182542543E-02 
371	 3.91609442993007E-02 
372	 3.86923677346849E-02 
373	 0.039663660875869 
374	 3.96850700732684E-02 
375	 3.93380714213444E-02 
376	 3.97598784322874E-02 
377	 3.96189795308195E-02 
378	 3.86696495893929E-02 
379	 3.68750246199356E-02 
380	 0.03664588141291 
381	 3.87977582881458E-02 
382	 4.00361617013215E-02 
383	 4.05254978253933E-02 
384	 4.09079822085665E-02 
385	 3.85781735605607E-02 
386	 3.49868395131988E-02 
387	 3.62486833144498E-02 
388	 3.76809437044477E-02 
389	 3.72552493928291E-02 
390	 3.70187333551675E-02 
391	 3.70325174278403E-02 
392	 3.71709877022841E-02 
393	 3.78221233041051E-02 
394	 3.85061184057499E-02 
395	 3.76662085087124E-02 
396	 3.71550779619333E-02 
397	 3.75895943002266E-02 
398	 3.75501312296929E-02 
399	 3.75432336274879E-02 
400	 3.81657551441466E-02 
401	 3.78841240697059E-02 
402	 0.037029652061172 
403	 3.70285402535235E-02 
404	 3.72459260579061E-02 
405	 3.72771301969838E-02 
406	 3.62882705430336E-02 
407	 3.52179763457556E-02 
408	 3.52758763237782E-02 
409	 3.60960478402985E-02 
410	 3.69972498341088E-02 
411	 3.63334398668206E-02 
412	 0.035752232840399 
413	 3.59496253241128E-02 
414	 3.59143443376507E-02 
415	 3.57742795195233E-02 
416	 3.58128089924722E-02 
417	 3.58027967890701E-02 
418	 3.57858492147942E-02 
419	 3.60653398723756E-02 
420	 3.62955974574071E-02 
421	 3.62769250432965E-02 
422	 3.60354983477331E-02 
423	 3.58472885710682E-02 
424	 0.036101882085204 
425	 3.59759478701789E-02 
426	 3.55637885508596E-02 
427	 3.60288353897859E-02 
428	 0.036357783592491 
429	 3.59780699364887E-02 
430	 3.59709762203688E-02 
431	 0.036114275547439 
432	 3.57747609135553E-02 
433	 0.03600193526625 
434	 0.036605932858624 
435	 3.58348587900163E-02 
436	 3.52688285111099E-02 
437	 3.58270820060172E-02 
438	 3.57102349189806E-02 
439	 3.51800148885492E-02 
440	 3.51478878143075E-02 
441	 3.54051995052609E-02 
442	 3.57968771305092E-02 
443	 3.59289834122109E-02 
444	 3.58269532409724E-02 
445	 3.55754267671874E-02 
446	 3.57430943328627E-02 
447	 3.60923648490522E-02 
448	 3.58595024290409E-02 
449	 0.035738748902835 
450	 3.58866471607539E-02 
451	 0.035853059829 
452	 3.57938644772136E-02 
453	 3.58799496668293E-02 
454	 3.59642970887341E-02 
455	 3.60197255437416E-02 
456	 3.60394702789098E-02 
457	 3.61472068209521E-02 
458	 3.63280191141043E-02 
459	 3.61730801068359E-02 
460	 3.59975807484106E-02 
461	 3.61945581623415E-02 
462	 3.59077155567712E-02 
463	 3.53636636252347E-02 
464	 3.58722771364837E-02 
465	 3.63599384151989E-02 
466	 3.62612742540244E-02 
467	 3.58480457368535E-02 
468	 3.54741652068509E-02 
469	 3.56016146454729E-02 
470	 3.57814473635546E-02 
471	 3.59223047877593E-02 
472	 3.62153154877009E-02 
473	 3.62749102067856E-02 
474	 3.59287042195385E-02 
475	 3.59208083299465E-02 
476	 3.60783542077462E-02 
477	 3.58985128801264E-02 
478	 0.035961183842334 
479	 3.62440387825807E-02 
480	 3.59110162655504E-02 
481	 0.035705633094713 
482	 3.61788753891401E-02 
483	 3.62635340487579E-02 
484	 0.036025822832386 
485	 3.60300919845846E-02 
486	 3.62816766532571E-02 
487	 3.66768301250601E-02 
488	 3.65430491986012E-02 
489	 3.64460653768071E-02 
490	 3.69541999653099E-02 
491	 3.68793172231298E-02 
492	 3.63764179169382E-02 
493	 3.64797378000527E-02 
494	 3.66329733183963E-02 
495	 3.66399349455654E-02 
496	 3.67864572424938E-02 
497	 3.69833033221021E-02 
498	 3.70869215409116E-02 
499	 3.73534686774022E-02 
500	 3.77327751169661E-02 
501	 3.78265557829977E-02 
502	 3.79998594493741E-02 
503	 3.84265166301928E-02 
504	 3.85882702656557E-02 
505	 3.87318732386835E-02 
506	 3.93734841587559E-02 
507	 4.00300408435944E-02 
508	 4.05231531969359E-02 
509	 4.07341011952879E-02 
510	 4.10083292518024E-02 
511	 0.041602569127359 
512	 4.21254843100903E-02 
513	 4.25632944907712E-02 
514	 4.30270322081951E-02 
515	 4.35845135969331E-02 
516	 4.42603073408758E-02 
517	 4.49973451888482E-02 
518	 4.57251400994509E-02 
519	 4.63700719599127E-02 
520	 4.70362173307999E-02 
521	 4.78582873340954E-02 
522	 4.92280027604679E-02 
523	 5.02502798768199E-02 
524	 5.05951157313859E-02 
525	 5.10375727594386E-02 
526	 5.16774240030427E-02 
527	 5.25237401479271E-02 
528	 5.31951231674479E-02 
529	 5.37019328616237E-02 
530	 5.44933129107841E-02 
531	 0.055343232887206 
532	 5.60758543960998E-02 
533	 5.65601292927943E-02 
534	 0.056823240288829 
535	 5.69165213210896E-02 
536	 5.72909411608398E-02 
537	 5.80202126909594E-02 
538	 5.86658083433678E-02 
539	 5.91304277362102E-02 
540	 5.93531793469171E-02 
541	 5.95974632556139E-02 
542	 5.99095038315971E-02 
543	 0.060211597812566 
544	 6.06784144417831E-02 
545	 6.12996785389658E-02 
546	 6.15656229500567E-02 
547	 6.16669864965758E-02 
548	 0.061912359625918 
549	 6.21255720963467E-02 
550	 6.23261277303558E-02 
551	 6.27095091756584E-02 
552	 6.30584850994977E-02 
553	 6.32381029538679E-02 
554	 6.33901082806827E-02 
555	 6.35032446688258E-02 
556	 0.063514475439 
557	 6.35512429760293E-02 
558	 6.36300682046679E-02 
559	 6.36140962086089E-02 
560	 6.35627762393439E-02 
561	 6.35358879235269E-02 
562	 6.35071106186399E-02 
563	 6.34584486172235E-02 
564	 6.33834787206037E-02 
565	 6.31444926545189E-02 
566	 6.27250127820529E-02 
567	 6.24192827584035E-02 
568	 6.21321836345535E-02 
569	 6.17062615715562E-02 
570	 6.13456844500094E-02 
571	 6.10851589280965E-02 
572	 0.06085525071839 
573	 6.06122674235135E-02 
574	 0.060325473677179 
575	 6.00523951196918E-02 
576	 0.059723095014342 
577	 5.91886178324411E-02 
578	 5.87697936890039E-02 
579	 5.85470951164167E-02 
580	 5.83101391167394E-02 
581	 5.82375841411147E-02 
582	 5.84326563237872E-02 
583	 5.80546390770412E-02 
584	 5.73263140159535E-02 
585	 5.71817951587997E-02 
586	 5.72825699426661E-02 
587	 5.74293213351803E-02 
588	 5.71715869251796E-02 
589	 5.67776455552467E-02 
590	 5.66683648168614E-02 
591	 5.64497710389036E-02 
592	 5.61126263099444E-02 
593	 5.58456238626859E-02 
594	 0.055940599571085 
595	 5.64496597718597E-02 
596	 5.63408673784882E-02 
597	 5.58143626975401E-02 
598	 5.54413348443024E-02 
599	 5.54237995531753E-02 
600	 0.055706179408444 
601	 5.56601160674511E-02 
602	 5.54595803875531E-02 
603	 5.52855308578031E-02 
604	 5.51322177261679E-02 
605	 0.055009584785081 
606	 5.49819607126777E-02 
607	 5.46485867637079E-02 
608	 5.39690075997429E-02 
609	 5.37557798588692E-02 
610	 5.38114663055218E-02 
611	 5.37865613159322E-02 
612	 5.35064556752037E-02 
613	 5.30345457302541E-02 
614	 5.27716571453251E-02 
615	 5.25515882791543E-02 
616	 5.22839629842939E-02 
617	 5.20568812709881E-02 
618	 5.18872904049987E-02 
619	 5.17802444158655E-02 
620	 5.17215622229168E-02 
621	 5.16670316192287E-02 
622	 5.15129028918464E-02 
623	 5.11641042281867E-02 
624	 5.06136414849492E-02 
625	 5.09541617766716E-02 
626	 5.17221662255462E-02 
627	 5.11761284232495E-02 
628	 5.06219778012909E-02 
629	 5.05688885623487E-02 
630	 5.07321298244361E-02 
631	 5.08770360138625E-02 
632	 5.07454398236856E-02 
633	 5.08392386603794E-02 
634	 5.10848947608394E-02 
635	 0.050915731890539 
636	 5.04157962571096E-02 
637	 4.96912411902517E-02 
638	 4.91299979921404E-02 
639	 4.87772170112945E-02 
640	 4.86213960921176E-02 
641	 4.82248322342132E-02 
642	 0.047547039962795 
643	 4.71241692672164E-02 
644	 4.66671405578396E-02 
645	 4.59176913346448E-02 
646	 4.51672345890925E-02 
647	 4.45828333157227E-02 
648	 4.44700000328069E-02 
649	 4.42511719536854E-02 
650	 4.37897432039976E-02 
651	 4.38143517376768E-02 
652	 4.39231397307291E-02 
653	 4.35775557951129E-02 
654	 4.31369656804346E-02 
655	 4.27776474091907E-02 
656	 4.28549110166785E-02 
657	 4.29258449016966E-02 
658	 4.27141320587363E-02 
659	 4.23941280825173E-02 
660	 4.19631567964461E-02 
661	 0.041353591949457 
662	 4.10685899339622E-02 
663	 4.10942316432439E-02 
664	 4.06877305732782E-02 
665	 4.02293033253885E-02 
666	 4.00382980441851E-02 
667	 3.97823783331916E-02 
668	 3.94336462395943E-02 
669	 0.039018924399659 
670	 3.88117142024195E-02 
671	 3.88649566584208E-02 
672	 3.87928598385644E-02 
673	 3.87008179728251E-02 
674	 3.87425717874269E-02 
675	 0.038742254705952 
676	 3.87568599601227E-02 
677	 3.90598428762514E-02 
678	 3.94749792829775E-02 
679	 0.039880939407011 
680	 4.01806443938818E-02 
681	 4.03820360230035E-02 
682	 4.05073948183306E-02 
683	 4.09015896144512E-02 
684	 4.16787306790202E-02 
685	 4.27948846143447E-02 
686	 4.43073077704934E-02 
687	 4.62011575711128E-02 
688	 4.76846118011171E-02 
689	 4.89314050092221E-02 
690	 5.09541875169312E-02 
691	 5.32280504885736E-02 
692	 5.57003860581617E-02 
693	 5.85213100215254E-02 
694	 6.17038272254559E-02 
695	 6.50899540284887E-02 
696	 6.83969251811463E-02 
697	 0.071640539886947 
698	 7.51146918945413E-02 
699	 7.91792555379974E-02 
700	 8.38589360441995E-02 
701	 8.83359886204304E-02 
702	 9.25493151724081E-02 
703	 9.65923013827492E-02 
704	 0.100666588454626 
705	 0.104952343464957 
706	 0.109685143954393 
707	 0.11413715865995 
708	 0.117921565264744 
709	 0.12217183693423 
710	 0.126663261865847 
711	 0.130730364970331 
712	 0.134582887549691 
713	 0.138292584445229 
714	 0.142079154157676 
715	 0.145674401582254 
716	 0.149001411881746 
717	 0.152075685522662 
718	 0.155407544234022 
719	 0.159938318872324 
720	 0.163884478009698 
721	 0.166517854493607 
722	 0.16902022947856 
723	 0.171608092871911 
724	 0.174223771694526 
725	 0.176596606757268 
726	 0.17861273806107 
727	 0.180750247200806 
728	 0.182999235934521 
729	 0.185275895047611 
730	 0.187020203428714 
731	 0.188456157601334 
732	 0.189969226677864 
733	 0.191377544056908 
734	 0.192752052216999 
735	 0.194331276374608 
736	 0.195807762361457 
737	 0.196939509611114 
738	 0.198072372578141 
739	 0.199144312249206 
740	 0.199934495978063 
741	 0.200696900460452 
742	 0.201496945646228 
743	 0.202196970026074 
744	 0.203020660079389 
745	 0.204132777891965 
746	 0.205071444206927 
747	 0.205728492557104 
748	 0.206006604209623 
749	 0.206661739176084 
750	 0.207758265978431 
751	 0.207901860517952 
752	 0.208042689892292 
753	 0.209222437626777 
754	 0.209707662649207 
755	 0.209605935867631 
756	 0.21026890486558 
757	 0.210931070684961 
758	 0.211286121109022 
759	 0.211298790675908 
760	 0.211411360993043 
761	 0.212781953479957 
762	 0.213915269820114 
763	 0.21437181446443 
764	 0.214670120805872 
765	 0.215258621194874 
766	 0.216080697815927 
767	 0.216212514192039 
768	 0.216177712619776 
769	 0.21660023628358 
770	 0.217136055123706 
771	 0.217643861307952 
772	 0.217944158046084 
773	 0.218063851754759 
774	 0.218084612431548 
775	 0.218498754420478 
776	 0.219159504046683 
777	 0.21968248662144 
778	 0.22014035127363 
779	 0.220518847189987 
780	 0.220750877484016 
781	 0.220956869590695 
782	 0.221250138182653 
783	 0.221730207963167 
784	 0.222283938717276 
785	 0.2226565499865 
786	 0.222878039256384 
787	 0.223014584082728 
788	 0.22336991784663 
789	 0.223644526038952 
790	 0.223592307780707 
791	 0.224001285150235 
792	 0.224687539994416 
793	 0.224865672318306 
794	 0.224928858945552 
795	 0.225003086641742 
796	 0.224986583046505 
797	 0.225142290452046 
798	 0.225721490700385 
799	 0.226601048710592 
800	 0.227299722038102 
801	 0.226499005250528 
802	 0.226278962059815 
803	 0.227274807716525 
804	 0.227868821917969 
805	 0.2282151335664 
806	 0.228620954207288 
807	 0.22919150773821 
808	 0.229771461180128 
809	 0.229798017401002 
810	 0.229929278230655 
811	 0.230383233358901 
812	 0.230546582528994 
813	 0.230430017745737 
814	 0.230136549516714 
815	 0.230321228411931 
816	 0.231019910264258 
817	 0.231661821986885 
818	 0.232238112433433 
819	 0.232777752443871 
820	 0.233720507288235 
821	 0.234440081846154 
822	 0.234192880895106 
823	 0.234569927740544 
824	 0.235429525601001 
825	 0.235313549114503 
826	 0.235358644433014 
827	 0.235861972148697 
828	 0.23542155018378 
829	 0.235142355154625 
830	 0.23643768071875 
831	 0.236850103072381 
832	 0.236432243897687 
833	 0.236952440656837 
834	 0.237579856688791 
835	 0.237876297185374 
836	 0.237327615738451 
837	 0.237000182008091 
838	 0.238078085118349 
839	 0.239029365833132 
840	 0.239554643690994 
841	 0.239884784811881 
842	 0.239872213248826 
843	 0.239556906997485 
844	 0.239380339162741 
845	 0.239556983069951 
846	 0.240228805585003 
847	 0.240305721303453 
848	 0.239961692444562 
849	 0.240447847028793 
850	 0.240772317147163 
851	 0.240536866910948 
852	 0.239935563530831 
853	 0.239482526041286 
854	 0.239699670068578 
855	 0.240357704232444 
856	 0.241129804917533 
857	 0.241422746695373 
858	 0.241551096547795 
859	 0.241604235655778 
860	 0.241419074764399 
861	 0.24152590062231 
862	 0.242334979165114 
863	 0.242277917084205 
864	 0.24171412786238 
865	 0.242196850260814 
866	 0.242736306544711 
867	 0.243052043162728 
868	 0.243434413459872 
869	 0.243844259392694 
870	 0.244218353972916 
871	 0.244301402058781 
872	 0.244208265343723 
873	 0.244161579699829 
874	 0.244895493021552 
875	 0.24641016408621 
876	 0.247818256389607 
877	 0.248510534210608 
878	 0.248239541416598 
879	 0.248694289244978 
880	 0.249562291145283 
881	 0.249921954218026 
882	 0.250653101864906 
883	 0.251628968258133 
884	 0.251728112169199 
885	 0.251208141865561 
886	 0.250603668791699 
887	 0.252299983500486 
888	 0.254773508027486 
889	 0.255665265084141 
890	 0.255057117191847 
891	 0.253632568546159 
892	 0.253425076819344 
893	 0.254150472956621 
894	 0.255384090960417 
895	 0.254963258634571 
896	 0.254030131229662 
897	 0.254235233602889 
898	 0.254992385404428 
899	 0.255904914573177 
900	 0.256327813978016 
901	 0.256302190167941 
902	 0.256257489971064 
903	 0.25820640464514 
904	 0.259095881998442 
905	 0.256905146727765 
906	 0.256239581032734 
907	 0.257078162697015 
908	 0.258116495045307 
909	 0.258837930512032 
910	 0.258813002955217 
911	 0.257571353929158 
912	 0.256234117029465 
913	 0.255561837665845 
914	 0.255207590328943 
915	 0.25551492138641 
916	 0.256782436222083 
917	 0.255007898514369 
918	 0.251964074475329 
919	 0.254638176999651 
920	 0.256847252676028 
921	 0.256712760231357 
922	 0.256349683244959 
923	 0.257072697609433 
924	 0.259564117283113 
925	 0.257954018366359 
926	 0.253945203933353 
927	 0.253795105585882 
928	 0.252135498778147 
929	 0.248072719347908 
930	 0.247380437490874 
931	 0.246006354630184 
932	 0.241308282337525 
933	 0.242269784914179 
934	 0.244836520127777 
935	 0.240878506461065 
936	 0.239325589684773 
937	 0.239271639035214 
938	 0.231863658302871 
939	 0.231115671414493 
940	 0.237958983057833 
941	 0.236063777322228 
942	 0.231431124929265 
943	 0.228761380516268 
944	 0.225838543795604 
945	 0.225950199042505 
946	 0.234233664028609 
947	 0.238309327514879 
948	 0.234641396642141 
949	 0.223774014749261 
950	 0.214044816130717 
951	 0.209817199729748 
952	 0.211605606092077 
953	 0.214252564958194 
954	 0.213360871918477 
955	 0.21482400889051 
956	 0.214339327965494 
957	 0.202560617194049 
958	 0.199167606606874 
959	 0.204742364154853 
960	 0.203578193565448 
961	 0.19988840138719 
962	 0.196331621887465 
963	 0.195066822614039 
964	 0.195714140759137 
965	 0.197625679307506 
966	 0.200414886034249 
967	 0.202096402929955 
968	 0.199146744680091 
969	 0.197909823375208 
970	 0.199922134170456 
971	 0.204161291803908 
972	 0.2049881785374 
973	 0.200535050032102 
974	 0.200030242374486 
975	 0.202848171494448 
976	 0.206817829414996 
977	 0.205908691047015 
978	 0.20195823316633 
979	 0.201605727572019 
980	 0.200746020387667 
981	 0.199365598861874 
982	 0.201162374249595 
983	 0.204784279046885 
984	 0.208310585037096 
985	 0.205491277955194 
986	 0.20265764472677 
987	 0.206718181310606 
988	 0.20983101062581 
989	 0.210590494390931 
990	 0.20908935259515 
991	 0.206382854552132 
992	 0.20475435304645 
993	 0.210710159564215 
994	 0.21399340817836 
995	 0.210765127729893 
996	 0.212114895068882 
997	 0.214255466016512 
998	 0.21298420232504 
999	 0.213354511322748 
1000	 0.214319767139065 
1001	 0.212652128961704 
1002	 0.213917033868203 
1003	 0.217409360982249 
1004	 0.216437670147431 
1005	 0.213652994644221 
1006	 0.212413035526151 
1007	 0.223307260459854 
1008	 0.231838919292402 
1009	 0.22763344054652 
1010	 0.226162650787018 
1011	 0.226351701344454 
1012	 0.224016057721667 
1013	 0.224350376437339 
1014	 0.22783419865033 
1015	 0.233537862418954 
1016	 0.232410717110891 
1017	 0.225248264869746 
1018	 0.228604294221065 
1019	 0.230935343844774 
1020	 0.227995954150539 
1021	 0.237490685996447 
1022	 0.244262319142808 
1023	 0.234271812531189 
1024	 0.237797417302962 
1025	 0.247527620683278 
1026	 0.24355546586459 
1027	 0.237262807694784 
1028	 0.233793671010978 
1029	 0.239887926514932 
1030	 0.243817323805248 
1031	 0.242138661315195 
1032	 0.240868672839029 
1033	 0.242479580291073 
1034	 0.247765177270667 
1035	 0.251398191495021 
1036	 0.253258264887583 
1037	 0.254016929579967 
1038	 0.256300978220334 
1039	 0.256001148824362 
1040	 0.245904727676108 
1041	 0.239582745089885 
1042	 0.239650047581163 
1043	 0.24292646529034 
1044	 0.244765790731109 
1045	 0.245288689768636 
1046	 0.255655364600917 
1047	 0.257890402648361 
1048	 0.24609136920363 
1049	 0.252855700323593 
1050	 0.262532365977769 
1051	 0.257749195379061 
1052	 0.246292056143829 
1053	 0.243119588459345 
1054	 0.267380292348571 
1055	 0.270308971650234 
1056	 0.254218421053588 
1057	 0.25235957454847 
1058	 0.250754432396836 
1059	 0.248354107012183 
1060	 0.255110924724221 
1061	 0.26259614347729 
1062	 0.265387361703127 
1063	 0.256753487475284 
1064	 0.250606801181604 
1065	 0.254093291679693 
1066	 0.234733839362407 
1067	 0.221469637266531 
1068	 0.248402679201082 
1069	 0.267888328644105 
1070	 0.265314923764324 
1071	 0.235374584491932 
1072	 0.233089542859435 
1073	 0.252796575058694 
1074	 0.243883125820898 
1075	 0.231342275824301 
