Wavelength	AVEI200265.asd
325	 7.87204738784362E-02 
326	 7.46030832107785E-02 
327	 8.11441891676607E-02 
328	 7.53188047336238E-02 
329	 7.15999230272495E-02 
330	 7.28784970205832E-02 
331	 6.50967015071264E-02 
332	 5.97888422610796E-02 
333	 6.81028821552667E-02 
334	 7.59145809457783E-02 
335	 7.96017115872913E-02 
336	 7.73004537408785E-02 
337	 0.074427828251462 
338	 7.22555180389865E-02 
339	 6.61857377742618E-02 
340	 0.063008543983223 
341	 0.067587392567341 
342	 0.068691645309036 
343	 6.76764140928674E-02 
344	 7.03931669540204E-02 
345	 7.33120138796995E-02 
346	 7.49629903683802E-02 
347	 0.073619921298298 
348	 7.24292523350891E-02 
349	 0.073301379096564 
350	 7.30435986286569E-02 
351	 7.23122654365209E-02 
352	 7.27339243164777E-02 
353	 7.36706297429484E-02 
354	 7.42950319065003E-02 
355	 7.19860514923365E-02 
356	 7.13303017651172E-02 
357	 7.44299127484745E-02 
358	 7.46894136244518E-02 
359	 7.34482018831032E-02 
360	 7.38861722872193E-02 
361	 7.46413814648959E-02 
362	 7.53234924875213E-02 
363	 7.59715430821631E-02 
364	 7.51230143972885E-02 
365	 7.27688467306849E-02 
366	 7.41161805384068E-02 
367	 0.076183450114036 
368	 7.44107024411425E-02 
369	 7.34616086702059E-02 
370	 7.38061908444713E-02 
371	 7.33837567234201E-02 
372	 7.23020413633478E-02 
373	 7.09885113745263E-02 
374	 7.23298322319294E-02 
375	 7.34973920423608E-02 
376	 7.03801753122955E-02 
377	 7.14740064210727E-02 
378	 7.56903034250647E-02 
379	 7.26756674861474E-02 
380	 7.00350256529437E-02 
381	 7.15153116234802E-02 
382	 7.45568597855243E-02 
383	 7.63280983806569E-02 
384	 0.073613319629059 
385	 7.19501167825139E-02 
386	 0.072208829791013 
387	 7.23164966090108E-02 
388	 0.071999627039627 
389	 7.13820306914243E-02 
390	 7.22032948152789E-02 
391	 0.073681806543507 
392	 7.47359084739053E-02 
393	 7.39058103502859E-02 
394	 0.071975051612221 
395	 7.16613334653451E-02 
396	 7.32462766104788E-02 
397	 0.075779396542664 
398	 0.073792300451655 
399	 7.09623860262131E-02 
400	 7.12680607566855E-02 
401	 7.17615548646253E-02 
402	 7.20275669479097E-02 
403	 7.24177865484135E-02 
404	 7.30331391300037E-02 
405	 7.37187906401389E-02 
406	 7.32499436257101E-02 
407	 7.26428102485432E-02 
408	 7.32361797602201E-02 
409	 7.35473054144967E-02 
410	 7.33475084365834E-02 
411	 7.29572547945328E-02 
412	 0.072622248692898 
413	 7.25872285526663E-02 
414	 7.35089736226065E-02 
415	 7.44496912083815E-02 
416	 7.41699045993147E-02 
417	 7.43191546646127E-02 
418	 7.50210991085221E-02 
419	 7.55089832986424E-02 
420	 7.54348941056016E-02 
421	 7.47485528993394E-02 
422	 7.45187773108103E-02 
423	 0.074740397810494 
424	 7.52001265940539E-02 
425	 7.56251864256069E-02 
426	 7.59467626858992E-02 
427	 7.63471384866474E-02 
428	 0.076418752051427 
429	 7.60412690188929E-02 
430	 7.65086761348876E-02 
431	 7.72668644490475E-02 
432	 7.71131597601522E-02 
433	 7.68737684748052E-02 
434	 7.68136816238287E-02 
435	 7.69961221759536E-02 
436	 0.077267813146739 
437	 7.75158489047795E-02 
438	 7.77083951897418E-02 
439	 7.78680503194006E-02 
440	 7.80415395617862E-02 
441	 7.83114272490306E-02 
442	 7.86410362664166E-02 
443	 7.87518503572902E-02 
444	 7.88817125402109E-02 
445	 7.92421632878141E-02 
446	 0.079946572235283 
447	 8.06109842439401E-02 
448	 8.03140588381713E-02 
449	 8.02690254234939E-02 
450	 8.07730246812122E-02 
451	 8.10696963978822E-02 
452	 0.081168449160281 
453	 8.11248776570864E-02 
454	 8.09311070971729E-02 
455	 8.08519792226477E-02 
456	 8.15849056709986E-02 
457	 8.22846517067429E-02 
458	 8.25593270300117E-02 
459	 8.25042122023244E-02 
460	 8.23438982341814E-02 
461	 8.23411099500946E-02 
462	 8.27603391280046E-02 
463	 8.33379278979422E-02 
464	 0.082982514250326 
465	 8.31218359342077E-02 
466	 8.42507644576341E-02 
467	 8.42224972254172E-02 
468	 8.37879257144645E-02 
469	 8.43975753285381E-02 
470	 8.45747512022114E-02 
471	 0.084225419726139 
472	 8.43981695220486E-02 
473	 8.45982045622296E-02 
474	 8.45376130776087E-02 
475	 8.45945068497379E-02 
476	 8.46726268164705E-02 
477	 8.44947870576612E-02 
478	 0.084661909393588 
479	 8.51597034233695E-02 
480	 8.51099605043854E-02 
481	 8.51995901012184E-02 
482	 8.59195707393422E-02 
483	 8.60044944751485E-02 
484	 8.57392347496317E-02 
485	 8.63910931186033E-02 
486	 8.65813599344792E-02 
487	 8.60365922558039E-02 
488	 8.61054291906123E-02 
489	 8.64309889126579E-02 
490	 8.65513444556299E-02 
491	 0.086435687345021 
492	 8.62726723219083E-02 
493	 8.65684159469334E-02 
494	 8.70333168825404E-02 
495	 8.74763015977167E-02 
496	 8.75293898333203E-02 
497	 8.76984556519297E-02 
498	 8.86743388986845E-02 
499	 8.90525132087377E-02 
500	 8.87644792681807E-02 
501	 8.88200442336321E-02 
502	 8.90410364983532E-02 
503	 8.93350431722102E-02 
504	 8.98063252532135E-02 
505	 9.02283077714479E-02 
506	 9.02230931809081E-02 
507	 9.02247717464133E-02 
508	 9.03920996299427E-02 
509	 9.08093734030149E-02 
510	 9.11181053857666E-02 
511	 9.10865163638499E-02 
512	 9.14756949905891E-02 
513	 9.21959023227809E-02 
514	 9.28623604895888E-02 
515	 9.27821870721206E-02 
516	 9.20186241432736E-02 
517	 9.25478471318848E-02 
518	 9.32988846147678E-02 
519	 9.29997351523998E-02 
520	 0.093007488576401 
521	 9.34391884499604E-02 
522	 9.38697617665936E-02 
523	 9.42394081453789E-02 
524	 9.44777626812585E-02 
525	 9.43924625441083E-02 
526	 9.44094338121029E-02 
527	 9.51436936283496E-02 
528	 9.56786868752954E-02 
529	 9.58789617160603E-02 
530	 0.09625865954806 
531	 9.64339040202532E-02 
532	 9.62197915526675E-02 
533	 9.63597741320305E-02 
534	 9.67327561754584E-02 
535	 9.68634820567836E-02 
536	 9.70888201383298E-02 
537	 9.74716758537925E-02 
538	 9.78194405679613E-02 
539	 9.81626146329406E-02 
540	 0.098528759517686 
541	 9.87848236517877E-02 
542	 9.89464903900215E-02 
543	 9.91349521242889E-02 
544	 9.92695652339524E-02 
545	 9.93626427103934E-02 
546	 9.96540126803674E-02 
547	 0.100033585893946 
548	 0.100332243549531 
549	 0.100308020952364 
550	 0.100098946867893 
551	 0.100372311245246 
552	 0.100720410639831 
553	 0.10090972523174 
554	 0.101320638672563 
555	 0.10174993087413 
556	 0.101721112417741 
557	 0.101883074654988 
558	 0.102260433003034 
559	 0.101953495783987 
560	 0.101550934694408 
561	 0.10164262352609 
562	 0.102212183599294 
563	 0.102953465383111 
564	 0.103140217016219 
565	 0.103118469773171 
566	 0.103063546759475 
567	 0.103168143927248 
568	 0.103398168289565 
569	 0.103676882482213 
570	 0.103840697185998 
571	 0.103870991241527 
572	 0.103856984976996 
573	 0.103952425674227 
574	 0.104250352735223 
575	 0.104656630998346 
576	 0.104990898350704 
577	 0.104967512970426 
578	 0.104846359840789 
579	 0.104710984735894 
580	 0.104455222913431 
581	 0.104425163033028 
582	 0.104865788972675 
583	 0.1048100365705 
584	 0.104508396511737 
585	 0.105107071334338 
586	 0.1056538758721 
587	 0.105735729792912 
588	 0.105338066471761 
589	 0.105029795400207 
590	 0.105549147825344 
591	 0.105686639848779 
592	 0.105427819579051 
593	 0.105765436290345 
594	 0.106116667175456 
595	 0.106125807945579 
596	 0.105804622941104 
597	 0.105527219810185 
598	 0.105942381703041 
599	 0.106251350617312 
600	 0.10626624539217 
601	 0.106412350201231 
602	 0.106325031525085 
603	 0.105737984015432 
604	 0.105561643032204 
605	 0.10577520121605 
606	 0.105934488348565 
607	 0.105806672053727 
608	 0.105406030890314 
609	 0.105546116076428 
610	 0.106021094606335 
611	 0.106469287957886 
612	 0.106834390947071 
613	 0.106990827366996 
614	 0.106688134132395 
615	 0.106219382143567 
616	 0.105835867626236 
617	 0.105822259259435 
618	 0.106098164504004 
619	 0.10647676591741 
620	 0.106535115051913 
621	 0.106228054188255 
622	 0.106024678171318 
623	 0.105950113999392 
624	 0.106022146342311 
625	 0.106379990455038 
626	 0.106752989100823 
627	 0.106359071467391 
628	 0.106209291681047 
629	 0.106591982992405 
630	 0.106535473263699 
631	 0.106363672652972 
632	 0.106573701458577 
633	 0.106687728160002 
634	 0.106655763123778 
635	 0.106721785099119 
636	 0.106648994201617 
637	 0.106375281980456 
638	 0.106503530728767 
639	 0.107010400631723 
640	 0.107767295681311 
641	 0.107829524276546 
642	 0.107161006489231 
643	 0.107051300418533 
644	 0.107259502199632 
645	 0.107521541059432 
646	 0.107775620495619 
647	 0.107893271663127 
648	 0.107609606116342 
649	 0.107316137170083 
650	 0.107222835911233 
651	 0.107476904186954 
652	 0.107605266559993 
653	 0.107048024495117 
654	 0.106945319979294 
655	 0.107342092089951 
656	 0.107399700466513 
657	 0.107141039969883 
658	 0.106580729781487 
659	 0.105542364865565 
660	 0.104676792150197 
661	 0.105061773015457 
662	 0.104896326880823 
663	 0.10401371107672 
664	 0.104133560525787 
665	 0.104262398500001 
666	 0.103570045981848 
667	 0.102849434706355 
668	 0.10242784910743 
669	 0.102786070857193 
670	 0.102923143813515 
671	 0.102578582251773 
672	 0.102734733659496 
673	 0.102847570244678 
674	 0.102245804083982 
675	 0.102280977490664 
676	 0.102892102422919 
677	 0.102914645162352 
678	 0.102856704697998 
679	 0.103053773316657 
680	 0.103955683188653 
681	 0.104867727827973 
682	 0.10460941480501 
683	 0.104838716906403 
684	 0.105681197502106 
685	 0.105564841576138 
686	 0.105636690353566 
687	 0.106901886462056 
688	 0.108096845139767 
689	 0.108852686971974 
690	 0.109214373474269 
691	 0.10952792330268 
692	 0.109974473798775 
693	 0.110644653231461 
694	 0.111295925577014 
695	 0.111649553140111 
696	 0.111884012693074 
697	 0.112174404739208 
698	 0.112968757904709 
699	 0.11338173677845 
700	 0.113142599853027 
701	 0.11375412101608 
702	 0.114494824571651 
703	 0.114166601369141 
704	 0.114273059542951 
705	 0.114824056053063 
706	 0.114522069499851 
707	 0.114172091988225 
708	 0.114302690202002 
709	 0.114684729704127 
710	 0.115065501439076 
711	 0.11504622160012 
712	 0.11500344490653 
713	 0.115137843748519 
714	 0.115782708591202 
715	 0.116344949938035 
716	 0.116323476839351 
717	 0.116937749466711 
718	 0.118127475256485 
719	 0.118660317442619 
720	 0.118321432595672 
721	 0.117440141562074 
722	 0.117294176092807 
723	 0.117523389772059 
724	 0.117702254906342 
725	 0.117789860054152 
726	 0.117893519179769 
727	 0.118559758870359 
728	 0.118733626276412 
729	 0.118032124720638 
730	 0.117798085336099 
731	 0.117845443091138 
732	 0.117682624760636 
733	 0.118106150975714 
734	 0.118788839712159 
735	 0.118064145779071 
736	 0.117394317533607 
737	 0.117719756586982 
738	 0.117966883222396 
739	 0.117990991128041 
740	 0.117792104877041 
741	 0.117826212752524 
742	 0.118139060008155 
743	 0.118251642430258 
744	 0.118264751453099 
745	 0.118273443266639 
746	 0.118170338920178 
747	 0.118068539808722 
748	 0.118261154320909 
749	 0.118494185912531 
750	 0.118675653125358 
751	 0.118869657894998 
752	 0.119032208273746 
753	 0.119117026960935 
754	 0.119166259539073 
755	 0.119166713914079 
756	 0.119063001638386 
757	 0.118841730044998 
758	 0.118545872833767 
759	 0.118636781643354 
760	 0.119621768750872 
761	 0.121661575227044 
762	 0.122316925543986 
763	 0.121753024527555 
764	 0.12215791780707 
765	 0.122295460733476 
766	 0.121828283915605 
767	 0.121030526229789 
768	 0.120365401530402 
769	 0.120339136365654 
770	 0.120333316470693 
771	 0.120223279510691 
772	 0.120048113286761 
773	 0.120249628562417 
774	 0.121028468184382 
775	 0.121429907848932 
776	 0.121451181969735 
777	 0.121349342788762 
778	 0.121468240939513 
779	 0.121740768847069 
780	 0.121347239572762 
781	 0.1208463059575 
782	 0.120724816641802 
783	 0.120948879889456 
784	 0.121486499722571 
785	 0.122381407267985 
786	 0.122443191838593 
787	 0.12154721036871 
788	 0.121265002191557 
789	 0.121490619555179 
790	 0.122008906689767 
791	 0.122338935110405 
792	 0.12256177896231 
793	 0.123302448323729 
794	 0.123053568850642 
795	 0.121808654458945 
796	 0.122506669478139 
797	 0.123431742527903 
798	 0.122780995727353 
799	 0.122718383262093 
800	 0.123194289287803 
801	 0.122825582537044 
802	 0.123081867695456 
803	 0.124135967994255 
804	 0.1236463655502 
805	 0.122873281743495 
806	 0.123307227765455 
807	 0.123874108892766 
808	 0.124283288894466 
809	 0.124405649297961 
810	 0.124044274565849 
811	 0.123335945464528 
812	 0.123715370993132 
813	 0.12441594158528 
814	 0.124252962285049 
815	 0.124755987348171 
816	 0.12576154304522 
817	 0.125461060856026 
818	 0.125575366777149 
819	 0.126375627824184 
820	 0.124951098723585 
821	 0.123328131438595 
822	 0.124077960539381 
823	 0.124751705780121 
824	 0.124753473799271 
825	 0.123935635955533 
826	 0.124247789930482 
827	 0.126078838194797 
828	 0.126071016107971 
829	 0.125360223594418 
830	 0.125704814728562 
831	 0.125800180457764 
832	 0.125636553812311 
833	 0.126046534779497 
834	 0.125842120917782 
835	 0.124868160727523 
836	 0.125322783278394 
837	 0.125967891349975 
838	 0.125253365152645 
839	 0.124193099099941 
840	 0.123598717333298 
841	 0.125318645191135 
842	 0.125781801375631 
843	 0.123999714206819 
844	 0.124022223758741 
845	 0.125067739413119 
846	 0.125826729825647 
847	 0.125068723609254 
848	 0.12360637176695 
849	 0.124635950585245 
850	 0.125659599712082 
851	 0.125770084642332 
852	 0.126121259644333 
853	 0.126330162021591 
854	 0.125923151055764 
855	 0.12500701174017 
856	 0.124057902810749 
857	 0.124019402304895 
858	 0.124756735583008 
859	 0.125790722811462 
860	 0.124964939930191 
861	 0.124178078011085 
862	 0.125232060172407 
863	 0.125863174034878 
864	 0.126003190826322 
865	 0.126649822902043 
866	 0.125985566598832 
867	 0.1241493720143 
868	 0.124518525482153 
869	 0.12599523427757 
870	 0.127293808826216 
871	 0.126086206858769 
872	 0.123958595089669 
873	 0.124697003350581 
874	 0.125545285799953 
875	 0.125666019722164 
876	 0.125189772697327 
877	 0.124818727211496 
878	 0.125009949869729 
879	 0.125006818370597 
880	 0.12506224751527 
881	 0.125737381308295 
882	 0.126629691709457 
883	 0.127207067313725 
884	 0.125861060371695 
885	 0.125828993334062 
886	 0.128452704020897 
887	 0.129617822532632 
888	 0.128458517735539 
889	 0.124598563718955 
890	 0.123848535704533 
891	 0.126079315157689 
892	 0.125981427654578 
893	 0.124803590755939 
894	 0.123462215759125 
895	 0.124693606510649 
896	 0.127094507938736 
897	 0.128626267338948 
898	 0.130621614022719 
899	 0.132138205634949 
900	 0.130400665174019 
901	 0.129548538210267 
902	 0.130289941060741 
903	 0.128793958612031 
904	 0.127705246842539 
905	 0.128720188238194 
906	 0.126557792257997 
907	 0.124161501491715 
908	 0.12824244699121 
909	 0.129257805639933 
910	 0.126122574285506 
911	 0.126181055700164 
912	 0.127871393599596 
913	 0.129789156288593 
914	 0.129026427580643 
915	 0.127202462005379 
916	 0.126689579795814 
917	 0.1272597773862 
918	 0.128278234848273 
919	 0.128283258154518 
920	 0.127249543000624 
921	 0.126041517268106 
922	 0.12956837552587 
923	 0.130798379041483 
924	 0.124184274926691 
925	 0.123668958022676 
926	 0.128834903419479 
927	 0.133202467361342 
928	 0.133234927291118 
929	 0.128237413296439 
930	 0.125095162705176 
931	 0.124909789629416 
932	 0.128941451907558 
933	 0.136771584711924 
934	 0.142211179405238 
935	 0.136646988614623 
936	 0.12811182256582 
937	 0.123227928802376 
938	 0.133492200451996 
939	 0.139014444571454 
940	 0.136115300346794 
941	 0.138480117492291 
942	 0.139871436184386 
943	 0.135525883976144 
944	 0.127042680836655 
945	 0.12237359332478 
946	 0.133820598313918 
947	 0.136476416569655 
948	 0.127344346157635 
949	 0.116172669205902 
950	 0.11831174663447 
951	 0.135544233178446 
952	 0.139650141307035 
953	 0.138318424584256 
954	 0.139841358012675 
955	 0.13892931420573 
956	 0.136865163743525 
957	 0.136941074799692 
958	 0.137894741116421 
959	 0.137585576569536 
960	 0.129222607214244 
961	 0.12768990848681 
962	 0.135871248578931 
963	 0.128429938029065 
964	 0.122205536218364 
965	 0.133296966776664 
966	 0.136112794394355 
967	 0.131205084696353 
968	 0.127942109351906 
969	 0.123288584648106 
970	 0.119871276230852 
971	 0.129745869819045 
972	 0.135162997889236 
973	 0.128755986000277 
974	 0.130926195378721 
975	 0.13425728815349 
976	 0.129242254380845 
977	 0.12955905851552 
978	 0.13461202641492 
979	 0.138169472961296 
980	 0.134294343173753 
981	 0.125356913434903 
982	 0.127611415777899 
983	 0.130390528695114 
984	 0.12865343530419 
985	 0.129909864007473 
986	 0.129544183275611 
987	 0.122897305920361 
988	 0.120835831922426 
989	 0.124373009121095 
990	 0.131538289558842 
991	 0.131681767036227 
992	 0.124522750372497 
993	 0.120813187601422 
994	 0.121310736762356 
995	 0.124928790704827 
996	 0.12184058721076 
997	 0.120423444898967 
998	 0.128504924520968 
999	 0.131967314791183 
1000	 0.130997216261671 
1001	 0.130376905203795 
1002	 0.1265178335073 
1003	 0.121692253664921 
1004	 0.124888429568978 
1005	 0.130419604331707 
1006	 0.134763907770845 
1007	 0.134026479099244 
1008	 0.132463713345671 
1009	 0.133466789478081 
1010	 0.133664505039622 
1011	 0.135108250227962 
1012	 0.140411343008036 
1013	 0.131059998572368 
1014	 0.114718496644787 
1015	 0.12009719272863 
1016	 0.131454089575333 
1017	 0.139371495771168 
1018	 0.129120424085222 
1019	 0.120591020340902 
1020	 0.124457456501014 
1021	 0.127031269888413 
1022	 0.134971924706729 
1023	 0.15228919160231 
1024	 0.137347469732415 
1025	 0.110847753063915 
1026	 0.119199889522296 
1027	 0.134485581510788 
1028	 0.145069857370634 
1029	 0.137390687372395 
1030	 0.134439550950141 
1031	 0.14049733474908 
1032	 0.135404401397386 
1033	 0.128331427287471 
1034	 0.126378437938627 
1035	 0.129852799800544 
1036	 0.13605887525449 
1037	 0.140886374106398 
1038	 0.140334315578389 
1039	 0.136633403099202 
1040	 0.134639285818204 
1041	 0.144344900414866 
1042	 0.153562901291642 
1043	 0.117536897839021 
1044	 0.110040980181516 
1045	 0.137259577263555 
1046	 0.10302870720605 
1047	 9.02492407195642E-02 
1048	 0.135877366065977 
1049	 0.123445441489524 
1050	 0.106284501361512 
1051	 0.13782587358207 
1052	 0.120975265522128 
1053	 8.70829283200047E-02 
1054	 9.80513869416028E-02 
1055	 0.127365234538306 
1056	 0.146050215429728 
1057	 0.112767003886436 
1058	 0.100305910927667 
1059	 0.115039414101262 
1060	 7.76526858791242E-02 
1061	 6.99773724756284E-02 
1062	 0.113222062312903 
1063	 0.13129587660251 
1064	 0.103773443189351 
1065	 4.00214329128502E-02 
1066	 0.105802621147975 
1067	 0.181161097572519 
1068	 0.128555099503571 
1069	 0.115071816643065 
1070	 0.135017598119035 
1071	 0.132237874605309 
1072	 0.138037369296349 
1073	 0.152084856226099 
1074	 0.162004902885159 
1075	 0.129817359513379 
