Wavelength	AVEI200224.asd
325	 0.057873482019205 
326	 5.87246140275432E-02 
327	 6.51021712407602E-02 
328	 6.38423157869749E-02 
329	 6.21557772818196E-02 
330	 6.24616568517665E-02 
331	 6.33421529049282E-02 
332	 6.32021340246433E-02 
333	 6.09097185641963E-02 
334	 6.26606379816033E-02 
335	 6.59587859455264E-02 
336	 6.22100318690431E-02 
337	 0.061273588504244 
338	 6.44275188842528E-02 
339	 6.31491757551716E-02 
340	 6.01236795881873E-02 
341	 5.81772826343177E-02 
342	 5.99378858463053E-02 
343	 0.062908886980372 
344	 6.15921800560835E-02 
345	 6.23241599482069E-02 
346	 0.065427743359848 
347	 6.55699483033611E-02 
348	 6.50427203305558E-02 
349	 6.54647048369534E-02 
350	 6.58760520543591E-02 
351	 0.066579437729569 
352	 6.83195750362231E-02 
353	 6.85698837010757E-02 
354	 6.73354226698573E-02 
355	 6.70066868705233E-02 
356	 6.69501997080665E-02 
357	 6.66981569905511E-02 
358	 6.58495601564345E-02 
359	 6.49534083927817E-02 
360	 6.48902711737493E-02 
361	 6.44493682285783E-02 
362	 6.40489780304412E-02 
363	 6.61198476716313E-02 
364	 0.067854196079213 
365	 6.78462216247989E-02 
366	 6.77545936860272E-02 
367	 6.73544284775095E-02 
368	 6.60881704890158E-02 
369	 6.67904697518084E-02 
370	 6.87362205816755E-02 
371	 0.067260838268568 
372	 6.61768422570904E-02 
373	 0.067256371742768 
374	 6.74611437159793E-02 
375	 6.73737640371394E-02 
376	 0.068204824458665 
377	 6.84996459948011E-02 
378	 6.82800683044259E-02 
379	 6.88641404813195E-02 
380	 6.89503327435758E-02 
381	 6.81620455480286E-02 
382	 0.06856487839246 
383	 0.069087346071288 
384	 6.81270263885576E-02 
385	 6.77797600485415E-02 
386	 6.80295935021423E-02 
387	 6.70542866645553E-02 
388	 6.68244035336142E-02 
389	 6.78886224375221E-02 
390	 6.78133621622807E-02 
391	 6.74888652408931E-02 
392	 6.81658519671129E-02 
393	 6.87156799414438E-02 
394	 6.90581231336681E-02 
395	 6.99424352280177E-02 
396	 6.93948304253999E-02 
397	 6.72071431612071E-02 
398	 0.066948067608767 
399	 6.74186913307364E-02 
400	 6.70838375697061E-02 
401	 6.72669808909036E-02 
402	 6.80310758376844E-02 
403	 6.91293386527288E-02 
404	 6.97850711295621E-02 
405	 6.98165749611289E-02 
406	 0.07035701642774 
407	 7.07476287522305E-02 
408	 7.00855658504472E-02 
409	 6.98782097854567E-02 
410	 0.070176686851757 
411	 7.00870710304847E-02 
412	 6.99140527956558E-02 
413	 0.069835974302027 
414	 7.00069859774881E-02 
415	 7.03713083015993E-02 
416	 7.08376661450171E-02 
417	 7.09776869271068E-02 
418	 7.07978984379153E-02 
419	 7.06050035440252E-02 
420	 0.070674043679744 
421	 7.11372407325316E-02 
422	 7.17755910067509E-02 
423	 0.072223863039873 
424	 7.20197453250858E-02 
425	 7.18259622269091E-02 
426	 7.19092593251563E-02 
427	 7.24815822541294E-02 
428	 7.31609561064766E-02 
429	 7.36457747022996E-02 
430	 7.38880183069601E-02 
431	 7.37921035799837E-02 
432	 7.32009659596708E-02 
433	 7.30175723691619E-02 
434	 7.34098343856589E-02 
435	 7.39710694095713E-02 
436	 7.43270016367249E-02 
437	 7.42907780564194E-02 
438	 7.44887537526213E-02 
439	 7.48569938540491E-02 
440	 7.51063374372427E-02 
441	 7.53727338545172E-02 
442	 7.56532814546417E-02 
443	 7.58094614363334E-02 
444	 7.58945477719137E-02 
445	 0.075982434304721 
446	 7.63290887571007E-02 
447	 7.68364338985452E-02 
448	 0.077217024529245 
449	 7.74394255543431E-02 
450	 7.75414534940615E-02 
451	 7.78459292368869E-02 
452	 7.81012052643277E-02 
453	 7.80569252615543E-02 
454	 7.80309231599458E-02 
455	 7.81495631384428E-02 
456	 7.85662076271186E-02 
457	 7.89565155130472E-02 
458	 7.92155166715848E-02 
459	 7.96943373582124E-02 
460	 8.00844655343766E-02 
461	 8.00059283033312E-02 
462	 7.99344276657048E-02 
463	 8.00049974155705E-02 
464	 8.02558181764748E-02 
465	 8.04787300629673E-02 
466	 8.05549455965097E-02 
467	 8.05044350367517E-02 
468	 8.05393695386783E-02 
469	 8.09547368381059E-02 
470	 8.13281028053381E-02 
471	 8.15374821881469E-02 
472	 8.16339759816185E-02 
473	 8.16284687375557E-02 
474	 8.15764930921052E-02 
475	 8.17934547058368E-02 
476	 8.21973000189893E-02 
477	 8.25901414381172E-02 
478	 8.27068244317261E-02 
479	 8.25748647004774E-02 
480	 8.26449746417362E-02 
481	 8.29923500287543E-02 
482	 0.083605603459079 
483	 8.37017660556568E-02 
484	 8.35214322529639E-02 
485	 8.40504614810447E-02 
486	 8.40694487821009E-02 
487	 8.33696592376258E-02 
488	 8.32868638593392E-02 
489	 0.083552197292031 
490	 8.37942227994107E-02 
491	 8.42625341527569E-02 
492	 8.47960676217092E-02 
493	 8.49477960529892E-02 
494	 8.47797779535554E-02 
495	 8.44429008483066E-02 
496	 8.46561550938383E-02 
497	 8.50875921741667E-02 
498	 8.52175920283866E-02 
499	 8.55664196753881E-02 
500	 8.60814427009317E-02 
501	 8.62050892642986E-02 
502	 8.61722189131339E-02 
503	 8.61873129762347E-02 
504	 8.66224095212874E-02 
505	 8.72149039984897E-02 
506	 8.74477100971632E-02 
507	 8.77899323226761E-02 
508	 8.82131644797199E-02 
509	 8.80890549279662E-02 
510	 8.78694905524928E-02 
511	 8.79438479175228E-02 
512	 8.83125341282788E-02 
513	 8.88010366215004E-02 
514	 8.90125978616442E-02 
515	 8.92069106684385E-02 
516	 8.94715414714935E-02 
517	 8.98056355147311E-02 
518	 9.00400971418148E-02 
519	 9.00083910655873E-02 
520	 9.00780636086997E-02 
521	 9.02549769479068E-02 
522	 9.02636919725354E-02 
523	 9.05809771133181E-02 
524	 9.13128176209145E-02 
525	 9.16446028844179E-02 
526	 9.16729036234436E-02 
527	 0.09165612515234 
528	 9.18518351693003E-02 
529	 9.22234001020674E-02 
530	 9.23402038893795E-02 
531	 9.24889632386965E-02 
532	 0.092845465680632 
533	 9.31710481569648E-02 
534	 9.34052070717853E-02 
535	 9.35143597696039E-02 
536	 9.34893382182537E-02 
537	 9.34505533410341E-02 
538	 9.39082978879845E-02 
539	 9.44601850828081E-02 
540	 9.46843488328106E-02 
541	 9.45289004235312E-02 
542	 0.094317698304452 
543	 9.49388130597167E-02 
544	 9.55183580567376E-02 
545	 9.56995880972626E-02 
546	 9.58186823601787E-02 
547	 9.58231018918064E-02 
548	 9.56070103153146E-02 
549	 9.58403350971187E-02 
550	 9.64315621993726E-02 
551	 9.64559836785687E-02 
552	 9.64454347262577E-02 
553	 9.67252021078179E-02 
554	 9.70494473636722E-02 
555	 9.73097961767658E-02 
556	 9.73616613173665E-02 
557	 9.74777573700844E-02 
558	 9.77203067504584E-02 
559	 9.79241566061028E-02 
560	 9.80713841335503E-02 
561	 9.81583716894535E-02 
562	 0.09828027582805 
563	 9.84301561256221E-02 
564	 9.85326554805441E-02 
565	 9.86572969315711E-02 
566	 9.88051971022336E-02 
567	 9.87995538784797E-02 
568	 9.87920679529662E-02 
569	 9.89926192987203E-02 
570	 9.93143801104089E-02 
571	 9.96341124251996E-02 
572	 9.96285594280153E-02 
573	 9.96491709038883E-02 
574	 9.98859231453399E-02 
575	 9.99656949300878E-02 
576	 9.99920404175708E-02 
577	 0.100255228720115 
578	 0.100352056505853 
579	 0.100260284768249 
580	 0.100483381809409 
581	 0.100690722839852 
582	 0.100593203403675 
583	 0.100533616802238 
584	 0.100541553842481 
585	 0.100491542151873 
586	 0.100594361542812 
587	 0.100912490201485 
588	 0.101258089005664 
589	 0.10151747431965 
590	 0.101564792510878 
591	 0.101309397407898 
592	 0.100943180735414 
593	 0.101080762856516 
594	 0.101293233004085 
595	 0.101321532383192 
596	 0.101205377648457 
597	 0.101206889433486 
598	 0.101797651441293 
599	 0.10214607136138 
600	 0.102041222017169 
601	 0.101832330093228 
602	 0.101658086622594 
603	 0.101633749389197 
604	 0.101675513759742 
605	 0.101821369610388 
606	 0.102297373439412 
607	 0.102374253496187 
608	 0.101873634599479 
609	 0.101747637676662 
610	 0.101807908769919 
611	 0.101704942584593 
612	 0.101670418343725 
613	 0.101766147307904 
614	 0.102093906485028 
615	 0.102104095793738 
616	 0.10156042466364 
617	 0.101519977530382 
618	 0.101759213652166 
619	 0.101619213308197 
620	 0.101561264311059 
621	 0.101688285550717 
622	 0.101843474129209 
623	 0.102051693469546 
624	 0.102324528457209 
625	 0.102500566573267 
626	 0.102541079120108 
627	 0.102410649770921 
628	 0.102421659554061 
629	 0.102618057443655 
630	 0.102348230234475 
631	 0.102115352996134 
632	 0.102592597592337 
633	 0.102823852159151 
634	 0.102711610162314 
635	 0.10272964638572 
636	 0.102855363675637 
637	 0.103029953638761 
638	 0.102778214600313 
639	 0.102539194724714 
640	 0.10322371709294 
641	 0.103604110713851 
642	 0.103415576836543 
643	 0.103319323535944 
644	 0.103399672066904 
645	 0.103689039482444 
646	 0.10380670027426 
647	 0.103745326589281 
648	 0.103655572455604 
649	 0.103814403133372 
650	 0.104225458606673 
651	 0.10418375698508 
652	 0.103968104528304 
653	 0.103976092489187 
654	 0.103581866765271 
655	 0.102942027635812 
656	 0.10321636095378 
657	 0.103358113979393 
658	 0.102771860510781 
659	 0.101982198762321 
660	 0.101331851056852 
661	 0.101241511442601 
662	 0.101337991824717 
663	 0.101401104549753 
664	 0.101061736681028 
665	 0.100650585653269 
666	 0.100447530766799 
667	 0.100214279311509 
668	 9.99443053975607E-02 
669	 9.96804287298722E-02 
670	 9.96143408765159E-02 
671	 9.97314650912795E-02 
672	 9.94896374786363E-02 
673	 9.92451685154877E-02 
674	 9.94379747553606E-02 
675	 0.099386992704587 
676	 9.91930760587762E-02 
677	 9.96505389381661E-02 
678	 0.100132484792354 
679	 0.10029837689184 
680	 0.100339448229997 
681	 0.100368888402473 
682	 0.100507606981013 
683	 0.101062700305394 
684	 0.101925223635767 
685	 0.102316684507591 
686	 0.102753263143846 
687	 0.103632225760445 
688	 0.103986606400303 
689	 0.103979426107927 
690	 0.104437077497721 
691	 0.104992799205802 
692	 0.10556003653524 
693	 0.106191284247181 
694	 0.106742718171026 
695	 0.107053280084972 
696	 0.107440270677537 
697	 0.107922142987051 
698	 0.108429639072455 
699	 0.108694464342623 
700	 0.108626112830087 
701	 0.108658283616977 
702	 0.108920282636401 
703	 0.10950323778554 
704	 0.109848442997478 
705	 0.109845882457059 
706	 0.109652590137755 
707	 0.109456558257684 
708	 0.109425107105852 
709	 0.109813625026863 
710	 0.110285859666018 
711	 0.110183030174103 
712	 0.109920454017875 
713	 0.109796821210718 
714	 0.110535549932284 
715	 0.111190854631449 
716	 0.11091932301842 
717	 0.111297447949278 
718	 0.112171005612812 
719	 0.111599438307384 
720	 0.111719810267454 
721	 0.112809845095963 
722	 0.112490151954811 
723	 0.111969974507003 
724	 0.112697718849436 
725	 0.113162033582438 
726	 0.113130958754426 
727	 0.113199985053793 
728	 0.113127022426706 
729	 0.112883879066963 
730	 0.113038660324269 
731	 0.113279197188098 
732	 0.113109212183468 
733	 0.11285912325154 
734	 0.112694849738509 
735	 0.112866076360018 
736	 0.113233149660753 
737	 0.113627342772286 
738	 0.113563988502441 
739	 0.113233545743008 
740	 0.113108923860869 
741	 0.11302276627618 
742	 0.11306754574174 
743	 0.113851360626145 
744	 0.114305877680663 
745	 0.113613573119347 
746	 0.113337823775287 
747	 0.113438743561234 
748	 0.113024225063371 
749	 0.113157463543678 
750	 0.113995269665126 
751	 0.114254698513855 
752	 0.114187413493952 
753	 0.114168074300274 
754	 0.114182026694992 
755	 0.114267332321619 
756	 0.114552876346131 
757	 0.114484413395041 
758	 0.113940772919226 
759	 0.114497803131442 
760	 0.116155227163882 
761	 0.116481482227056 
762	 0.116774147922903 
763	 0.117121515519956 
764	 0.116592855776177 
765	 0.116301558861538 
766	 0.116476637676335 
767	 0.116079732230985 
768	 0.115697668885918 
769	 0.11609940466926 
770	 0.116198785748806 
771	 0.115918860298073 
772	 0.115960483597583 
773	 0.116170159163636 
774	 0.116409532878405 
775	 0.116398068251855 
776	 0.116332659081988 
777	 0.116653375832785 
778	 0.116880335278595 
779	 0.116896864546036 
780	 0.116903813245241 
781	 0.116774221371694 
782	 0.116490203429543 
783	 0.117027991796015 
784	 0.117833903733733 
785	 0.117401408029446 
786	 0.116961951607364 
787	 0.116925525786179 
788	 0.117139136240638 
789	 0.117347672346398 
790	 0.117330122647451 
791	 0.117496415746573 
792	 0.117749207643005 
793	 0.11763296862033 
794	 0.117770214828993 
795	 0.11824321871948 
796	 0.118267661204347 
797	 0.118124033730678 
798	 0.118143470876418 
799	 0.118212608929804 
800	 0.118382116728375 
801	 0.118888200194129 
802	 0.119056424467194 
803	 0.118720804133904 
804	 0.118628845154344 
805	 0.118718472292619 
806	 0.11885325415576 
807	 0.118914486222673 
808	 0.119008164090458 
809	 0.119674464725261 
810	 0.119568846894936 
811	 0.118370074607478 
812	 0.118199184357781 
813	 0.118761788997883 
814	 0.119405395062392 
815	 0.120258897876754 
816	 0.121034345163471 
817	 0.120990075089489 
818	 0.120873914676642 
819	 0.120926422236989 
820	 0.120314651032053 
821	 0.119761176443766 
822	 0.120168584355288 
823	 0.120953004245185 
824	 0.121676487358639 
825	 0.121770291970641 
826	 0.121202010808448 
827	 0.120219697440184 
828	 0.120471255819088 
829	 0.121224815521053 
830	 0.121367688364413 
831	 0.12087224727799 
832	 0.120149086582895 
833	 0.120410212351737 
834	 0.120628716533983 
835	 0.120469085141135 
836	 0.120712063978933 
837	 0.121042317262412 
838	 0.121036862207266 
839	 0.120482408492449 
840	 0.119824698773242 
841	 0.120440178122175 
842	 0.121095305857901 
843	 0.12117619924519 
844	 0.120479719158811 
845	 0.119937983208796 
846	 0.120557687572629 
847	 0.120822019255234 
848	 0.120745168217179 
849	 0.121374008366598 
850	 0.121766459471882 
851	 0.121632344939667 
852	 0.121796083256729 
853	 0.121717494004876 
854	 0.120827216623342 
855	 0.120322830656746 
856	 0.120283594427813 
857	 0.1201852253949 
858	 0.120445307802551 
859	 0.120962200053064 
860	 0.120534804399972 
861	 0.120342501609793 
862	 0.121477155470526 
863	 0.122498152416247 
864	 0.122558167608305 
865	 0.120100639225409 
866	 0.119972147959026 
867	 0.12265811457589 
868	 0.12171781769607 
869	 0.12022930000707 
870	 0.120759714939903 
871	 0.120659941798306 
872	 0.120170840505343 
873	 0.120501330051979 
874	 0.120852928545297 
875	 0.121174164964466 
876	 0.122291266112585 
877	 0.123198050747159 
878	 0.123164697419015 
879	 0.122453087943642 
880	 0.121774336793424 
881	 0.12217673329367 
882	 0.122406481526499 
883	 0.122223017461703 
884	 0.121977756204483 
885	 0.122271755384955 
886	 0.123223515413094 
887	 0.123192040938528 
888	 0.122523308361786 
889	 0.121933161641922 
890	 0.120814337514773 
891	 0.119850872566832 
892	 0.121570094112585 
893	 0.123340949627284 
894	 0.123786162347134 
895	 0.123227258424917 
896	 0.122538064960864 
897	 0.122786395471688 
898	 0.123725630706171 
899	 0.12482397084349 
900	 0.125116899057888 
901	 0.123950749429073 
902	 0.121961565845194 
903	 0.122942333585722 
904	 0.123560026258778 
905	 0.1215114429068 
906	 0.121660859045824 
907	 0.122826761875194 
908	 0.121568808841332 
909	 0.121990238988248 
910	 0.124462849971704 
911	 0.125897640715109 
912	 0.125589986676636 
913	 0.123947322432852 
914	 0.126847321789054 
915	 0.129716944781242 
916	 0.126600468844686 
917	 0.12410570636945 
918	 0.123218035522875 
919	 0.122245954430383 
920	 0.12347840957631 
921	 0.126186646618958 
922	 0.123142253177374 
923	 0.11923805948343 
924	 0.119249101703853 
925	 0.120585996562451 
926	 0.122745017697217 
927	 0.125606310553233 
928	 0.125378518549566 
929	 0.122041663238287 
930	 0.124095024286917 
931	 0.127261579421005 
932	 0.127946360949079 
933	 0.129863296197428 
934	 0.130770163335821 
935	 0.12700561975342 
936	 0.122422609088369 
937	 0.12133630357265 
938	 0.133756958135949 
939	 0.131602145464478 
940	 0.113573980706093 
941	 0.114893110331725 
942	 0.119418161919466 
943	 0.115555091105045 
944	 0.117689853717295 
945	 0.122679825418122 
946	 0.122888559431903 
947	 0.121997765532491 
948	 0.122948991824091 
949	 0.133704600908134 
950	 0.133698263290538 
951	 0.118917139987778 
952	 0.117410966831821 
953	 0.121499130405537 
954	 0.122492019781571 
955	 0.125281893067095 
956	 0.127775136898147 
957	 0.125465215555341 
958	 0.122279036471538 
959	 0.120706940219422 
960	 0.124994710661293 
961	 0.127420721693847 
962	 0.124996826372794 
963	 0.12241639639976 
964	 0.124274186001881 
965	 0.1332191426188 
966	 0.131757445508012 
967	 0.125159549581878 
968	 0.129548551722694 
969	 0.131475677569047 
970	 0.12899331021048 
971	 0.128781402371553 
972	 0.128203094540553 
973	 0.12644727123747 
974	 0.128185670210615 
975	 0.129399705299374 
976	 0.125659363447841 
977	 0.124677137832893 
978	 0.126241544067191 
979	 0.126659660179322 
980	 0.126828817362132 
981	 0.127016202895113 
982	 0.127482665437028 
983	 0.128972190939263 
984	 0.130739021842295 
985	 0.125503630125607 
986	 0.121200478959849 
987	 0.126079917798258 
988	 0.128324935690395 
989	 0.127322560082054 
990	 0.126400853125616 
991	 0.123094833506996 
992	 0.119280484216257 
993	 0.123238300078942 
994	 0.128802853953332 
995	 0.131778792396571 
996	 0.128208573361767 
997	 0.123181039758156 
998	 0.122241111661408 
999	 0.126672083137642 
1000	 0.131977805874674 
1001	 0.129836751679396 
1002	 0.130473493511269 
1003	 0.134283290186939 
1004	 0.134126846609497 
1005	 0.130852232284752 
1006	 0.125988071794049 
1007	 0.125364149122077 
1008	 0.125257574538686 
1009	 0.122929091091049 
1010	 0.1224579353564 
1011	 0.124976750059814 
1012	 0.130856205552863 
1013	 0.131470371805501 
1014	 0.127533232796709 
1015	 0.124967068709748 
1016	 0.129750669829513 
1017	 0.138368120718318 
1018	 0.128408020990917 
1019	 0.121447777128417 
1020	 0.128228028951627 
1021	 0.129356599448747 
1022	 0.128293510639635 
1023	 0.129369306648183 
1024	 0.126329537851478 
1025	 0.119545039783926 
1026	 0.111758056436363 
1027	 0.11734248269185 
1028	 0.129616002544058 
1029	 0.119411564969139 
1030	 0.118313523840157 
1031	 0.133194819494245 
1032	 0.141556842066448 
1033	 0.138754037848341 
1034	 0.124057749309412 
1035	 0.112457417138981 
1036	 0.111500357855878 
1037	 0.124252624114459 
1038	 0.125632712329733 
1039	 0.119622910019806 
1040	 0.120930665123682 
1041	 0.125420331601058 
1042	 0.127820773601746 
1043	 0.113338229250184 
1044	 0.113236500551622 
1045	 0.129553786093456 
1046	 0.11438223602383 
1047	 0.113869466125133 
1048	 0.145477434368487 
1049	 0.142735644024979 
1050	 0.130738143237715 
1051	 0.136982563441129 
1052	 0.121543036600637 
1053	 0.108335943738446 
1054	 0.139879236116965 
1055	 0.124315722371275 
1056	 7.97690195278621E-02 
1057	 0.108929652525236 
1058	 0.131487502460793 
1059	 0.130170888429718 
1060	 0.128308283798906 
1061	 0.11316768489025 
1062	 8.74176611201593E-02 
1063	 9.57470973342496E-02 
1064	 0.107401330520978 
1065	 0.100229355849424 
1066	 0.105600535740142 
1067	 9.74443251841071E-02 
1068	 0.049030011857936 
1069	 0.066484274586666 
1070	 0.108484155527982 
1071	 8.85572743599309E-02 
1072	 9.69562872712752E-02 
1073	 0.130987888356475 
1074	 0.129145283707606 
1075	 0.117871979548981 
