Wavelength	AVEI200391.asd
325	 2.70966185657289E-02 
326	 3.41040933372712E-02 
327	 4.52317729518017E-02 
328	 4.16258986327477E-02 
329	 4.06818171820217E-02 
330	 4.66137112338429E-02 
331	 4.59365104031338E-02 
332	 4.28814919396147E-02 
333	 4.22213489950495E-02 
334	 4.03876559721108E-02 
335	 3.80771274428682E-02 
336	 3.80843256215075E-02 
337	 3.89753777124893E-02 
338	 4.00741055977758E-02 
339	 4.02660253998776E-02 
340	 4.18161572880522E-02 
341	 4.58973027134306E-02 
342	 4.40502887058203E-02 
343	 0.039295538381513 
344	 3.92167740929949E-02 
345	 4.10218013309141E-02 
346	 4.33709342632019E-02 
347	 4.48023162158647E-02 
348	 4.33121911439035E-02 
349	 3.86452571105201E-02 
350	 0.039570561214062 
351	 4.33924069246766E-02 
352	 4.44866411568572E-02 
353	 4.24986313853274E-02 
354	 3.90221910584254E-02 
355	 4.03224251845495E-02 
356	 4.18592971512653E-02 
357	 4.10907621696189E-02 
358	 4.13152690302636E-02 
359	 4.22045391593972E-02 
360	 0.042809647349108 
361	 4.06476766699343E-02 
362	 3.73344386400019E-02 
363	 4.01897680497776E-02 
364	 4.23939750297451E-02 
365	 4.08935397200851E-02 
366	 0.041253273742526 
367	 4.17872381924584E-02 
368	 3.95460917788421E-02 
369	 3.89992557865503E-02 
370	 4.05158741381221E-02 
371	 4.16733433432656E-02 
372	 4.24924429799888E-02 
373	 4.29173645686895E-02 
374	 4.34041170834617E-02 
375	 4.26304621333244E-02 
376	 3.88627131310263E-02 
377	 3.86390987736155E-02 
378	 4.16346597732035E-02 
379	 4.15827844222034E-02 
380	 4.01700788389254E-02 
381	 3.85799871574459E-02 
382	 3.89098371990634E-02 
383	 4.01334169059603E-02 
384	 4.06254015648716E-02 
385	 4.19600957959805E-02 
386	 4.35239657815372E-02 
387	 4.30303745999331E-02 
388	 0.040369047353819 
389	 3.65788236262535E-02 
390	 3.73717078397594E-02 
391	 3.95950414382431E-02 
392	 3.90913775383126E-02 
393	 3.85548299995987E-02 
394	 3.82937294296017E-02 
395	 3.75345070488753E-02 
396	 3.73776467600074E-02 
397	 3.79803230352044E-02 
398	 3.76347637676752E-02 
399	 3.70332898592175E-02 
400	 0.036973990965129 
401	 3.63772741410835E-02 
402	 3.56529346834616E-02 
403	 3.63382315435637E-02 
404	 3.66246668726821E-02 
405	 3.59841513345161E-02 
406	 3.62180020177498E-02 
407	 3.65498965103411E-02 
408	 0.035866416011936 
409	 3.58638343329562E-02 
410	 0.036374930607254 
411	 3.58249803895716E-02 
412	 3.52821028353522E-02 
413	 3.52003818029184E-02 
414	 3.49413972876922E-02 
415	 3.48119249629354E-02 
416	 3.52661913521893E-02 
417	 3.56626091653636E-02 
418	 3.57645086327151E-02 
419	 3.53679131039792E-02 
420	 3.49524158350345E-02 
421	 3.48721905031641E-02 
422	 3.55679599736313E-02 
423	 3.63165975062949E-02 
424	 3.60393894454136E-02 
425	 3.59265221226827E-02 
426	 3.61349487797916E-02 
427	 3.61015882376199E-02 
428	 3.58792481400375E-02 
429	 3.55482830734056E-02 
430	 3.54863823105698E-02 
431	 3.54039477835621E-02 
432	 3.47035696351859E-02 
433	 3.47866193304283E-02 
434	 3.55285935080484E-02 
435	 0.035083111186373 
436	 3.46920744033067E-02 
437	 3.51223079692412E-02 
438	 3.53565952053564E-02 
439	 3.53288772844441E-02 
440	 3.51776371930325E-02 
441	 3.51096639218222E-02 
442	 3.51639468848239E-02 
443	 3.51405879910352E-02 
444	 3.51478571705195E-02 
445	 3.52761278234139E-02 
446	 3.54898765346127E-02 
447	 3.56881681838844E-02 
448	 3.56590043245223E-02 
449	 3.56946649534133E-02 
450	 3.58594192839652E-02 
451	 3.59479647886832E-02 
452	 3.59590759115878E-02 
453	 3.59071272686865E-02 
454	 3.58431705887063E-02 
455	 3.58545411840031E-02 
456	 3.61485140852369E-02 
457	 3.63961711747837E-02 
458	 3.64242135734427E-02 
459	 3.61345482834116E-02 
460	 0.035918292235444 
461	 3.62271617287946E-02 
462	 3.64067315274206E-02 
463	 3.64164961087658E-02 
464	 3.66035314291771E-02 
465	 3.69748636001316E-02 
466	 3.73985961825161E-02 
467	 3.68983233918289E-02 
468	 3.62584350327252E-02 
469	 3.67621779584471E-02 
470	 3.70969637471828E-02 
471	 3.70313075526899E-02 
472	 3.70067513641176E-02 
473	 3.71598056871684E-02 
474	 3.75213181365071E-02 
475	 3.76134855947819E-02 
476	 3.73661879159472E-02 
477	 3.67303856116675E-02 
478	 3.67537539129885E-02 
479	 3.74605815131826E-02 
480	 3.75501883264385E-02 
481	 3.73629678524852E-02 
482	 3.72080280870867E-02 
483	 3.70136849892467E-02 
484	 3.69347813429715E-02 
485	 3.73417871803251E-02 
486	 3.77438346413679E-02 
487	 0.037911509265972 
488	 0.037751423768288 
489	 3.77411759746081E-02 
490	 3.83031935034001E-02 
491	 3.81269942912033E-02 
492	 3.74438623493405E-02 
493	 3.75001025911041E-02 
494	 3.79708124844598E-02 
495	 3.85640948298383E-02 
496	 3.83584447016394E-02 
497	 3.78413816993106E-02 
498	 3.77548956298562E-02 
499	 3.79458150953019E-02 
500	 3.84004135469264E-02 
501	 3.92271577268084E-02 
502	 3.96472409940635E-02 
503	 3.92959815934936E-02 
504	 3.92917829625827E-02 
505	 3.96691221645846E-02 
506	 4.02400955653876E-02 
507	 4.05340372720554E-02 
508	 4.05479671960618E-02 
509	 4.09426385921799E-02 
510	 4.13187941123562E-02 
511	 0.041387178856929 
512	 4.17690113161874E-02 
513	 4.23715997709919E-02 
514	 4.27695320932721E-02 
515	 4.29811677844662E-02 
516	 4.30918885543996E-02 
517	 4.35909252245107E-02 
518	 4.41910236864001E-02 
519	 4.45400774472714E-02 
520	 0.044709392413096 
521	 4.49413925875654E-02 
522	 4.58993967219907E-02 
523	 4.66020254270277E-02 
524	 4.66815929533592E-02 
525	 4.69419720628748E-02 
526	 4.74417886009396E-02 
527	 4.81354429430573E-02 
528	 4.86654550608727E-02 
529	 4.89368059492541E-02 
530	 4.89818223600437E-02 
531	 4.92588252796177E-02 
532	 5.00131435137717E-02 
533	 5.04664968874105E-02 
534	 5.07118423097845E-02 
535	 5.11846614146859E-02 
536	 5.15076651512123E-02 
537	 5.16817545403703E-02 
538	 5.23016418209556E-02 
539	 5.27423373077096E-02 
540	 5.24352773292723E-02 
541	 5.26796709469038E-02 
542	 5.33336678020928E-02 
543	 5.32592150584654E-02 
544	 5.34592367935594E-02 
545	 5.41816859864463E-02 
546	 0.054231681312962 
547	 5.41227232895618E-02 
548	 5.46535175962409E-02 
549	 5.50973259581286E-02 
550	 5.53732934014319E-02 
551	 5.58836571938649E-02 
552	 0.056207790470287 
553	 5.61472148676544E-02 
554	 5.64146616574053E-02 
555	 5.68513274366605E-02 
556	 0.056979429378317 
557	 5.70350674097393E-02 
558	 5.70630577796045E-02 
559	 5.69454209555818E-02 
560	 5.68461393745495E-02 
561	 5.69098685092953E-02 
562	 5.69440718821515E-02 
563	 5.69400493616125E-02 
564	 0.056968510927537 
565	 5.70249362842268E-02 
566	 0.057111328879585 
567	 5.72634289596729E-02 
568	 5.73250291144363E-02 
569	 5.71014254396146E-02 
570	 5.69207393173204E-02 
571	 5.68057588321388E-02 
572	 5.64670557729861E-02 
573	 5.63574800871047E-02 
574	 5.66694350672795E-02 
575	 5.65915360692608E-02 
576	 5.61819592631899E-02 
577	 5.57078489947182E-02 
578	 5.59071488721366E-02 
579	 5.66754331813073E-02 
580	 5.64311042256157E-02 
581	 5.59020575638482E-02 
582	 5.57837659128073E-02 
583	 5.58357807966951E-02 
584	 5.58821871171944E-02 
585	 5.55009548592202E-02 
586	 5.54272763689784E-02 
587	 5.58437748585831E-02 
588	 5.58605083106506E-02 
589	 5.56568548543345E-02 
590	 5.55808226203015E-02 
591	 5.53334786038375E-02 
592	 5.50765528382499E-02 
593	 5.55583116161062E-02 
594	 5.57715120894885E-02 
595	 5.52506358085743E-02 
596	 5.53970915485246E-02 
597	 5.58586344644117E-02 
598	 5.56797106216973E-02 
599	 5.56645956400113E-02 
600	 0.055888291226526 
601	 5.56229208948827E-02 
602	 5.52360242494591E-02 
603	 5.50697920672051E-02 
604	 5.48683806070467E-02 
605	 5.46874758738986E-02 
606	 0.054756010626882 
607	 5.49509451856266E-02 
608	 5.51429648919144E-02 
609	 5.49560874120539E-02 
610	 5.45647844584723E-02 
611	 5.42370196092891E-02 
612	 0.053999996928047 
613	 5.38146640577103E-02 
614	 5.34239262561466E-02 
615	 5.33445863735189E-02 
616	 5.37677228640304E-02 
617	 5.34923939343778E-02 
618	 5.29400335872938E-02 
619	 5.31301516905427E-02 
620	 5.32644340612024E-02 
621	 5.30858920998348E-02 
622	 5.24922497697867E-02 
623	 5.21672109723253E-02 
624	 5.26797362342757E-02 
625	 5.30524129765131E-02 
626	 5.31385039969857E-02 
627	 5.31052186093236E-02 
628	 5.29838469977185E-02 
629	 5.28520838957885E-02 
630	 5.29333534995232E-02 
631	 5.31959629692481E-02 
632	 5.35649004204218E-02 
633	 5.32949815729114E-02 
634	 5.26081973260372E-02 
635	 5.28457914287769E-02 
636	 5.31209588132132E-02 
637	 5.29108123407336E-02 
638	 5.24865621437167E-02 
639	 5.21724141202027E-02 
640	 0.05251379525517 
641	 5.24122739282706E-02 
642	 0.051769050883793 
643	 5.17468193604888E-02 
644	 5.19421563637811E-02 
645	 5.19454783178652E-02 
646	 5.16317061957723E-02 
647	 0.051105032367025 
648	 5.07162585764703E-02 
649	 5.03506511266323E-02 
650	 5.00433852885282E-02 
651	 5.01275616777327E-02 
652	 5.02793264636841E-02 
653	 5.00908625518178E-02 
654	 4.99214719050885E-02 
655	 4.97227188970499E-02 
656	 0.049061619173328 
657	 4.84426113800761E-02 
658	 0.048160975328866 
659	 4.78520713362655E-02 
660	 4.73851514417644E-02 
661	 4.65917935743943E-02 
662	 4.63150103859014E-02 
663	 4.64994212914633E-02 
664	 4.58424190387697E-02 
665	 4.48494499438611E-02 
666	 4.40384442133901E-02 
667	 4.39579560240621E-02 
668	 4.42356091398909E-02 
669	 4.37205543494762E-02 
670	 4.31755970292653E-02 
671	 0.04287428920804 
672	 4.27231180322577E-02 
673	 4.27197525402609E-02 
674	 4.28563011909522E-02 
675	 4.29686864593907E-02 
676	 4.30407998309523E-02 
677	 4.31584218622751E-02 
678	 4.33748898317676E-02 
679	 4.36633934585951E-02 
680	 4.35291379504175E-02 
681	 4.34863210543636E-02 
682	 4.44227166971908E-02 
683	 4.53868473472914E-02 
684	 0.046201038474208 
685	 4.73284930011677E-02 
686	 4.88700892737528E-02 
687	 5.08030461774895E-02 
688	 5.19402367563848E-02 
689	 5.25405624245762E-02 
690	 5.38940964183778E-02 
691	 5.55771533164891E-02 
692	 5.75089544695938E-02 
693	 5.95656926865369E-02 
694	 6.19188223661457E-02 
695	 6.46385047407708E-02 
696	 6.72377231849024E-02 
697	 6.95347188353228E-02 
698	 7.13573933251709E-02 
699	 7.36362452515988E-02 
700	 7.65868718123859E-02 
701	 7.85199335008499E-02 
702	 8.00058588216372E-02 
703	 8.20982028785892E-02 
704	 8.41026246296511E-02 
705	 8.59753895598087E-02 
706	 8.80663091361392E-02 
707	 0.090017780039375 
708	 9.16245284460055E-02 
709	 9.32979763780522E-02 
710	 9.50307987423691E-02 
711	 9.67291455955648E-02 
712	 0.098096757664358 
713	 9.91956759795358E-02 
714	 0.100816858395869 
715	 0.102361092306289 
716	 0.103327417304533 
717	 0.104299459144569 
718	 0.105476266001332 
719	 0.106877432143824 
720	 0.107980434512512 
721	 0.108710535872537 
722	 0.110019499609826 
723	 0.111220508185863 
724	 0.111402231790346 
725	 0.112122021425021 
726	 0.113415987374793 
727	 0.114405816875848 
728	 0.115031753692802 
729	 0.115337570355587 
730	 0.116009276703991 
731	 0.116876870245738 
732	 0.117583930678412 
733	 0.118394131603692 
734	 0.119177206825457 
735	 0.119250572842638 
736	 0.119326728086868 
737	 0.119865672305784 
738	 0.120417500523377 
739	 0.12102619414372 
740	 0.121925910518689 
741	 0.122438372349346 
742	 0.122448079037286 
743	 0.122367729030563 
744	 0.122753308586669 
745	 0.123945958324518 
746	 0.12432203702048 
747	 0.124030033976473 
748	 0.124057493973091 
749	 0.124636491494674 
750	 0.12567960651765 
751	 0.126019404934522 
752	 0.126038221741523 
753	 0.12623325618991 
754	 0.126338147418166 
755	 0.126389649376175 
756	 0.126647502796308 
757	 0.126620816378495 
758	 0.126211865373106 
759	 0.126678970081868 
760	 0.128511950730662 
761	 0.130583448035396 
762	 0.130820851759928 
763	 0.129940131211063 
764	 0.130584290031735 
765	 0.131020572013258 
766	 0.130777561196369 
767	 0.130649278474981 
768	 0.130829575138516 
769	 0.131530289968271 
770	 0.131793808964004 
771	 0.131628600112207 
772	 0.13203318818851 
773	 0.132400872621875 
774	 0.132372492639471 
775	 0.132528998915694 
776	 0.132904258882927 
777	 0.13341260483575 
778	 0.133891134039348 
779	 0.134277995154555 
780	 0.134604942695131 
781	 0.13496317750879 
782	 0.135401740070847 
783	 0.13560711903325 
784	 0.135722407326312 
785	 0.136196371234501 
786	 0.136294015484678 
787	 0.13602387482909 
788	 0.136648869132298 
789	 0.137404321606427 
790	 0.137536659369552 
791	 0.137684983051897 
792	 0.137840120705908 
793	 0.137654695464953 
794	 0.137697717509223 
795	 0.138159732557745 
796	 0.138853460702046 
797	 0.139357200642136 
798	 0.139298655478392 
799	 0.139205978497034 
800	 0.13927503986974 
801	 0.139789499200518 
802	 0.139793597594419 
803	 0.139231159169209 
804	 0.14007489113069 
805	 0.141172539437046 
806	 0.141167907692481 
807	 0.141021340435506 
808	 0.141153529473097 
809	 0.14231549903497 
810	 0.142785899635837 
811	 0.142099102375327 
812	 0.142727141653297 
813	 0.143542464568343 
814	 0.14285600569025 
815	 0.143656675795299 
816	 0.145664054653429 
817	 0.145496604774675 
818	 0.145468621140949 
819	 0.146284429189118 
820	 0.145808426117885 
821	 0.145410740188629 
822	 0.146814879972437 
823	 0.147734985596182 
824	 0.147656404148373 
825	 0.146621315726769 
826	 0.146720644983614 
827	 0.148558258015471 
828	 0.149537356326083 
829	 0.14981386817271 
830	 0.149890070993452 
831	 0.149413991282201 
832	 0.148750784783576 
833	 0.14899194201022 
834	 0.149340786461223 
835	 0.14951365950243 
836	 0.149995660037397 
837	 0.150531701070166 
838	 0.150812167388523 
839	 0.151299170215298 
840	 0.151842849755136 
841	 0.151844493913915 
842	 0.151245855937963 
843	 0.150397799997098 
844	 0.151465374772651 
845	 0.152566512623 
846	 0.151512707832507 
847	 0.151339364500889 
848	 0.152109796671219 
849	 0.152089515816873 
850	 0.152218233402917 
851	 0.152727496239375 
852	 0.152759261806935 
853	 0.152894806014865 
854	 0.153741995057462 
855	 0.153830339523478 
856	 0.15333092068525 
857	 0.15340760855408 
858	 0.153456798152582 
859	 0.153460411681938 
860	 0.15430618158727 
861	 0.154938473598458 
862	 0.154421355875182 
863	 0.154610446496522 
864	 0.155475800312577 
865	 0.156107554921965 
866	 0.156616152487498 
867	 0.156953430186133 
868	 0.156885364897577 
869	 0.157109296692282 
870	 0.158029762926916 
871	 0.157643789937071 
872	 0.156868756207941 
873	 0.158114634896525 
874	 0.158545824389632 
875	 0.157784101791693 
876	 0.157916026840028 
877	 0.158632299383955 
878	 0.159583501215739 
879	 0.159975025804749 
880	 0.160109718163885 
881	 0.160667839260602 
882	 0.161631384978213 
883	 0.162768832786536 
884	 0.163282112447082 
885	 0.163879010616795 
886	 0.164779606376896 
887	 0.164515922058927 
888	 0.164181846154067 
889	 0.165372971116241 
890	 0.165779281876784 
891	 0.16527314973875 
892	 0.165352074024292 
893	 0.164672745742082 
894	 0.163294808053985 
895	 0.165477199646305 
896	 0.168357744541716 
897	 0.168235007576786 
898	 0.168199741548384 
899	 0.16895077069464 
900	 0.17060688390576 
901	 0.172024528758872 
902	 0.172150038327096 
903	 0.168164199258763 
904	 0.166179073569705 
905	 0.170172655176244 
906	 0.169546744049433 
907	 0.167232623444566 
908	 0.171303116605325 
909	 0.172234355676608 
910	 0.169131561248272 
911	 0.169645290485942 
912	 0.170862434699914 
913	 0.171154099772769 
914	 0.171377070428085 
915	 0.172214613273003 
916	 0.174305565545942 
917	 0.175071685526177 
918	 0.174155572790343 
919	 0.171753086772752 
920	 0.171958339635442 
921	 0.17519804116317 
922	 0.175457690830369 
923	 0.173924478280265 
924	 0.172075866747132 
925	 0.171411190558218 
926	 0.171437240970552 
927	 0.170317332078944 
928	 0.17003016888318 
929	 0.171037104514785 
930	 0.171526145866143 
931	 0.174070781478023 
932	 0.17910259199666 
933	 0.172308362924359 
934	 0.164308534965157 
935	 0.173345015907583 
936	 0.17491700615746 
937	 0.16823871153387 
938	 0.166905257515156 
939	 0.166679191293611 
940	 0.167375735595744 
941	 0.172983140710663 
942	 0.17834787604301 
943	 0.179446372813031 
944	 0.175592937001758 
945	 0.168415616117971 
946	 0.160613479840948 
947	 0.16118097584305 
948	 0.16935204394327 
949	 0.175914173777354 
950	 0.174251742706877 
951	 0.164838781590187 
952	 0.167804266614683 
953	 0.171993191663176 
954	 0.166761820382561 
955	 0.16293974967001 
956	 0.162078458514782 
957	 0.163733490159355 
958	 0.167689304097162 
959	 0.171404558522818 
960	 0.167391361188367 
961	 0.163698736787175 
962	 0.164322135364452 
963	 0.167082574485081 
964	 0.169773493723606 
965	 0.170560285384915 
966	 0.171374957505566 
967	 0.170878059570853 
968	 0.165633495980883 
969	 0.1629777557726 
970	 0.164149225019779 
971	 0.164720401029299 
972	 0.167307621197424 
973	 0.171758452247737 
974	 0.168378567929953 
975	 0.16298680955582 
976	 0.163001039572378 
977	 0.163668517234265 
978	 0.164290002858469 
979	 0.165363344060421 
980	 0.164487980086443 
981	 0.162891428257067 
982	 0.16815882596011 
983	 0.170906645902997 
984	 0.167780606312801 
985	 0.172343233798363 
986	 0.176758723307846 
987	 0.172217769039472 
988	 0.16903939741302 
989	 0.168268751030493 
990	 0.167920189293878 
991	 0.168199261897068 
992	 0.169048597708383 
993	 0.170468222235394 
994	 0.171755771780643 
995	 0.172894209913265 
996	 0.176805833900161 
997	 0.177958846666217 
998	 0.172086725574738 
999	 0.174049413392341 
1000	 0.179586346216565 
1001	 0.176964339099234 
1002	 0.173145395115203 
1003	 0.170859329241752 
1004	 0.173656539089237 
1005	 0.173437836624095 
1006	 0.169431338707134 
1007	 0.176094662997271 
1008	 0.181910399298023 
1009	 0.178397957459393 
1010	 0.175923661668293 
1011	 0.176997329362083 
1012	 0.182622390776001 
1013	 0.184155273384993 
1014	 0.181496334490183 
1015	 0.179519307438205 
1016	 0.176632227257856 
1017	 0.174800932336474 
1018	 0.18362919215001 
1019	 0.185504903255134 
1020	 0.173557087923415 
1021	 0.170904669682714 
1022	 0.172884217650585 
1023	 0.173238886927605 
1024	 0.176184722262277 
1025	 0.181440407191127 
1026	 0.187815753956799 
1027	 0.185326804976843 
1028	 0.176736903044805 
1029	 0.177813660590781 
1030	 0.181360056386884 
1031	 0.183563610550651 
1032	 0.178934307872772 
1033	 0.178065049710945 
1034	 0.185613036441766 
1035	 0.184870988447013 
1036	 0.175868877102115 
1037	 0.162517752994896 
1038	 0.164249992354565 
1039	 0.174515663933903 
1040	 0.175769318700851 
1041	 0.180270456397739 
1042	 0.186930847757777 
1043	 0.182243117037953 
1044	 0.182948387169463 
1045	 0.19334162225793 
1046	 0.206648370712747 
1047	 0.20612529265105 
1048	 0.187199392134209 
1049	 0.18268812239907 
1050	 0.18711409761882 
1051	 0.191416431068806 
1052	 0.189498294666565 
1053	 0.188595195442079 
1054	 0.200253954760031 
1055	 0.1906808503016 
1056	 0.164217166264958 
1057	 0.152026579304283 
1058	 0.154735139611422 
1059	 0.168903891268925 
1060	 0.178285700447954 
1061	 0.176750324944802 
1062	 0.164014471502378 
1063	 0.149703910627606 
1064	 0.161517509006133 
1065	 0.206505586358643 
1066	 0.203101499013299 
1067	 0.176124306034624 
1068	 0.164621725234094 
1069	 0.164012868776692 
1070	 0.169451935158886 
1071	 0.173193483309354 
1072	 0.194515768566554 
1073	 0.210076014909092 
1074	 0.145262350069301 
1075	 0.130844013317854 
