Wavelength	AVEI200292.asd
325	 3.99870504135484E-02 
326	 4.34832220422277E-02 
327	 3.95582337600905E-02 
328	 0.033470190618911 
329	 3.50869337716017E-02 
330	 4.44574537643841E-02 
331	 4.42912942973512E-02 
332	 3.96197530066257E-02 
333	 3.63756769690831E-02 
334	 3.23097218780088E-02 
335	 2.96557621779199E-02 
336	 3.50970067063398E-02 
337	 3.42117518046395E-02 
338	 2.70309795719994E-02 
339	 0.036414649624977 
340	 4.29728994065263E-02 
341	 3.23498680587256E-02 
342	 2.97774346587572E-02 
343	 3.34985227231195E-02 
344	 3.28921178378929E-02 
345	 3.08338455440146E-02 
346	 2.89803197106327E-02 
347	 3.11192621499384E-02 
348	 0.032778623923182 
349	 0.03124198297636 
350	 3.03231437747572E-02 
351	 3.02131212618642E-02 
352	 3.03682824290938E-02 
353	 3.05227932087671E-02 
354	 0.030642524012004 
355	 3.12014266557483E-02 
356	 3.07638673068344E-02 
357	 2.88750461421841E-02 
358	 2.88077365269557E-02 
359	 2.98417515913723E-02 
360	 3.03137253219029E-02 
361	 0.030998024145008 
362	 3.18375061538926E-02 
363	 0.032243252700426 
364	 3.24773177247694E-02 
365	 3.25082068872689E-02 
366	 3.12481466205904E-02 
367	 2.92432944705355E-02 
368	 2.72584031851874E-02 
369	 2.78071323907585E-02 
370	 3.00781496782761E-02 
371	 2.95000356888546E-02 
372	 2.86568560961885E-02 
373	 2.89066931358356E-02 
374	 2.97635822937018E-02 
375	 3.00890759748279E-02 
376	 2.84675435439778E-02 
377	 2.81668783817554E-02 
378	 2.90512724346986E-02 
379	 2.79438767950354E-02 
380	 2.68803822599065E-02 
381	 2.69173710364343E-02 
382	 0.027891502517157 
383	 2.82836737691123E-02 
384	 2.62655587895027E-02 
385	 2.75095094159206E-02 
386	 0.030952341046086 
387	 2.91589353322635E-02 
388	 2.69583997877117E-02 
389	 2.65461135170422E-02 
390	 2.64792897025694E-02 
391	 2.67430249242617E-02 
392	 2.74134322000928E-02 
393	 2.62059078684088E-02 
394	 2.42702577161476E-02 
395	 0.02630457530375 
396	 2.73062082710475E-02 
397	 0.025699937287939 
398	 2.52706962559612E-02 
399	 2.59577579508715E-02 
400	 2.72595272258416E-02 
401	 2.72790595579318E-02 
402	 2.62312752491277E-02 
403	 2.53413098013317E-02 
404	 2.52931622633578E-02 
405	 2.60921802489558E-02 
406	 2.57538992082769E-02 
407	 2.53348877380166E-02 
408	 2.63023348127476E-02 
409	 2.65789299082268E-02 
410	 0.025934590020055 
411	 2.49285848437562E-02 
412	 2.48182924363761E-02 
413	 2.58296985591111E-02 
414	 2.51392164071877E-02 
415	 2.43073189936696E-02 
416	 2.56500498014673E-02 
417	 2.56079814295656E-02 
418	 0.024179791249082 
419	 2.39045537743885E-02 
420	 2.41526359184984E-02 
421	 2.45365164495049E-02 
422	 0.02477899155689 
423	 2.47685166906427E-02 
424	 0.024411889212154 
425	 2.44482883395202E-02 
426	 2.48287089644429E-02 
427	 2.45992981790592E-02 
428	 2.44579073119139E-02 
429	 2.47895878115278E-02 
430	 2.48730606762757E-02 
431	 2.46892193499744E-02 
432	 2.43373485268642E-02 
433	 2.46333640813381E-02 
434	 2.53676565058868E-02 
435	 2.50050700340289E-02 
436	 2.43761524808969E-02 
437	 0.024090094896182 
438	 2.42995719338136E-02 
439	 2.46126712290678E-02 
440	 2.42510477736331E-02 
441	 2.40953471805231E-02 
442	 2.43232672774566E-02 
443	 2.45163705519817E-02 
444	 2.45604160584455E-02 
445	 2.44045181286372E-02 
446	 2.44100213291676E-02 
447	 2.45748451521377E-02 
448	 0.024813408573995 
449	 2.46137463715316E-02 
450	 2.40297446166596E-02 
451	 0.024278165139053 
452	 2.46949538609701E-02 
453	 2.45737880921475E-02 
454	 2.43700276161574E-02 
455	 2.42069367130122E-02 
456	 2.41714583749943E-02 
457	 2.41863225544604E-02 
458	 2.42147637439606E-02 
459	 2.42524202996369E-02 
460	 2.42698671528115E-02 
461	 2.42400094278831E-02 
462	 0.0244130058789 
463	 2.46846622465294E-02 
464	 2.45498995621958E-02 
465	 2.44517136057581E-02 
466	 2.46183694683743E-02 
467	 2.49479306339195E-02 
468	 2.51262919534461E-02 
469	 2.47231275278155E-02 
470	 2.47024549373067E-02 
471	 2.50835666251267E-02 
472	 2.49778937542051E-02 
473	 2.47599996637805E-02 
474	 2.46697454056655E-02 
475	 2.45270168001545E-02 
476	 0.024558619493107 
477	 2.52243557406879E-02 
478	 2.53885444009093E-02 
479	 2.49397608104602E-02 
480	 2.49698924691756E-02 
481	 2.50406226452543E-02 
482	 2.48145515515655E-02 
483	 2.48934636836498E-02 
484	 2.51547276883242E-02 
485	 2.50485473515897E-02 
486	 2.51261692820703E-02 
487	 2.54486262061306E-02 
488	 2.52478273023481E-02 
489	 2.50254532562305E-02 
490	 2.53095940154203E-02 
491	 2.54295266182631E-02 
492	 2.52892219705917E-02 
493	 2.49509173722745E-02 
494	 2.48254551329418E-02 
495	 2.50543944773764E-02 
496	 2.52120615849126E-02 
497	 2.52685544560463E-02 
498	 2.52432222101986E-02 
499	 2.55509555056121E-02 
500	 2.60268837055179E-02 
501	 2.57338700347709E-02 
502	 2.55191370474306E-02 
503	 2.58563191829044E-02 
504	 2.61234648647155E-02 
505	 2.62492369307982E-02 
506	 2.62614606460953E-02 
507	 0.026191209000426 
508	 2.61364849815992E-02 
509	 2.63731008812207E-02 
510	 2.67475432417245E-02 
511	 2.71054190880303E-02 
512	 2.72151350204331E-02 
513	 2.72277284333253E-02 
514	 2.76035612194463E-02 
515	 2.78966696400737E-02 
516	 2.80268332946558E-02 
517	 2.85089534784309E-02 
518	 2.88812607149026E-02 
519	 2.86461720586523E-02 
520	 2.86780543382022E-02 
521	 2.90762296681041E-02 
522	 2.96369939501683E-02 
523	 2.99575576834623E-02 
524	 2.99202645711312E-02 
525	 3.01797900233443E-02 
526	 3.05428122775658E-02 
527	 3.06367332174219E-02 
528	 0.030700976019711 
529	 3.08333715023655E-02 
530	 3.11629541736375E-02 
531	 3.14526872711705E-02 
532	 3.15491681550771E-02 
533	 3.15946312067022E-02 
534	 3.16249210075416E-02 
535	 3.16402463751952E-02 
536	 3.18631640771754E-02 
537	 3.22539657055799E-02 
538	 3.22795407301791E-02 
539	 3.22192894638258E-02 
540	 3.23657398034945E-02 
541	 3.26090798309797E-02 
542	 3.28457685973623E-02 
543	 3.28632304356477E-02 
544	 3.28602431543466E-02 
545	 3.29329204701896E-02 
546	 3.31100650833866E-02 
547	 3.32473358112589E-02 
548	 3.31567720251361E-02 
549	 3.31593380904803E-02 
550	 3.33311667404091E-02 
551	 3.36563183752241E-02 
552	 3.38442543006592E-02 
553	 3.37414456015373E-02 
554	 3.37512183328125E-02 
555	 3.38662619189484E-02 
556	 3.39538269474191E-02 
557	 0.034140339563755 
558	 3.43632106144703E-02 
559	 0.034172865453752 
560	 3.40055368941155E-02 
561	 3.42474838045712E-02 
562	 3.42977121508085E-02 
563	 3.41360351760586E-02 
564	 3.39830600269328E-02 
565	 3.39529922408095E-02 
566	 3.40879975260886E-02 
567	 3.42606415981918E-02 
568	 3.43024598303952E-02 
569	 3.40249596892271E-02 
570	 3.38371683132779E-02 
571	 3.38025854319872E-02 
572	 3.37143166072531E-02 
573	 3.37007460508304E-02 
574	 3.38202319679276E-02 
575	 3.39147579228863E-02 
576	 3.39144689529383E-02 
577	 3.37221411912922E-02 
578	 3.37585081239727E-02 
579	 3.39941198139722E-02 
580	 3.36300651166591E-02 
581	 3.33403413141554E-02 
582	 3.36882852221036E-02 
583	 3.36838574012731E-02 
584	 3.33989991673493E-02 
585	 3.35284177262239E-02 
586	 3.34755790795216E-02 
587	 3.31155785189817E-02 
588	 3.31455048936754E-02 
589	 3.35057374830951E-02 
590	 3.40129732770409E-02 
591	 3.41192209375291E-02 
592	 3.38095333749385E-02 
593	 3.34993730321842E-02 
594	 3.34182272303834E-02 
595	 3.36815565704463E-02 
596	 3.39658472342655E-02 
597	 0.034073311516109 
598	 3.37423011004052E-02 
599	 3.35307793262694E-02 
600	 3.36117307486661E-02 
601	 3.38769565552123E-02 
602	 3.40360791557859E-02 
603	 3.38611149461762E-02 
604	 3.37857116484382E-02 
605	 3.38501759267022E-02 
606	 3.39735299157977E-02 
607	 0.0339247871114 
608	 3.36631764812726E-02 
609	 3.36324437593771E-02 
610	 0.033642881188203 
611	 3.34091203274942E-02 
612	 3.32403175978079E-02 
613	 3.31921948707124E-02 
614	 3.31731961682047E-02 
615	 3.32111447828811E-02 
616	 0.033291726914566 
617	 3.31880414624305E-02 
618	 3.30298765073913E-02 
619	 3.31019959373932E-02 
620	 3.30728833247898E-02 
621	 3.29043271637987E-02 
622	 3.28584757037135E-02 
623	 3.29264366534132E-02 
624	 3.30833836869596E-02 
625	 3.32492056665388E-02 
626	 0.033296040544563 
627	 3.28994931589894E-02 
628	 3.27717251789227E-02 
629	 3.31262136998839E-02 
630	 3.32621672989578E-02 
631	 3.33588677516687E-02 
632	 3.37082352027678E-02 
633	 3.34934372047622E-02 
634	 3.28998126998195E-02 
635	 3.31445184004532E-02 
636	 3.35564059229517E-02 
637	 3.36746631108243E-02 
638	 3.32123530610323E-02 
639	 0.032623396168829 
640	 3.27678082614965E-02 
641	 3.31117702589022E-02 
642	 0.033333816505071 
643	 3.28456562420273E-02 
644	 3.22950726970118E-02 
645	 3.22500300014891E-02 
646	 0.03215896290043 
647	 3.20027016151317E-02 
648	 3.20029937878578E-02 
649	 3.19666829345022E-02 
650	 3.18807896238341E-02 
651	 3.21319735250106E-02 
652	 3.24270448800957E-02 
653	 3.23886818902568E-02 
654	 3.20561724475431E-02 
655	 3.15608087577935E-02 
656	 3.13916988237678E-02 
657	 3.12067460381296E-02 
658	 0.030864094859694 
659	 3.08974271992458E-02 
660	 3.09072745814557E-02 
661	 3.01296966437767E-02 
662	 2.99527097826323E-02 
663	 3.04451331442372E-02 
664	 3.01125127387208E-02 
665	 2.95471353390225E-02 
666	 2.93075540900249E-02 
667	 2.95583946064296E-02 
668	 2.99278937731928E-02 
669	 2.94265474206499E-02 
670	 2.89726016313215E-02 
671	 2.88293189032078E-02 
672	 2.83657468573204E-02 
673	 2.81008742397142E-02 
674	 2.86466474800529E-02 
675	 2.90958634247112E-02 
676	 2.92621464550918E-02 
677	 2.92800068122997E-02 
678	 2.93718328766517E-02 
679	 2.96476372335116E-02 
680	 2.98436914327089E-02 
681	 3.00884658314318E-02 
682	 0.030632633705067 
683	 3.12167925912281E-02 
684	 3.17389165452481E-02 
685	 3.21279641585142E-02 
686	 3.26702156370022E-02 
687	 3.35924338072954E-02 
688	 3.43952072408482E-02 
689	 3.50573172102092E-02 
690	 3.58787559521816E-02 
691	 3.69864727676591E-02 
692	 3.83255258699845E-02 
693	 3.92434019079218E-02 
694	 4.01777242008359E-02 
695	 4.15626313948998E-02 
696	 4.30154405451495E-02 
697	 4.44292641017486E-02 
698	 4.57933622639947E-02 
699	 4.72030112999446E-02 
700	 4.86844730227481E-02 
701	 5.02410095001937E-02 
702	 5.16756868824644E-02 
703	 5.27385974472438E-02 
704	 5.38518372274572E-02 
705	 5.51025358618749E-02 
706	 5.62996169087768E-02 
707	 5.75705930274464E-02 
708	 5.89460658438581E-02 
709	 5.99602304548264E-02 
710	 6.08873560337194E-02 
711	 0.062350447414978 
712	 6.38827422670168E-02 
713	 6.52179310670253E-02 
714	 6.59477000898922E-02 
715	 6.64620072888456E-02 
716	 6.72080583492532E-02 
717	 6.86449763458945E-02 
718	 0.070402593205199 
719	 7.06452055062627E-02 
720	 7.09600153678785E-02 
721	 7.18840826742161E-02 
722	 7.29812023408715E-02 
723	 7.40207831046869E-02 
724	 7.46975751552741E-02 
725	 7.55097102116293E-02 
726	 7.63092660367824E-02 
727	 7.64370771905907E-02 
728	 7.66938942530739E-02 
729	 7.74404637765401E-02 
730	 7.81263245223457E-02 
731	 7.85869840132515E-02 
732	 7.86936128356077E-02 
733	 7.91314685021645E-02 
734	 7.99305918221071E-02 
735	 0.080626969287903 
736	 8.11358094314009E-02 
737	 8.13928134231323E-02 
738	 8.15901255061305E-02 
739	 8.18607076419978E-02 
740	 0.082394782655863 
741	 8.27243105377588E-02 
742	 8.28189126084124E-02 
743	 8.31803329549056E-02 
744	 8.38086717126549E-02 
745	 8.46132465256986E-02 
746	 8.45910114474326E-02 
747	 8.41438967895202E-02 
748	 8.46284472299032E-02 
749	 0.08531829554452 
750	 8.59178587379017E-02 
751	 8.62749768911272E-02 
752	 8.64656085628973E-02 
753	 8.66048904331281E-02 
754	 8.69790001769311E-02 
755	 8.74282014413691E-02 
756	 8.72604073732471E-02 
757	 8.73659951553629E-02 
758	 8.81044407724696E-02 
759	 8.84981380096712E-02 
760	 8.88091341652582E-02 
761	 0.089653157327371 
762	 9.01903333373036E-02 
763	 9.02416260867452E-02 
764	 8.99277171217214E-02 
765	 9.00197189714922E-02 
766	 9.06405890934879E-02 
767	 9.11390725424689E-02 
768	 9.13792930875913E-02 
769	 0.091202235281527 
770	 9.16523623981644E-02 
771	 9.26207384520288E-02 
772	 9.27881437961511E-02 
773	 9.25495134815095E-02 
774	 9.22631109896213E-02 
775	 9.25733201592236E-02 
776	 9.31811494462646E-02 
777	 9.33740435293253E-02 
778	 9.34775649435844E-02 
779	 0.093692283252476 
780	 0.094528045274081 
781	 9.50762370690392E-02 
782	 0.094727970645707 
783	 9.51215892757028E-02 
784	 9.59727282070445E-02 
785	 9.61265895358272E-02 
786	 9.59808773593944E-02 
787	 9.57648479931431E-02 
788	 9.59428475733116E-02 
789	 9.64021013504417E-02 
790	 9.69686920187898E-02 
791	 9.72241301578089E-02 
792	 9.72215285982172E-02 
793	 9.72769823372426E-02 
794	 9.75384166167926E-02 
795	 0.098020324816521 
796	 9.84223780367371E-02 
797	 9.86410296683375E-02 
798	 9.86327631617056E-02 
799	 9.90700478390887E-02 
800	 9.96996364720924E-02 
801	 9.94364850255209E-02 
802	 9.92063531118875E-02 
803	 9.94200894392516E-02 
804	 0.100120098442955 
805	 0.100880379240924 
806	 0.101241565453024 
807	 0.101265522694977 
808	 0.1012294036437 
809	 0.101903831458231 
810	 0.102422010826737 
811	 0.10250367285096 
812	 0.103083529831653 
813	 0.103471866938903 
814	 0.102704248313195 
815	 0.102839590931697 
816	 0.103893145510739 
817	 0.104052490661596 
818	 0.104240357716017 
819	 0.104794732064371 
820	 0.105444853316881 
821	 0.10576458584893 
822	 0.105301249405687 
823	 0.105431746320244 
824	 0.106213173334163 
825	 0.106882575358978 
826	 0.107379159166292 
827	 0.107634691605695 
828	 0.107551988658627 
829	 0.107273930959026 
830	 0.107013017377112 
831	 0.107486010498635 
832	 0.108393978727662 
833	 0.108342375272241 
834	 0.108802768575637 
835	 0.110037764561016 
836	 0.109840892694517 
837	 0.109015732218679 
838	 0.108699722349261 
839	 0.109650521106959 
840	 0.111276090675038 
841	 0.111551583231135 
842	 0.110941718958071 
843	 0.109934061740529 
844	 0.110255368173404 
845	 0.110926773142668 
846	 0.110716713413088 
847	 0.110893697799917 
848	 0.111409936841021 
849	 0.111347987780824 
850	 0.111556299812862 
851	 0.11222382207421 
852	 0.112394624974416 
853	 0.112144925408152 
854	 0.111682881707551 
855	 0.111407065951921 
856	 0.111527507302542 
857	 0.112330345895257 
858	 0.113045979554808 
859	 0.113274046104019 
860	 0.112598885115797 
861	 0.112102020261795 
862	 0.112770194698947 
863	 0.113270006200104 
864	 0.113491615532178 
865	 0.11376913625847 
866	 0.114192256239525 
867	 0.114768838702481 
868	 0.115279772769899 
869	 0.115933468754282 
870	 0.116795018987221 
871	 0.116631162086056 
872	 0.116068445012079 
873	 0.116621399494751 
874	 0.117739303028188 
875	 0.118879956437244 
876	 0.11852463270345 
877	 0.118394191855334 
878	 0.119605148709737 
879	 0.120523717313448 
880	 0.12096295990385 
881	 0.120994550700242 
882	 0.121651286231385 
883	 0.122707447822813 
884	 0.122236734825775 
885	 0.121890309914902 
886	 0.122632361475249 
887	 0.124106442441004 
888	 0.125365711576826 
889	 0.12525634947308 
890	 0.124981688404233 
891	 0.124843631016814 
892	 0.124689235996857 
893	 0.125217814927499 
894	 0.126325329261857 
895	 0.124970155810544 
896	 0.123859415514318 
897	 0.126287403180764 
898	 0.127327516635693 
899	 0.126990383450608 
900	 0.128131265268497 
901	 0.129006450911463 
902	 0.129102575090165 
903	 0.128509968811013 
904	 0.12864125444799 
905	 0.130219708319854 
906	 0.129251542659969 
907	 0.127248165411491 
908	 0.127916859851033 
909	 0.128784708507677 
910	 0.129246971838935 
911	 0.129827332615001 
912	 0.130212382226915 
913	 0.130162196960921 
914	 0.129263015824002 
915	 0.128811103020195 
916	 0.130282635743294 
917	 0.13159381756318 
918	 0.131883565328318 
919	 0.130179655625416 
920	 0.128390875341743 
921	 0.127736914730116 
922	 0.129941941084602 
923	 0.132052315813952 
924	 0.131458570307536 
925	 0.130928559190386 
926	 0.130644232074142 
927	 0.129975184731505 
928	 0.128610296604211 
929	 0.127439899206995 
930	 0.1317998706771 
931	 0.133282609179819 
932	 0.126262453551374 
933	 0.127487701487149 
934	 0.132624138165344 
935	 0.130955944080723 
936	 0.126450983850584 
937	 0.121650772418678 
938	 0.12063420252993 
939	 0.120216525003842 
940	 0.120422225713732 
941	 0.127163625904092 
942	 0.129236587001661 
943	 0.120067914899892 
944	 0.118136329574846 
945	 0.120700709070533 
946	 0.11928871059481 
947	 0.118819073693437 
948	 0.119722415554837 
949	 0.120127119947552 
950	 0.118917952614802 
951	 0.115602376224558 
952	 0.109416774654515 
953	 0.107950110310875 
954	 0.116713675965697 
955	 0.118052767324273 
956	 0.113081347498348 
957	 0.108720391428219 
958	 0.108737121814462 
959	 0.11238751237956 
960	 0.112548035830968 
961	 0.114344713145688 
962	 0.11862291240891 
963	 0.11664145631979 
964	 0.113392702116909 
965	 0.113965073919032 
966	 0.112301476473626 
967	 0.110149570781282 
968	 0.112842343832292 
969	 0.114092282495024 
970	 0.113088825663236 
971	 0.113609802309072 
972	 0.114910860369105 
973	 0.115691880369878 
974	 0.11040036919743 
975	 0.106077184468041 
976	 0.110445906982461 
977	 0.114805858047281 
978	 0.115474563584486 
979	 0.108421076322162 
980	 0.107463416921013 
981	 0.113852357164292 
982	 0.115510047874926 
983	 0.1153615258979 
984	 0.114930539501286 
985	 0.112789560609797 
986	 0.113239952292117 
987	 0.119905465948095 
988	 0.118352956377936 
989	 0.113098309535225 
990	 0.118521892816913 
991	 0.12039535009928 
992	 0.116870571200831 
993	 0.116494063366665 
994	 0.11666534826879 
995	 0.115916587754867 
996	 0.113284763733016 
997	 0.111391034357084 
998	 0.112769069047148 
999	 0.115705638616234 
1000	 0.119015271171422 
1001	 0.121359531268731 
1002	 0.122709719857607 
1003	 0.123840294431556 
1004	 0.127711485807046 
1005	 0.128929040815319 
1006	 0.12661274503038 
1007	 0.12896286422467 
1008	 0.128832005106564 
1009	 0.121974645494435 
1010	 0.12365349228231 
1011	 0.128298722782849 
1012	 0.126080051919765 
1013	 0.128153345590607 
1014	 0.132347896576397 
1015	 0.127605652751126 
1016	 0.125095602162386 
1017	 0.126240846399643 
1018	 0.120885525620215 
1019	 0.119839969636694 
1020	 0.127533805105954 
1021	 0.131166140142761 
1022	 0.130233005593494 
1023	 0.125759404724611 
1024	 0.124015415611746 
1025	 0.124469409363382 
1026	 0.123924464716102 
1027	 0.133078657375779 
1028	 0.147287259553615 
1029	 0.147823225878664 
1030	 0.145048724743149 
1031	 0.141979767317613 
1032	 0.135496383527947 
1033	 0.128781228134595 
1034	 0.126031753463815 
1035	 0.137403690359201 
1036	 0.145702192413932 
1037	 0.134530411401399 
1038	 0.135717507303682 
1039	 0.143148454634011 
1040	 0.136312078656939 
1041	 0.138653622798955 
1042	 0.147154018271279 
1043	 0.135655527862268 
1044	 0.130331725976937 
1045	 0.137463575939166 
1046	 0.137823321302312 
1047	 0.140408261104634 
1048	 0.148365170740861 
1049	 0.146395033842445 
1050	 0.139861173841586 
1051	 0.137202455492445 
1052	 0.150736099109551 
1053	 0.159882730622352 
1054	 0.134224499033632 
1055	 0.125261301793413 
1056	 0.136406153889663 
1057	 0.142671977183046 
1058	 0.142515933291041 
1059	 0.136867743498508 
1060	 0.131379586545928 
1061	 0.14149202238957 
1062	 0.165721648242756 
1063	 0.161976754601308 
1064	 0.141836327669582 
1065	 0.12342235975159 
1066	 0.154967324040882 
1067	 0.182582356968959 
1068	 0.143956379719435 
1069	 0.148236126378866 
1070	 0.173401663024091 
1071	 0.155244243100568 
1072	 0.157791557194748 
1073	 0.168350453617362 
1074	 0.115977290246439 
1075	 0.107779951596642 
