Wavelength	AVEI200048.asd
325	 2.92362051189648E-02 
326	 2.55634224782029E-02 
327	 2.73799184183831E-02 
328	 2.81565346937037E-02 
329	 2.75671468196906E-02 
330	 2.60032533999166E-02 
331	 2.69993010694543E-02 
332	 2.74125979661401E-02 
333	 2.44236715377064E-02 
334	 2.46780033040945E-02 
335	 2.70132108590522E-02 
336	 2.59575252915098E-02 
337	 2.63608048437196E-02 
338	 2.85137426847497E-02 
339	 2.68195987696086E-02 
340	 2.50929401917434E-02 
341	 0.026356197456806 
342	 2.61050724260235E-02 
343	 2.48048722669133E-02 
344	 2.47142550593775E-02 
345	 2.38187037514346E-02 
346	 2.22053324115788E-02 
347	 2.21279538433286E-02 
348	 0.022236485548066 
349	 2.18395760515608E-02 
350	 2.38068561566517E-02 
351	 2.59915919374781E-02 
352	 2.46201516701548E-02 
353	 2.38424090399462E-02 
354	 2.42405716961915E-02 
355	 2.38449866732501E-02 
356	 2.35250872088248E-02 
357	 0.023747982735633 
358	 0.023812248428828 
359	 2.36615083139422E-02 
360	 2.33583327954025E-02 
361	 2.27045641234752E-02 
362	 2.21577181097979E-02 
363	 2.34549413275815E-02 
364	 2.39923613006071E-02 
365	 2.27434999688351E-02 
366	 2.30574955501613E-02 
367	 2.35647315330574E-02 
368	 2.20205981546466E-02 
369	 2.13822708926402E-02 
370	 2.20818286795288E-02 
371	 2.31660785537744E-02 
372	 2.40807666879332E-02 
373	 2.43380655470828E-02 
374	 2.32054004514825E-02 
375	 2.20130445935379E-02 
376	 2.26063977215754E-02 
377	 2.32040263505899E-02 
378	 2.32509931746254E-02 
379	 2.24933510357831E-02 
380	 2.17183676131996E-02 
381	 2.13692156585912E-02 
382	 2.11252043215388E-02 
383	 2.10519177435368E-02 
384	 2.12684944772547E-02 
385	 2.16740833459269E-02 
386	 2.23102489674337E-02 
387	 2.35972714138735E-02 
388	 2.39042144021048E-02 
389	 2.28513836337396E-02 
390	 2.31030357801039E-02 
391	 2.34179920584769E-02 
392	 0.022139607800493 
393	 2.13116320734774E-02 
394	 2.13939838404217E-02 
395	 2.23205959178837E-02 
396	 2.33433736209286E-02 
397	 2.39560644527106E-02 
398	 2.37153911201538E-02 
399	 2.29861821370118E-02 
400	 2.21977756716489E-02 
401	 2.18014428713445E-02 
402	 2.18824892166609E-02 
403	 2.24878968067322E-02 
404	 2.28750132835005E-02 
405	 2.27483053999998E-02 
406	 0.022372453515673 
407	 2.21331387793694E-02 
408	 2.24469109726649E-02 
409	 2.21348591476547E-02 
410	 0.021406419021545 
411	 2.16498286187219E-02 
412	 2.18829576933925E-02 
413	 2.17270475940435E-02 
414	 2.19719860426101E-02 
415	 2.22471122371917E-02 
416	 2.20012746923701E-02 
417	 0.021583830149262 
418	 2.13633191384757E-02 
419	 2.23039546752777E-02 
420	 0.022690279419123 
421	 2.17910142841881E-02 
422	 2.15425517236486E-02 
423	 2.18413146769548E-02 
424	 2.22015676161042E-02 
425	 2.23875341353268E-02 
426	 2.23051794286527E-02 
427	 0.021865681410834 
428	 2.18905857294206E-02 
429	 2.27092038305101E-02 
430	 2.23335037347366E-02 
431	 2.15405924975839E-02 
432	 2.20765250496316E-02 
433	 2.23348073675673E-02 
434	 2.20664738921633E-02 
435	 2.20123341625207E-02 
436	 2.20407930317879E-02 
437	 2.20820316367276E-02 
438	 2.24249263516467E-02 
439	 2.27370317532123E-02 
440	 2.23302581984996E-02 
441	 2.20812450458109E-02 
442	 2.22389537411227E-02 
443	 2.26401554775414E-02 
444	 2.28428078476804E-02 
445	 2.25476298715129E-02 
446	 2.25342020621517E-02 
447	 2.26824253541543E-02 
448	 2.23958793002695E-02 
449	 2.22624592316296E-02 
450	 2.24348067307575E-02 
451	 2.26277771876492E-02 
452	 2.27320200546515E-02 
453	 2.26751040813541E-02 
454	 2.28724065705321E-02 
455	 2.31574010345524E-02 
456	 2.27872437084704E-02 
457	 2.27129369449474E-02 
458	 2.31933898126547E-02 
459	 2.32391850913858E-02 
460	 2.31122188705185E-02 
461	 2.32141652443695E-02 
462	 2.32262798742164E-02 
463	 0.023095960507021 
464	 2.28476370515498E-02 
465	 0.022713246174085 
466	 2.27948672192718E-02 
467	 2.27976615661239E-02 
468	 2.28363880584221E-02 
469	 0.02312662988234 
470	 2.32945555061246E-02 
471	 2.32721226683942E-02 
472	 2.31977184684052E-02 
473	 2.31982768263606E-02 
474	 2.33303029573973E-02 
475	 2.32782360818681E-02 
476	 2.32508174477084E-02 
477	 2.37099166410631E-02 
478	 2.38297704444887E-02 
479	 2.35289859607169E-02 
480	 2.35932910560776E-02 
481	 2.36212983819392E-02 
482	 2.33174598630195E-02 
483	 0.023356484766518 
484	 2.35915647627241E-02 
485	 2.33783809718845E-02 
486	 2.32718310108798E-02 
487	 2.34954183355423E-02 
488	 2.40948753219525E-02 
489	 2.45779833112052E-02 
490	 2.44666895189446E-02 
491	 2.41883263170343E-02 
492	 2.39439978430209E-02 
493	 2.39883095064114E-02 
494	 2.40568651627961E-02 
495	 2.40581433690343E-02 
496	 0.024225385756829 
497	 0.024346216336477 
498	 2.41280591783104E-02 
499	 2.40303972122154E-02 
500	 0.024153401681577 
501	 2.44268417638361E-02 
502	 2.45894707998898E-02 
503	 2.45029288382381E-02 
504	 2.44650134872799E-02 
505	 2.45239476983664E-02 
506	 2.46941138654678E-02 
507	 2.47344642492575E-02 
508	 2.46807455958416E-02 
509	 2.49887666363376E-02 
510	 2.52919477632584E-02 
511	 2.53185452500572E-02 
512	 2.55932247446932E-02 
513	 2.59081397358784E-02 
514	 0.025547090053804 
515	 2.53230039019451E-02 
516	 2.55514542662439E-02 
517	 2.61849917885798E-02 
518	 2.66112110340783E-02 
519	 2.62228332528839E-02 
520	 2.61390253328854E-02 
521	 2.64591408682466E-02 
522	 0.026785799650199 
523	 2.70417267224996E-02 
524	 2.71573463765734E-02 
525	 2.70436325488952E-02 
526	 2.69125476375257E-02 
527	 2.70631111769807E-02 
528	 0.027307848878418 
529	 2.75713226978736E-02 
530	 2.78050108359118E-02 
531	 2.79698151645096E-02 
532	 2.80584526118657E-02 
533	 2.82574761748275E-02 
534	 2.84968802224013E-02 
535	 2.85903080025731E-02 
536	 2.86149729262616E-02 
537	 2.86333093905097E-02 
538	 2.88195900188303E-02 
539	 2.89845642394725E-02 
540	 0.02895231363693 
541	 2.90578378100005E-02 
542	 2.92641172978372E-02 
543	 2.92796623045539E-02 
544	 2.93543573191685E-02 
545	 2.95680980895412E-02 
546	 2.97560970625097E-02 
547	 2.98250523884717E-02 
548	 2.96777574740253E-02 
549	 2.96881751801353E-02 
550	 0.029885037315972 
551	 3.00112578132585E-02 
552	 3.00945395761747E-02 
553	 0.030150524433751 
554	 3.01747634500634E-02 
555	 3.02387708991809E-02 
556	 0.030483354045293 
557	 3.06164808440057E-02 
558	 3.05740099700189E-02 
559	 3.05583794684521E-02 
560	 3.05419668882304E-02 
561	 3.05068395577166E-02 
562	 3.06860275596385E-02 
563	 3.09501886292033E-02 
564	 3.08496720395292E-02 
565	 3.07738251728989E-02 
566	 3.08712645448255E-02 
567	 3.10200199462728E-02 
568	 3.10841644185659E-02 
569	 3.09090011886676E-02 
570	 3.09035222013929E-02 
571	 0.031052921217413 
572	 3.09243116419571E-02 
573	 3.07806242041927E-02 
574	 3.07911497153385E-02 
575	 3.09442076262295E-02 
576	 3.11201750861067E-02 
577	 3.11032961783606E-02 
578	 3.11331264413986E-02 
579	 3.12360644945089E-02 
580	 3.11642249837647E-02 
581	 3.11464816686125E-02 
582	 3.13701775270231E-02 
583	 3.14687326849925E-02 
584	 3.14577734516923E-02 
585	 3.15684896724546E-02 
586	 3.16365534553128E-02 
587	 3.15930892933504E-02 
588	 0.031447716398332 
589	 3.12637060613916E-02 
590	 3.11294678059657E-02 
591	 3.11862454043233E-02 
592	 3.14673867957756E-02 
593	 3.20382807332208E-02 
594	 3.22602143567208E-02 
595	 3.18337499372158E-02 
596	 3.16455974622632E-02 
597	 3.17402044313315E-02 
598	 3.19871835296008E-02 
599	 3.19775195963368E-02 
600	 3.17296070722158E-02 
601	 3.19785005605162E-02 
602	 0.032283872907175 
603	 3.22549737674565E-02 
604	 3.23501232816628E-02 
605	 3.25643842911389E-02 
606	 3.27068141452356E-02 
607	 3.27181321983693E-02 
608	 3.25997791826379E-02 
609	 3.26208586711039E-02 
610	 3.25364319457672E-02 
611	 3.20199933100846E-02 
612	 3.19814368916106E-02 
613	 3.24549013412959E-02 
614	 3.27934921381775E-02 
615	 3.28877930647957E-02 
616	 3.27011636973935E-02 
617	 3.26695533970104E-02 
618	 3.27382880951871E-02 
619	 3.26816645689485E-02 
620	 3.27748694778483E-02 
621	 3.30183463620068E-02 
622	 3.30835936858738E-02 
623	 3.30021259579947E-02 
624	 3.28372186151475E-02 
625	 3.29162636321029E-02 
626	 3.31745295881617E-02 
627	 3.33156904242202E-02 
628	 3.32107604993791E-02 
629	 3.28748812444274E-02 
630	 3.28087401862477E-02 
631	 3.28680064313545E-02 
632	 3.28157901300108E-02 
633	 3.30404866263384E-02 
634	 0.033496462727877 
635	 3.37830780956787E-02 
636	 3.39356461615034E-02 
637	 3.39648029616262E-02 
638	 3.38474048784553E-02 
639	 3.36974221003025E-02 
640	 3.37108297642071E-02 
641	 3.36473627838199E-02 
642	 3.35589768082379E-02 
643	 0.034009199337396 
644	 3.43808573670158E-02 
645	 3.41640798435895E-02 
646	 3.43311709518774E-02 
647	 3.47160833184102E-02 
648	 3.43636418091928E-02 
649	 3.41078495116635E-02 
650	 3.42136755256032E-02 
651	 3.41446548340698E-02 
652	 3.39875566381571E-02 
653	 0.033894474625349 
654	 3.37931520771809E-02 
655	 3.37431724986051E-02 
656	 3.40405898597639E-02 
657	 3.41327625310568E-02 
658	 3.37984576317876E-02 
659	 3.40294372758032E-02 
660	 3.43958271112847E-02 
661	 3.40354155724383E-02 
662	 3.37434809853174E-02 
663	 3.37232937813099E-02 
664	 3.37939563059378E-02 
665	 3.38877500070087E-02 
666	 3.39296290841438E-02 
667	 3.36852406248784E-02 
668	 3.33516125945768E-02 
669	 0.033499938236962 
670	 3.36720026837592E-02 
671	 0.033707883100047 
672	 3.37008123332961E-02 
673	 3.37552843722408E-02 
674	 3.39767245503926E-02 
675	 3.40538750685276E-02 
676	 3.40235459042999E-02 
677	 3.42024431844121E-02 
678	 3.45310151732974E-02 
679	 3.49214376864852E-02 
680	 3.49835404390615E-02 
681	 3.49126726102882E-02 
682	 0.035095453332958 
683	 3.52060813011005E-02 
684	 3.52677333523458E-02 
685	 3.57082697264148E-02 
686	 3.63420072884498E-02 
687	 3.69753093244701E-02 
688	 3.73113101593562E-02 
689	 3.76642137273879E-02 
690	 3.89742064132735E-02 
691	 3.99539786968524E-02 
692	 4.03458721392572E-02 
693	 4.09082319597707E-02 
694	 0.041699298086259 
695	 4.26861846390378E-02 
696	 4.37275821962397E-02 
697	 4.47382135664182E-02 
698	 4.56396299163079E-02 
699	 0.046656910202099 
700	 0.047821824347492 
701	 4.86525343327654E-02 
702	 4.93634597145228E-02 
703	 5.03299628315365E-02 
704	 5.12305817552116E-02 
705	 5.20251454729969E-02 
706	 0.052820645815308 
707	 5.35509702566379E-02 
708	 5.42004138545341E-02 
709	 0.055035248586196 
710	 5.59205204183222E-02 
711	 5.65422160760457E-02 
712	 5.71847726529824E-02 
713	 5.78680532238961E-02 
714	 5.82988540405703E-02 
715	 0.058649382725553 
716	 5.91125868846142E-02 
717	 5.95881255694073E-02 
718	 6.00559072304247E-02 
719	 0.060330172088737 
720	 6.11212283371435E-02 
721	 6.22905951736471E-02 
722	 6.24017557350299E-02 
723	 6.23612060731709E-02 
724	 6.32014919424956E-02 
725	 0.064028225089057 
726	 6.45808121720805E-02 
727	 6.49712374149155E-02 
728	 6.53220227854483E-02 
729	 6.56941619519177E-02 
730	 6.59329261579131E-02 
731	 6.62343967063586E-02 
732	 6.68706241093042E-02 
733	 6.72583102815924E-02 
734	 0.067434971477621 
735	 6.79825308274018E-02 
736	 6.84233731292912E-02 
737	 6.85152196383271E-02 
738	 6.92350399666741E-02 
739	 7.02328811440289E-02 
740	 7.06374919025864E-02 
741	 7.08066609891293E-02 
742	 7.09210263988682E-02 
743	 7.12627380684632E-02 
744	 7.17532141086185E-02 
745	 7.22996574369917E-02 
746	 7.27430494325742E-02 
747	 7.29650373993758E-02 
748	 7.26861864789386E-02 
749	 7.28850317798323E-02 
750	 7.37299813189282E-02 
751	 7.39333244295731E-02 
752	 0.073943171258697 
753	 7.43158208179767E-02 
754	 7.44488922409847E-02 
755	 7.45104592234493E-02 
756	 7.53688425594391E-02 
757	 7.59672379656712E-02 
758	 7.58586557171096E-02 
759	 7.53980777922506E-02 
760	 7.50975248407826E-02 
761	 7.67430635391678E-02 
762	 7.76084573450631E-02 
763	 7.73681406911945E-02 
764	 7.78258256838307E-02 
765	 7.81493096798187E-02 
766	 7.81445266462227E-02 
767	 0.078259660660529 
768	 7.86195208413432E-02 
769	 7.93773808806549E-02 
770	 7.98133355744702E-02 
771	 7.98565605631493E-02 
772	 7.99766297762721E-02 
773	 8.01109126151185E-02 
774	 8.02714557808678E-02 
775	 8.09169473296065E-02 
776	 8.16681236593654E-02 
777	 8.17589088137505E-02 
778	 8.17405853221925E-02 
779	 8.18167348012189E-02 
780	 8.20241649031177E-02 
781	 8.24867537594521E-02 
782	 0.083254965604651 
783	 8.38808808792937E-02 
784	 0.084225497944195 
785	 8.41789710489756E-02 
786	 8.40989763372542E-02 
787	 8.42066556627057E-02 
788	 8.48223100821995E-02 
789	 8.53373796442347E-02 
790	 8.52058002043357E-02 
791	 8.52872271150073E-02 
792	 0.085574218458885 
793	 8.55805362770347E-02 
794	 8.60031902629764E-02 
795	 0.086837089949058 
796	 8.67507485162883E-02 
797	 8.64781093053542E-02 
798	 0.086820786514992 
799	 8.72612357648262E-02 
800	 8.76851411442493E-02 
801	 8.80857342274931E-02 
802	 8.82191321846262E-02 
803	 8.81282621655931E-02 
804	 8.86395678293835E-02 
805	 8.91902950833188E-02 
806	 8.91589420582022E-02 
807	 8.96857973694719E-02 
808	 9.05080891582621E-02 
809	 9.01735833800905E-02 
810	 8.98436820804233E-02 
811	 9.00331702107555E-02 
812	 9.04466834307148E-02 
813	 9.10201809677683E-02 
814	 9.16457979853036E-02 
815	 0.09117472390979 
816	 9.01302285559699E-02 
817	 9.11674102584715E-02 
818	 9.22149012555017E-02 
819	 0.092369822933499 
820	 9.21347590798414E-02 
821	 9.21036352821962E-02 
822	 9.28998815159105E-02 
823	 9.33611645471846E-02 
824	 9.34976267486689E-02 
825	 9.42164755026983E-02 
826	 9.48485989457414E-02 
827	 9.51177716618948E-02 
828	 9.49272775043088E-02 
829	 9.50694570345415E-02 
830	 9.64337980615033E-02 
831	 9.67921991812586E-02 
832	 9.62050119968009E-02 
833	 9.62436937615192E-02 
834	 9.67629157831572E-02 
835	 9.75640413852738E-02 
836	 9.77161292976669E-02 
837	 0.097646763854778 
838	 9.79270524214915E-02 
839	 9.84325052014039E-02 
840	 9.90664117104226E-02 
841	 9.97024873747486E-02 
842	 9.98603547544869E-02 
843	 9.94919879393903E-02 
844	 0.099537656679953 
845	 0.100274012011603 
846	 0.10180851527968 
847	 0.101695272820947 
848	 0.100353189206458 
849	 0.100501789041418 
850	 0.101006217040965 
851	 0.101381730140617 
852	 0.101373669884532 
853	 0.101218636926398 
854	 0.101211758280939 
855	 0.101200297528417 
856	 0.101470124946693 
857	 0.102924804836944 
858	 0.103550019966521 
859	 0.103015927520623 
860	 0.103526940369044 
861	 0.104334112768134 
862	 0.104616839062188 
863	 0.104709986651518 
864	 0.104657471430481 
865	 0.104413854014111 
866	 0.104405987016275 
867	 0.104713964807325 
868	 0.104854112946998 
869	 0.105079962710193 
870	 0.105617467630959 
871	 0.106490368893031 
872	 0.107352649631 
873	 0.107544848076591 
874	 0.10791572540942 
875	 0.108425000979205 
876	 0.107635724186238 
877	 0.107594818035474 
878	 0.109515364555445 
879	 0.110640536806237 
880	 0.110882686434432 
881	 0.110779955339141 
882	 0.110814444852149 
883	 0.111071725472697 
884	 0.111150339133511 
885	 0.111315135698691 
886	 0.111700902893058 
887	 0.112068798330879 
888	 0.112675413576726 
889	 0.113868801820293 
890	 0.114518426231179 
891	 0.114326016017406 
892	 0.113243173853801 
893	 0.112519322597548 
894	 0.112652658125945 
895	 0.112057695978058 
896	 0.11166922436564 
897	 0.112697681735792 
898	 0.113639839127031 
899	 0.114443651099935 
900	 0.115982953230839 
901	 0.11689719328331 
902	 0.116682421417478 
903	 0.115276865703752 
904	 0.114329889866933 
905	 0.114917955900955 
906	 0.114213385509506 
907	 0.113146742458689 
908	 0.114146148878156 
909	 0.114264004709615 
910	 0.113324074254007 
911	 0.114088607260628 
912	 0.115260421414352 
913	 0.115975904090475 
914	 0.116182538581805 
915	 0.116348489444797 
916	 0.117021308907698 
917	 0.117043163625169 
918	 0.116642024905656 
919	 0.117012788253808 
920	 0.117756062698301 
921	 0.118339158020035 
922	 0.116749908396565 
923	 0.115527235012487 
924	 0.116911210796159 
925	 0.118268564442433 
926	 0.119114419072172 
927	 0.119431382218587 
928	 0.119563636889802 
929	 0.119415830359744 
930	 0.118487510402645 
931	 0.113834085715748 
932	 0.104713097992973 
933	 0.106449885519202 
934	 0.114567879021581 
935	 0.117228501963437 
936	 0.114838914104438 
937	 0.10983391298669 
938	 0.109079781022821 
939	 0.10709976885855 
940	 0.103406784442567 
941	 0.102929047944469 
942	 0.104851512610252 
943	 0.107594719911812 
944	 0.104373766418727 
945	 9.90954733341124E-02 
946	 0.099364974966779 
947	 0.103640753643054 
948	 0.108661066087649 
949	 0.105711897487263 
950	 0.10057986318438 
951	 9.74282693204113E-02 
952	 0.103606382323896 
953	 0.111413889437601 
954	 0.113745095797094 
955	 0.112279157982162 
956	 0.108962057417832 
957	 0.106669437086642 
958	 0.105674859045307 
959	 0.105695325975409 
960	 0.10556015249192 
961	 0.1034683708494 
962	 9.95889068745487E-02 
963	 0.098920096416855 
964	 9.97342239004537E-02 
965	 9.99493713358476E-02 
966	 9.75260612661722E-02 
967	 9.74404878183332E-02 
968	 0.110378590367749 
969	 0.113247121774972 
970	 0.104349326217297 
971	 0.103084505872679 
972	 0.102300044433918 
973	 9.97632156295801E-02 
974	 0.107920983859432 
975	 0.115214761387838 
976	 0.108921544349567 
977	 0.105682244794877 
978	 0.106524015535421 
979	 0.106591415722523 
980	 0.103095915824752 
981	 9.82271758702535E-02 
982	 0.103506562381818 
983	 0.109914585596429 
984	 0.111957583740127 
985	 0.108904700113283 
986	 0.10474132540973 
987	 0.103950148354621 
988	 0.107955389003669 
989	 0.113298003164865 
990	 0.112849702600714 
991	 0.111658217145912 
992	 0.111400971842073 
993	 0.112707849088368 
994	 0.113736502337308 
995	 0.113256156650683 
996	 0.10968187734031 
997	 0.110062158898268 
998	 0.119809348279236 
999	 0.119956954109891 
1000	 0.113648036673021 
1001	 0.112249957013944 
1002	 0.114560286833916 
1003	 0.118328180429298 
1004	 0.116876514864377 
1005	 0.113076465984609 
1006	 0.10967095421908 
1007	 0.112911767459827 
1008	 0.120659388183114 
1009	 0.12925977770587 
1010	 0.132229562016921 
1011	 0.126760823362689 
1012	 0.111199749209407 
1013	 0.113423145031656 
1014	 0.128454574167366 
1015	 0.128350051344743 
1016	 0.123080881913862 
1017	 0.116996798082501 
1018	 0.115984555887066 
1019	 0.119558986669987 
1020	 0.125793465392567 
1021	 0.12762394054827 
1022	 0.123550718550601 
1023	 0.114343983826657 
1024	 0.118837621088559 
1025	 0.129735389060473 
1026	 0.129895917428148 
1027	 0.121276795986532 
1028	 0.110296553852304 
1029	 0.115913549605603 
1030	 0.123108332344145 
1031	 0.126078731272901 
1032	 0.123727984556185 
1033	 0.124256469569066 
1034	 0.131338900432867 
1035	 0.133676016026419 
1036	 0.130802346198472 
1037	 0.124317487295913 
1038	 0.125352334381325 
1039	 0.128182763855312 
1040	 0.120136876826608 
1041	 0.107866636133553 
1042	 0.102732730550224 
1043	 0.131949257958604 
1044	 0.143023766557167 
1045	 0.125764897269175 
1046	 0.12534526791333 
1047	 0.130095738401457 
1048	 0.131085846836241 
1049	 0.118720241934758 
1050	 0.11312499037983 
1051	 0.131334930890402 
1052	 0.137143274494126 
1053	 0.135582438366282 
1054	 0.141832788781727 
1055	 0.140995598619448 
1056	 0.130138551380855 
1057	 0.111227295564679 
1058	 0.105671502315841 
1059	 0.112801425433025 
1060	 0.10389078697259 
1061	 0.102189599166143 
1062	 0.115074336920639 
1063	 0.123675160257723 
1064	 0.126814415112704 
1065	 0.126426366260803 
1066	 0.138853595881895 
1067	 0.152025286343518 
1068	 0.150547489065876 
1069	 0.15114317547422 
1070	 0.144588942133618 
1071	 0.113022797220197 
1072	 9.09029221884677E-02 
1073	 9.11823912197812E-02 
1074	 0.125740212924103 
1075	 0.161109552490823 
