Wavelength	AVEI200305.asd
325	 3.34583861849541E-02 
326	 0.021647794202908 
327	 1.15675645132727E-02 
328	 1.53547456904364E-02 
329	 2.33460411793883E-02 
330	 3.07907648727069E-02 
331	 3.17589293721305E-02 
332	 3.26503548030052E-02 
333	 3.93317976717299E-02 
334	 3.61725721082498E-02 
335	 0.027896405971337 
336	 3.12580528363925E-02 
337	 3.45726220143786E-02 
338	 3.49916115871042E-02 
339	 3.87245410384764E-02 
340	 3.60675360067403E-02 
341	 2.12874810064104E-02 
342	 2.31523775993825E-02 
343	 0.035757671015284 
344	 4.12221171818271E-02 
345	 3.58051872396563E-02 
346	 2.36004310518608E-02 
347	 2.49566910954599E-02 
348	 2.99216517243727E-02 
349	 0.031414783327989 
350	 3.28636721316572E-02 
351	 3.32461736710622E-02 
352	 3.04725621755316E-02 
353	 2.77151127613182E-02 
354	 2.58236854008195E-02 
355	 2.39442707574852E-02 
356	 2.48412032445422E-02 
357	 2.92298634642725E-02 
358	 0.02883593853376 
359	 2.73652597217714E-02 
360	 3.18884473623439E-02 
361	 3.34597746798813E-02 
362	 3.13949659759795E-02 
363	 0.031194496135145 
364	 3.03440242000639E-02 
365	 2.82458288131118E-02 
366	 0.030535550316154 
367	 3.23317683300927E-02 
368	 2.64804956580688E-02 
369	 2.49380576722917E-02 
370	 0.029020956107926 
371	 3.38750754343163E-02 
372	 3.45822354129199E-02 
373	 2.95160843265333E-02 
374	 2.84786954055454E-02 
375	 2.88616588237139E-02 
376	 0.025584756235332 
377	 0.024420078499426 
378	 2.59622271422322E-02 
379	 2.77507115869198E-02 
380	 2.70936534196844E-02 
381	 0.023843418298852 
382	 2.64822614068661E-02 
383	 3.10845144279415E-02 
384	 3.15983962464582E-02 
385	 0.029562281118921 
386	 2.67859284959698E-02 
387	 2.76142133737504E-02 
388	 2.88832424867686E-02 
389	 2.91063971873766E-02 
390	 2.92936461915809E-02 
391	 2.88361361116422E-02 
392	 2.70342918339002E-02 
393	 2.82425956638587E-02 
394	 3.03913140084209E-02 
395	 2.41418254173914E-02 
396	 2.25726195516775E-02 
397	 2.88757385112975E-02 
398	 2.76406394663018E-02 
399	 2.41415351262343E-02 
400	 2.50407094524149E-02 
401	 0.026968314657817 
402	 2.87506520906121E-02 
403	 2.92493940316046E-02 
404	 2.91100179591876E-02 
405	 2.88153437198757E-02 
406	 2.96483931544061E-02 
407	 3.02227173424537E-02 
408	 2.87685481621756E-02 
409	 2.80634137475428E-02 
410	 2.80191824752045E-02 
411	 2.61524008867566E-02 
412	 2.52985833824684E-02 
413	 0.026645613535913 
414	 2.85275946415857E-02 
415	 2.98482925327202E-02 
416	 2.95251754284741E-02 
417	 2.89433294029546E-02 
418	 2.83465315888242E-02 
419	 2.72933054518708E-02 
420	 0.026071824410732 
421	 2.51878013502679E-02 
422	 0.026953068341406 
423	 2.88419371823071E-02 
424	 2.69001521499225E-02 
425	 2.60883293341643E-02 
426	 0.027080036816003 
427	 2.74129347719239E-02 
428	 2.74065659332411E-02 
429	 2.73787698393587E-02 
430	 2.84873091065613E-02 
431	 2.94113685260286E-02 
432	 2.77470853409427E-02 
433	 2.59993888261501E-02 
434	 2.52091454824649E-02 
435	 2.61809693747651E-02 
436	 2.72153210521645E-02 
437	 2.71639809911827E-02 
438	 2.66011283101066E-02 
439	 2.60988924980099E-02 
440	 2.65840128311486E-02 
441	 2.67100785701314E-02 
442	 2.63601537960932E-02 
443	 2.68194580805238E-02 
444	 2.77048021233414E-02 
445	 2.85433757211237E-02 
446	 2.78724545301319E-02 
447	 2.67415693123818E-02 
448	 2.81030548717524E-02 
449	 2.90892142753023E-02 
450	 2.88315948919463E-02 
451	 0.028223820608512 
452	 2.78961284478781E-02 
453	 2.83755012966465E-02 
454	 2.86465569333806E-02 
455	 0.028352037859944 
456	 2.69467764961696E-02 
457	 2.64888595705561E-02 
458	 2.76399089235195E-02 
459	 2.85741490473353E-02 
460	 2.88745283697762E-02 
461	 2.82821603295466E-02 
462	 2.77572289549836E-02 
463	 2.77136440216695E-02 
464	 2.85794831346121E-02 
465	 2.93621020719869E-02 
466	 2.94930909972802E-02 
467	 2.91708817245562E-02 
468	 2.88802703041593E-02 
469	 2.92812183133671E-02 
470	 2.96385785518685E-02 
471	 2.96078107601799E-02 
472	 2.85690112536461E-02 
473	 2.85022878225488E-02 
474	 3.02397277139262E-02 
475	 2.94051727380818E-02 
476	 2.74865403438589E-02 
477	 2.81163225167555E-02 
478	 2.90516309807444E-02 
479	 2.95988021847166E-02 
480	 0.029738025009005 
481	 2.98138856023463E-02 
482	 3.00536367082963E-02 
483	 2.96002845200102E-02 
484	 2.88232953424113E-02 
485	 2.89403926300351E-02 
486	 2.90683386280144E-02 
487	 2.88515696121942E-02 
488	 2.80279054523686E-02 
489	 2.79434788140417E-02 
490	 2.97844579286783E-02 
491	 2.99235596982732E-02 
492	 2.85759772925468E-02 
493	 2.81628969547981E-02 
494	 2.88350568749117E-02 
495	 3.03974778591578E-02 
496	 3.08251679138889E-02 
497	 3.05595423676996E-02 
498	 3.04507262256048E-02 
499	 3.05088572810341E-02 
500	 3.06959700802409E-02 
501	 3.07512516461012E-02 
502	 3.06887816810652E-02 
503	 3.06255814890823E-02 
504	 0.031308273157386 
505	 3.24809078899278E-02 
506	 3.36374698086388E-02 
507	 3.41129219281714E-02 
508	 3.36976902058322E-02 
509	 3.24489232760102E-02 
510	 3.15380327832894E-02 
511	 3.19161142284267E-02 
512	 3.32187313212061E-02 
513	 3.48447296992788E-02 
514	 3.57679977867512E-02 
515	 3.58267147544756E-02 
516	 3.52525114656008E-02 
517	 3.57857821241157E-02 
518	 0.03678937586866 
519	 3.74090971746301E-02 
520	 3.78514402488605E-02 
521	 3.81478639330949E-02 
522	 3.82039338361704E-02 
523	 3.87586504124668E-02 
524	 0.040099578538961 
525	 0.041796529641506 
526	 4.25816238886051E-02 
527	 4.07486450323569E-02 
528	 4.06937064200873E-02 
529	 4.27048656657422E-02 
530	 4.34100642221525E-02 
531	 4.38650942997728E-02 
532	 4.46919961204926E-02 
533	 4.49382907221251E-02 
534	 4.47086601973573E-02 
535	 4.43699940715673E-02 
536	 4.46420513035577E-02 
537	 4.56098802048726E-02 
538	 4.63347982459829E-02 
539	 4.69778115557909E-02 
540	 4.77140280984731E-02 
541	 4.81713404996795E-02 
542	 4.83311340687292E-02 
543	 4.83528436593688E-02 
544	 4.82790727308213E-02 
545	 0.048195299194426 
546	 0.048280823659012 
547	 4.86935827109622E-02 
548	 4.96059298468383E-02 
549	 4.97461065492941E-02 
550	 4.91556260905939E-02 
551	 4.91303317008247E-02 
552	 4.92958149396518E-02 
553	 4.94560019930874E-02 
554	 5.00040388460647E-02 
555	 5.05903351888304E-02 
556	 5.04931296312278E-02 
557	 5.03320763550247E-02 
558	 5.04316123130066E-02 
559	 5.14067635958328E-02 
560	 5.17007431764678E-02 
561	 5.00800693111611E-02 
562	 5.02265535788124E-02 
563	 5.17142607412491E-02 
564	 5.16277759421543E-02 
565	 0.05111713501674 
566	 5.06482791183076E-02 
567	 5.03972477837938E-02 
568	 5.04379750509646E-02 
569	 5.08143034630228E-02 
570	 5.04417988967824E-02 
571	 4.95816413519441E-02 
572	 5.01976996445511E-02 
573	 5.04818090317892E-02 
574	 0.049506614277862 
575	 4.94695462675684E-02 
576	 4.97168938389745E-02 
577	 4.84292960477459E-02 
578	 4.81227335540485E-02 
579	 4.90760105248083E-02 
580	 4.87578939744969E-02 
581	 0.048363477821277 
582	 0.048928992603175 
583	 4.87277219600575E-02 
584	 4.80493340922127E-02 
585	 4.84892930608808E-02 
586	 4.87317575782337E-02 
587	 4.83206256087046E-02 
588	 4.78853981334866E-02 
589	 4.75957795982463E-02 
590	 4.76056983683625E-02 
591	 4.84130048953008E-02 
592	 4.93070816346273E-02 
593	 4.76021355319753E-02 
594	 4.66389523856155E-02 
595	 4.80998527769491E-02 
596	 0.048329433218876 
597	 4.77479500417357E-02 
598	 4.79503478073349E-02 
599	 4.82949699710926E-02 
600	 4.86488456104045E-02 
601	 4.91811633089235E-02 
602	 0.04961070960325 
603	 4.96483083117415E-02 
604	 4.88417218936047E-02 
605	 4.77732547217456E-02 
606	 4.82301892204656E-02 
607	 4.78404577966202E-02 
608	 4.61398339987363E-02 
609	 4.63260385938353E-02 
610	 4.77419404760511E-02 
611	 4.91522741747734E-02 
612	 4.82792047294771E-02 
613	 4.57744624128597E-02 
614	 4.59066187245222E-02 
615	 4.61981544337559E-02 
616	 4.54143982970793E-02 
617	 4.64998928968906E-02 
618	 4.80592247679674E-02 
619	 4.71213128725079E-02 
620	 0.045510299767342 
621	 4.41332382942006E-02 
622	 4.42600655895621E-02 
623	 4.50208661455069E-02 
624	 4.55611267086192E-02 
625	 0.046007819748683 
626	 4.62511456306797E-02 
627	 4.60238921860652E-02 
628	 4.59033862707939E-02 
629	 4.60731794800712E-02 
630	 4.59523890843267E-02 
631	 4.58834018392359E-02 
632	 4.63352333108618E-02 
633	 4.65120587249322E-02 
634	 0.046245699674718 
635	 4.55479679666519E-02 
636	 4.54879275059929E-02 
637	 4.64104921228873E-02 
638	 4.54693289441986E-02 
639	 4.38070446649225E-02 
640	 4.40250706882735E-02 
641	 4.57056535150102E-02 
642	 4.77113088915617E-02 
643	 4.59725211607548E-02 
644	 4.33166793181716E-02 
645	 4.23952499609294E-02 
646	 4.24897445430484E-02 
647	 4.29459140253709E-02 
648	 4.21901079325862E-02 
649	 4.20463261585073E-02 
650	 4.28983055240647E-02 
651	 4.26149153798418E-02 
652	 4.18824015645221E-02 
653	 0.041716665349748 
654	 4.10658559219884E-02 
655	 4.02549241285234E-02 
656	 4.13627061374669E-02 
657	 4.23965530069235E-02 
658	 4.20620042053338E-02 
659	 0.040463847820035 
660	 0.039030451143073 
661	 3.99624512718164E-02 
662	 4.03665219278701E-02 
663	 3.96277904873023E-02 
664	 3.91918487302295E-02 
665	 3.82189950052278E-02 
666	 3.61838738612552E-02 
667	 3.57842905086197E-02 
668	 3.65327870577253E-02 
669	 3.58884787672392E-02 
670	 3.60477146670258E-02 
671	 3.75011259436269E-02 
672	 3.85764677501394E-02 
673	 3.89412394274305E-02 
674	 3.84076323025876E-02 
675	 0.037720494232145 
676	 3.73351821991064E-02 
677	 3.79976938262734E-02 
678	 3.84153606825891E-02 
679	 0.037927906480605 
680	 3.72363647222888E-02 
681	 3.70103809138987E-02 
682	 3.81519254294664E-02 
683	 3.90967766915441E-02 
684	 3.97196786875457E-02 
685	 4.16203698350082E-02 
686	 4.36686126251634E-02 
687	 0.04484145704627 
688	 4.62687186934768E-02 
689	 4.81166571400686E-02 
690	 5.07459665464582E-02 
691	 5.20505930029779E-02 
692	 5.22581726035401E-02 
693	 5.55861911712579E-02 
694	 6.00428555646879E-02 
695	 6.31241930398674E-02 
696	 6.51810142329732E-02 
697	 6.68373991991527E-02 
698	 6.97043705675025E-02 
699	 7.26311287443302E-02 
700	 7.52134513618638E-02 
701	 0.078912389353937 
702	 8.23626781323785E-02 
703	 8.35678100929906E-02 
704	 0.086414499878957 
705	 9.07586286051393E-02 
706	 0.092526533729477 
707	 9.44230234986445E-02 
708	 9.80001655168105E-02 
709	 0.1008159158939 
710	 0.103105532950667 
711	 0.105877933089082 
712	 0.109350951915525 
713	 0.112919553930154 
714	 0.113685757640358 
715	 0.113920436215844 
716	 0.115911987535061 
717	 0.118329724510053 
718	 0.120804516793538 
719	 0.122379446967533 
720	 0.124672993214525 
721	 0.127616544774344 
722	 0.129087353130156 
723	 0.130091288078233 
724	 0.131633343523117 
725	 0.132823533930997 
726	 0.13372935923182 
727	 0.135573643666473 
728	 0.136809149054868 
729	 0.136999057917729 
730	 0.138907458159022 
731	 0.140978885968694 
732	 0.140769761389843 
733	 0.140843746506067 
734	 0.141617637597379 
735	 0.142235121037381 
736	 0.143366877695573 
737	 0.145271731557145 
738	 0.146537759150463 
739	 0.147103626658706 
740	 0.14718151029152 
741	 0.14796573626086 
742	 0.149449345002043 
743	 0.149819848561025 
744	 0.149910519873569 
745	 0.150446865926124 
746	 0.150663801916092 
747	 0.150919462556556 
748	 0.152531882592591 
749	 0.153165735394676 
750	 0.152300003911611 
751	 0.152089252150989 
752	 0.152793003316289 
753	 0.154439758987642 
754	 0.155770742342131 
755	 0.156473878400827 
756	 0.156590553728264 
757	 0.156545208978597 
758	 0.156755272317464 
759	 0.158708974245164 
760	 0.162735516537603 
761	 0.164187568099908 
762	 0.163310212895003 
763	 0.161548890845652 
764	 0.159695738327352 
765	 0.16090465446185 
766	 0.164528843633971 
767	 0.163558090506907 
768	 0.161884343118153 
769	 0.164387702785556 
770	 0.165102313814159 
771	 0.163613632589528 
772	 0.163785025390804 
773	 0.163749688758726 
774	 0.162637947487641 
775	 0.164264958067299 
776	 0.166949390133006 
777	 0.166715753119873 
778	 0.167299953798687 
779	 0.168998136420411 
780	 0.168071544384437 
781	 0.167645136839452 
782	 0.169978077225687 
783	 0.170908844123361 
784	 0.170782274890132 
785	 0.171966489119756 
786	 0.171694810454972 
787	 0.169987158702299 
788	 0.171297731249455 
789	 0.173669114919874 
790	 0.174966846285231 
791	 0.174741684686863 
792	 0.173752208558048 
793	 0.174109435862324 
794	 0.174527164399899 
795	 0.174569884243895 
796	 0.174306692419522 
797	 0.173936117123033 
798	 0.173780262811443 
799	 0.175923371671947 
800	 0.179317407228492 
801	 0.180389385250695 
802	 0.179679814522158 
803	 0.177924454462756 
804	 0.178252397986346 
805	 0.179344295205319 
806	 0.179571436568006 
807	 0.180702590611892 
808	 0.182590123270982 
809	 0.183900167915783 
810	 0.185130738533762 
811	 0.186077992255081 
812	 0.184338469163098 
813	 0.182401854783883 
814	 0.183855913293176 
815	 0.184703425657634 
816	 0.184960787152335 
817	 0.188482211129519 
818	 0.189549840102326 
819	 0.18683465577803 
820	 0.187795680581647 
821	 0.189120983194171 
822	 0.186441415862733 
823	 0.18540082066267 
824	 0.187190245654458 
825	 0.19161194932515 
826	 0.193646081637489 
827	 0.191657481909062 
828	 0.190059028525541 
829	 0.190066381701079 
830	 0.19246731034251 
831	 0.193315936232076 
832	 0.19293243776519 
833	 0.195228326445722 
834	 0.195935660562421 
835	 0.194001240567139 
836	 0.194432339132049 
837	 0.195694762780604 
838	 0.195682604492871 
839	 0.197420101571581 
840	 0.200053926102543 
841	 0.199666482357277 
842	 0.198199956204173 
843	 0.196859653230551 
844	 0.197454756424638 
845	 0.198471216001848 
846	 0.198120427482899 
847	 0.198539673808837 
848	 0.199893250701578 
849	 0.201816171896552 
850	 0.201150450710499 
851	 0.197771099125627 
852	 0.199756706749165 
853	 0.202314835556812 
854	 0.199939901098465 
855	 0.199234194487578 
856	 0.20080147066437 
857	 0.203290776946531 
858	 0.203212378410325 
859	 0.200234424118014 
860	 0.199293476648318 
861	 0.201749711886293 
862	 0.207996949504041 
863	 0.209476200579734 
864	 0.207122430002294 
865	 0.207312395623696 
866	 0.207429667954376 
867	 0.207222395161755 
868	 0.208880948545959 
869	 0.210125944303065 
870	 0.209169157937978 
871	 0.207751365706179 
872	 0.206486048743197 
873	 0.205817712120395 
874	 0.206964929672376 
875	 0.209492143925271 
876	 0.20997575778797 
877	 0.211133090912241 
878	 0.214484904845033 
879	 0.215744363153125 
880	 0.215355031888604 
881	 0.215051049293393 
882	 0.214901846988042 
883	 0.214955597569494 
884	 0.214899487654237 
885	 0.214975239438649 
886	 0.215366989629361 
887	 0.216056042767408 
888	 0.217668921192519 
889	 0.220935754785226 
890	 0.223686835239618 
891	 0.224852205496474 
892	 0.222481708423245 
893	 0.221991860186327 
894	 0.225717849777037 
895	 0.229243393108179 
896	 0.23048075588803 
897	 0.227726587275187 
898	 0.227423796630218 
899	 0.228934431518274 
900	 0.226584059076998 
901	 0.226081273913585 
902	 0.228493749875969 
903	 0.229470210936817 
904	 0.230795301057801 
905	 0.233372315669158 
906	 0.231630454998021 
907	 0.228120703421541 
908	 0.228800747438967 
909	 0.230465854047455 
910	 0.232779798694588 
911	 0.238493474819889 
912	 0.23908725695631 
913	 0.231352719146144 
914	 0.229636264167745 
915	 0.229758692839056 
916	 0.225168684395619 
917	 0.228370250500703 
918	 0.23813256437107 
919	 0.246708521188645 
920	 0.244330039658422 
921	 0.230732114107628 
922	 0.225823412981402 
923	 0.224205281240637 
924	 0.220911230711637 
925	 0.228371983864913 
926	 0.239543255181381 
927	 0.234709100791383 
928	 0.232632715911477 
929	 0.23710124169556 
930	 0.230032859477227 
931	 0.221859454203914 
932	 0.222957391795036 
933	 0.244751724184466 
934	 0.260830680936782 
935	 0.232157351399204 
936	 0.216680214613409 
937	 0.223539993886173 
938	 0.23797054192583 
939	 0.234575633412062 
940	 0.214428605855278 
941	 0.222347986016655 
942	 0.232277156297731 
943	 0.225354059960085 
944	 0.231368954829262 
945	 0.24061043766665 
946	 0.23527565519689 
947	 0.212160517593121 
948	 0.191583201553983 
949	 0.23583558380204 
950	 0.247399841814836 
951	 0.202386704377177 
952	 0.200604415305025 
953	 0.22249001349668 
954	 0.242802662604526 
955	 0.222579589856314 
956	 0.193101201009161 
957	 0.21762815381191 
958	 0.237824181106068 
959	 0.236305445210935 
960	 0.209722911959288 
961	 0.195595862502835 
962	 0.211080436772768 
963	 0.232795003418379 
964	 0.243574418456697 
965	 0.233349975654808 
966	 0.224836312159847 
967	 0.221754120357957 
968	 0.223010528871172 
969	 0.230506787847845 
970	 0.238944145699587 
971	 0.228213469601049 
972	 0.223923597131537 
973	 0.236784711474066 
974	 0.237955585438766 
975	 0.23101016502852 
976	 0.222999830375984 
977	 0.216188670186359 
978	 0.212670260633849 
979	 0.21393136542287 
980	 0.228511674303805 
981	 0.246102351274245 
982	 0.215362001462729 
983	 0.19944102415374 
984	 0.225300270484242 
985	 0.238222839303896 
986	 0.230978806581607 
987	 0.203689237174725 
988	 0.214907839796348 
989	 0.243521504526981 
990	 0.227573241518 
991	 0.22694183990247 
992	 0.248062437980104 
993	 0.252521452713113 
994	 0.245027023334921 
995	 0.230912802622125 
996	 0.231254503487364 
997	 0.236596591533299 
998	 0.236053977530018 
999	 0.24007262159625 
1000	 0.240174719294982 
1001	 0.219957348192219 
1002	 0.21641367557122 
1003	 0.230073100210349 
1004	 0.226685979399751 
1005	 0.233673544954456 
1006	 0.256080426491578 
1007	 0.25805110352517 
1008	 0.248435609006432 
1009	 0.236948545140236 
1010	 0.237416197695876 
1011	 0.239731902347975 
1012	 0.22802108542443 
1013	 0.232221638318304 
1014	 0.246028245337224 
1015	 0.235224948318621 
1016	 0.230634504431871 
1017	 0.238193214206517 
1018	 0.2397094956232 
1019	 0.24112465098158 
1020	 0.244145244821923 
1021	 0.23817289783786 
1022	 0.230767757830551 
1023	 0.230528756791253 
1024	 0.231696231691277 
1025	 0.236558449323968 
1026	 0.249212739618469 
1027	 0.276941983024241 
1028	 0.297849182820306 
1029	 0.250194674558816 
1030	 0.231120838230566 
1031	 0.265895435219362 
1032	 0.26044514652571 
1033	 0.229750652187907 
1034	 0.191916584686413 
1035	 0.206840658859773 
1036	 0.242255684011709 
1037	 0.258958721322882 
1038	 0.221639046327749 
1039	 0.193269932238242 
1040	 0.272121908687381 
1041	 0.279874877521689 
1042	 0.219218956038383 
1043	 0.227869467033621 
1044	 0.24119344806524 
1045	 0.239788476066204 
1046	 0.241445169354304 
1047	 0.270070677737729 
1048	 0.31976281943889 
1049	 0.292046334360655 
1050	 0.237592486127081 
1051	 0.217757193851145 
1052	 0.222660164117246 
1053	 0.234349230346344 
1054	 0.226481214731299 
1055	 0.218401261029647 
1056	 0.213399793512927 
1057	 0.214839347400297 
1058	 0.169919169480771 
1059	 0.11458252121558 
1060	 0.259603911318243 
1061	 0.299447561608622 
1062	 0.189186729555903 
1063	 0.200766763047218 
1064	 0.244059865881292 
1065	 0.228140669001992 
1066	 0.142044897221673 
1067	 9.04609598164994E-02 
1068	 0.179043769526174 
1069	 0.202352602611605 
1070	 0.198963179964386 
1071	 0.285379302940015 
1072	 0.27273034397458 
1073	 0.183847967750312 
1074	 0.147280796950711 
1075	 0.117505472569649 
