Wavelength	AVEI200223.asd
325	 5.93332156607114E-02 
326	 0.061682794412701 
327	 0.061505853339898 
328	 6.20604222095755E-02 
329	 6.35982261022579E-02 
330	 6.55103395279638E-02 
331	 6.35325033710039E-02 
332	 6.26969604529473E-02 
333	 6.75087946656764E-02 
334	 6.80640910159873E-02 
335	 6.49551639172992E-02 
336	 6.35863403226184E-02 
337	 0.061863754757699 
338	 5.99421255780091E-02 
339	 6.06453053335018E-02 
340	 6.19175317951305E-02 
341	 6.20996941929103E-02 
342	 6.34047267355982E-02 
343	 6.51879577663229E-02 
344	 0.065834040703091 
345	 6.55579368744783E-02 
346	 0.065275019759303 
347	 6.88735323932031E-02 
348	 6.91048649594654E-02 
349	 6.24974208893929E-02 
350	 0.062776117995862 
351	 6.68892594251506E-02 
352	 6.72813236832776E-02 
353	 6.74051605334455E-02 
354	 6.75482432483866E-02 
355	 0.065870551973772 
356	 6.48862744591225E-02 
357	 6.59111670648896E-02 
358	 6.65013703410969E-02 
359	 6.66823552962072E-02 
360	 6.70147522419967E-02 
361	 6.57981046083213E-02 
362	 6.39124916398127E-02 
363	 0.065508531497834 
364	 6.72770990212264E-02 
365	 6.74531232497364E-02 
366	 6.73221905876907E-02 
367	 6.67545041219394E-02 
368	 6.53713072847023E-02 
369	 6.70342151227386E-02 
370	 7.06016843704847E-02 
371	 6.94444132994576E-02 
372	 6.78570995465047E-02 
373	 6.81933036963482E-02 
374	 6.97584015328208E-02 
375	 7.08802093481036E-02 
376	 6.94695385219275E-02 
377	 6.82731314041601E-02 
378	 0.067833567539988 
379	 6.74167260554177E-02 
380	 6.74922148066815E-02 
381	 6.81090768675447E-02 
382	 6.80633558363383E-02 
383	 6.82550433581073E-02 
384	 6.99525592552819E-02 
385	 6.92245614628836E-02 
386	 6.66222900583596E-02 
387	 6.67758098332147E-02 
388	 6.74083564442563E-02 
389	 6.75871576317905E-02 
390	 6.83377445320662E-02 
391	 6.92067136849432E-02 
392	 6.96078756954527E-02 
393	 6.92868986554179E-02 
394	 6.87939040776734E-02 
395	 6.99564637492433E-02 
396	 7.01680803760332E-02 
397	 6.86706937327106E-02 
398	 6.77386969232443E-02 
399	 6.75726223414214E-02 
400	 0.068064926639301 
401	 6.86128553473499E-02 
402	 6.91317516821431E-02 
403	 6.99110288442947E-02 
404	 7.01919386496299E-02 
405	 6.98747615066831E-02 
406	 7.04236657827565E-02 
407	 7.09275440648798E-02 
408	 7.01470966276851E-02 
409	 7.04071315817373E-02 
410	 7.13951259371499E-02 
411	 7.06376451456965E-02 
412	 0.069991174042877 
413	 7.03112812707685E-02 
414	 7.10515028051103E-02 
415	 7.16332248858025E-02 
416	 7.14125841212297E-02 
417	 7.12715188155436E-02 
418	 7.13647255208754E-02 
419	 7.14065147530986E-02 
420	 7.17079344165743E-02 
421	 7.23260186688131E-02 
422	 7.24408309356041E-02 
423	 7.24043773454041E-02 
424	 7.28672501424623E-02 
425	 7.30237016987371E-02 
426	 7.28642239584151E-02 
427	 7.30397179083292E-02 
428	 7.35385254363441E-02 
429	 7.42377893824612E-02 
430	 7.43006294602283E-02 
431	 7.40350233599298E-02 
432	 7.41392053977671E-02 
433	 7.43235818759504E-02 
434	 7.44969403157359E-02 
435	 7.46011356822552E-02 
436	 7.46311263677307E-02 
437	 7.46270740297633E-02 
438	 7.49303335147072E-02 
439	 7.54331698366279E-02 
440	 7.58661737971778E-02 
441	 7.62153617304013E-02 
442	 0.076437502753793 
443	 7.64083551613048E-02 
444	 7.65148440941505E-02 
445	 7.70370452222779E-02 
446	 7.74426768694609E-02 
447	 7.76928195684126E-02 
448	 7.79139718055516E-02 
449	 7.81367094648525E-02 
450	 7.83226091462828E-02 
451	 7.81559597899828E-02 
452	 7.81214926970766E-02 
453	 7.86755503485709E-02 
454	 7.89839360690001E-02 
455	 7.90957810166165E-02 
456	 7.96766871641174E-02 
457	 7.99473234077135E-02 
458	 7.97846722489296E-02 
459	 8.04907826925363E-02 
460	 0.081269084990059 
461	 8.10784062867393E-02 
462	 8.08251839370874E-02 
463	 8.07252726961786E-02 
464	 8.07253953060735E-02 
465	 8.08674138165896E-02 
466	 8.11357756451703E-02 
467	 8.12868687902619E-02 
468	 0.081361145392686 
469	 8.14562894637798E-02 
470	 8.19196570601262E-02 
471	 8.26117245682586E-02 
472	 8.27780627722025E-02 
473	 8.26439250691526E-02 
474	 8.24230202242724E-02 
475	 8.25272809154648E-02 
476	 8.29067505149264E-02 
477	 0.083382533855418 
478	 8.35730151466718E-02 
479	 8.34457060363329E-02 
480	 8.34245178172454E-02 
481	 8.35462184089636E-02 
482	 8.38088338303487E-02 
483	 0.083896799654927 
484	 8.39204406736408E-02 
485	 8.43383135542255E-02 
486	 8.43840995101765E-02 
487	 8.39239466771834E-02 
488	 8.38326148318982E-02 
489	 8.39808765579424E-02 
490	 8.41751520741089E-02 
491	 8.46804978451786E-02 
492	 8.52506322089264E-02 
493	 8.51271052980981E-02 
494	 8.50201343053432E-02 
495	 0.085233030135405 
496	 8.55301721287635E-02 
497	 8.58379644275825E-02 
498	 0.086089117785583 
499	 8.64847539273372E-02 
500	 8.69857072575008E-02 
501	 8.73567678837958E-02 
502	 8.74237002304712E-02 
503	 8.71660077015045E-02 
504	 8.72764937711958E-02 
505	 0.087639130680613 
506	 8.78963937682635E-02 
507	 0.08815948091911 
508	 8.84604725003638E-02 
509	 8.88842936557995E-02 
510	 8.91549265522345E-02 
511	 8.90852041068885E-02 
512	 8.91121441187412E-02 
513	 8.93793157985686E-02 
514	 9.00870108289637E-02 
515	 9.05243203513559E-02 
516	 9.04906080171084E-02 
517	 9.05707458086365E-02 
518	 9.07123191736846E-02 
519	 9.08124901571972E-02 
520	 0.090934458081203 
521	 9.10885019899033E-02 
522	 9.12356220315908E-02 
523	 9.15748226339047E-02 
524	 9.21271178600722E-02 
525	 9.24158361567421E-02 
526	 9.24704277508251E-02 
527	 9.23973638849751E-02 
528	 9.27173752348223E-02 
529	 9.33536266002544E-02 
530	 9.35439957366617E-02 
531	 9.36418228518433E-02 
532	 0.093864892206708 
533	 9.38848590763835E-02 
534	 9.38818003882658E-02 
535	 9.42985322919137E-02 
536	 9.46178782923302E-02 
537	 0.094719005623762 
538	 9.48629256205007E-02 
539	 0.095099526993512 
540	 9.54433026729053E-02 
541	 9.54739517468975E-02 
542	 9.53771372257713E-02 
543	 9.58835691460264E-02 
544	 9.63590584001957E-02 
545	 0.096540705337351 
546	 9.66057149510636E-02 
547	 9.66361209850382E-02 
548	 9.67143654604763E-02 
549	 9.70535709319152E-02 
550	 9.75186567959843E-02 
551	 9.74563001228705E-02 
552	 9.74441166590333E-02 
553	 9.78084302819282E-02 
554	 9.80044739006193E-02 
555	 9.80503163350264E-02 
556	 9.80993501878912E-02 
557	 9.83688477925548E-02 
558	 9.88545506262311E-02 
559	 9.91924137798591E-02 
560	 0.099289872007188 
561	 9.91124312284492E-02 
562	 9.91115386086828E-02 
563	 9.93295687717383E-02 
564	 9.96416387383407E-02 
565	 9.98638440651131E-02 
566	 9.99042486771279E-02 
567	 9.98116268520946E-02 
568	 9.97670946823545E-02 
569	 9.99884087556511E-02 
570	 0.100344713939668 
571	 0.100680867128192 
572	 0.100629617204216 
573	 0.100553851623709 
574	 0.100667654201077 
575	 0.10071324002783 
576	 0.100781879279125 
577	 0.101114183439758 
578	 0.10121250242627 
579	 0.101082132961173 
580	 0.101522142041628 
581	 0.101886863240302 
582	 0.101631267354087 
583	 0.101622472094768 
584	 0.101830430245033 
585	 0.101730467747654 
586	 0.101747652921896 
587	 0.101998418319804 
588	 0.102092336055218 
589	 0.10214469147099 
590	 0.102347265877346 
591	 0.102405487134092 
592	 0.102311188937453 
593	 0.102250408957612 
594	 0.102307721863317 
595	 0.102524989207351 
596	 0.102786533955403 
597	 0.102959826902104 
598	 0.102849458453987 
599	 0.102806569839301 
600	 0.102862024997166 
601	 0.102587606243103 
602	 0.102423092612234 
603	 0.102729505043708 
604	 0.102806763590694 
605	 0.102772607909372 
606	 0.103342443497096 
607	 0.103544304609582 
608	 0.103084748351549 
609	 0.102736639739341 
610	 0.102734961233388 
611	 0.103262200085441 
612	 0.103383383692126 
613	 0.103053229668161 
614	 0.103025894981924 
615	 0.102875095464697 
616	 0.102453795058955 
617	 0.102731181249294 
618	 0.103217486437736 
619	 0.102814171864445 
620	 0.102845758916032 
621	 0.10342564481449 
622	 0.103226568680474 
623	 0.102983832917839 
624	 0.103356479995825 
625	 0.103524496897891 
626	 0.103449425401431 
627	 0.103431870896122 
628	 0.103444389753458 
629	 0.103475765497548 
630	 0.103431537170399 
631	 0.103404042210087 
632	 0.103513829550453 
633	 0.103483049142108 
634	 0.103352468373007 
635	 0.103495529330038 
636	 0.103565380135507 
637	 0.103409406765007 
638	 0.10354069586624 
639	 0.103886075647693 
640	 0.104233258961588 
641	 0.104075751462365 
642	 0.103563218898005 
643	 0.104092754447228 
644	 0.104774463742514 
645	 0.104806513835072 
646	 0.104895442518307 
647	 0.105031040624478 
648	 0.104838654488721 
649	 0.104671558406865 
650	 0.104693613000403 
651	 0.104956510823346 
652	 0.105099776063712 
653	 0.104704538353175 
654	 0.104415288718898 
655	 0.104315913444992 
656	 0.104164286004119 
657	 0.103821123735341 
658	 0.103263547414226 
659	 0.102802195144043 
660	 0.102547292881958 
661	 0.102625948544452 
662	 0.102587028471984 
663	 0.102344092110057 
664	 0.102219522117934 
665	 0.102000079067842 
666	 0.101517634142325 
667	 0.101012933559257 
668	 0.100618430907724 
669	 0.100542567602885 
670	 0.100399058024625 
671	 0.100128215080608 
672	 0.10025360489508 
673	 0.100616979519431 
674	 0.100976795134907 
675	 0.100762594422637 
676	 0.100183542032721 
677	 0.100267846271378 
678	 0.100549006157023 
679	 0.100775995903879 
680	 0.100990237132985 
681	 0.101227375755735 
682	 0.101537824621305 
683	 0.102074746519585 
684	 0.102789248809496 
685	 0.10337586573973 
686	 0.103860592387655 
687	 0.104254434411806 
688	 0.104692645103653 
689	 0.105121181609172 
690	 0.105389405016082 
691	 0.106001445036283 
692	 0.107041726626901 
693	 0.10811146910368 
694	 0.108679253830836 
695	 0.108260842528384 
696	 0.108260944862997 
697	 0.108709033457814 
698	 0.108812910641771 
699	 0.109049775433701 
700	 0.109562913389637 
701	 0.109786015291564 
702	 0.10992032572342 
703	 0.110330478922716 
704	 0.110575228903216 
705	 0.110581565481581 
706	 0.110412316568379 
707	 0.110506266476806 
708	 0.111074445542577 
709	 0.111308106835557 
710	 0.111265483623157 
711	 0.111275384801558 
712	 0.111278951243072 
713	 0.111370964421926 
714	 0.11199093379684 
715	 0.112534892207256 
716	 0.112466800076903 
717	 0.11267943728688 
718	 0.113171283608497 
719	 0.113189879259824 
720	 0.113134410348793 
721	 0.113128119988231 
722	 0.112830192579314 
723	 0.112853089015994 
724	 0.113920463633469 
725	 0.114297507806925 
726	 0.113931762084677 
727	 0.114246341327815 
728	 0.11432392006415 
729	 0.113875047698011 
730	 0.114152455851011 
731	 0.114584946764255 
732	 0.114230933362344 
733	 0.11396915939117 
734	 0.113928580447656 
735	 0.113727911965438 
736	 0.114059361871575 
737	 0.115174568795654 
738	 0.115045620820432 
739	 0.114215580351187 
740	 0.114238171229106 
741	 0.114119051582131 
742	 0.113800505401436 
743	 0.114235792814352 
744	 0.114685544848144 
745	 0.114536569313805 
746	 0.114470543708929 
747	 0.114501733273665 
748	 0.114322855169842 
749	 0.1144416698853 
750	 0.114915140686792 
751	 0.114968762785735 
752	 0.114986793191602 
753	 0.115403763991384 
754	 0.115363945493316 
755	 0.115095319672977 
756	 0.115842507704284 
757	 0.116057333209329 
758	 0.115228235643881 
759	 0.115724590766214 
760	 0.117260227785482 
761	 0.11650997730251 
762	 0.116988528845993 
763	 0.118471678876227 
764	 0.11812649644661 
765	 0.117532666171394 
766	 0.117290090821496 
767	 0.117103369798205 
768	 0.117049711709941 
769	 0.117278982615033 
770	 0.117102716726922 
771	 0.116641226365754 
772	 0.116967477085754 
773	 0.117396383145731 
774	 0.117467191136734 
775	 0.117455580656045 
776	 0.117455339411759 
777	 0.117582291446145 
778	 0.117499512564867 
779	 0.117330386555699 
780	 0.118074448856524 
781	 0.118586915894541 
782	 0.118050507451665 
783	 0.118120037246146 
784	 0.118594692542161 
785	 0.118462233731049 
786	 0.118257750058604 
787	 0.118150793209684 
788	 0.118058391034674 
789	 0.118231801351545 
790	 0.118847132764392 
791	 0.119115082947848 
792	 0.119023422583708 
793	 0.118894759577688 
794	 0.119053590852694 
795	 0.119486618624445 
796	 0.119330000532684 
797	 0.119148180277054 
798	 0.119533430476669 
799	 0.119919489338119 
800	 0.120200515313669 
801	 0.120410499651551 
802	 0.120565849766258 
803	 0.120619793998338 
804	 0.120293603037402 
805	 0.119896132497145 
806	 0.119770489662346 
807	 0.119727402963104 
808	 0.119794345623973 
809	 0.120224706129736 
810	 0.120301838886079 
811	 0.119846018151451 
812	 0.119973343296569 
813	 0.120507589542491 
814	 0.121055849984938 
815	 0.121009141782416 
816	 0.120702782291769 
817	 0.121861475180316 
818	 0.122545049208593 
819	 0.122128049143913 
820	 0.122277139246334 
821	 0.122379477623867 
822	 0.121616533815979 
823	 0.121997095225259 
824	 0.1232161287907 
825	 0.123309551187272 
826	 0.122487273674257 
827	 0.121079328683401 
828	 0.120834380973537 
829	 0.121243506688447 
830	 0.121457148974418 
831	 0.122232731532187 
832	 0.123235191609665 
833	 0.123316898587729 
834	 0.122587247018523 
835	 0.12137197507745 
836	 0.121057228293847 
837	 0.121482349469167 
838	 0.122273235344924 
839	 0.122327266156048 
840	 0.121887888457153 
841	 0.122467240896059 
842	 0.122927427545678 
843	 0.122681289297866 
844	 0.121291057129038 
845	 0.120123492165518 
846	 0.120676104526041 
847	 0.121173599172659 
848	 0.121417664426014 
849	 0.122078939577028 
850	 0.122247288443986 
851	 0.121829339932597 
852	 0.122746927354693 
853	 0.123333795403033 
854	 0.121817562699126 
855	 0.121287423864862 
856	 0.12177145660479 
857	 0.121684239186089 
858	 0.121732818711808 
859	 0.121992565828507 
860	 0.12176788155832 
861	 0.121729262273264 
862	 0.122464392075509 
863	 0.122673154120229 
864	 0.1222307507453 
865	 0.121280675876545 
866	 0.121713415441893 
867	 0.123565225272878 
868	 0.123572646528658 
869	 0.123300700919772 
870	 0.123956639657702 
871	 0.123065631937173 
872	 0.121714892723962 
873	 0.122733274806249 
874	 0.122974551282585 
875	 0.122218421260004 
876	 0.123835408618701 
877	 0.124664778833121 
878	 0.122830240157401 
879	 0.122562607373265 
880	 0.12347744197385 
881	 0.123964782441343 
882	 0.124132310494925 
883	 0.123946232205042 
884	 0.123444291570968 
885	 0.122812215633035 
886	 0.122306667570743 
887	 0.122761097527084 
888	 0.123257441568717 
889	 0.122500311628354 
890	 0.122250783740523 
891	 0.122688278283135 
892	 0.122871559587125 
893	 0.123722697480407 
894	 0.125325739653019 
895	 0.125433141377462 
896	 0.124962091847341 
897	 0.125232318826947 
898	 0.125144268856602 
899	 0.124969658449083 
900	 0.126018256872101 
901	 0.12588011268102 
902	 0.124372630582851 
903	 0.124547668984598 
904	 0.124389313609125 
905	 0.122631011542691 
906	 0.123571227655604 
907	 0.125357438535799 
908	 0.123497710992317 
909	 0.124596420920277 
910	 0.128571734436822 
911	 0.127515695006174 
912	 0.126006156779906 
913	 0.126503031198413 
914	 0.126047043243421 
915	 0.125389343279697 
916	 0.125738579224726 
917	 0.126727072290379 
918	 0.127740004404703 
919	 0.127594030747369 
920	 0.126353251056915 
921	 0.12456303210222 
922	 0.124835402580551 
923	 0.124513759031867 
924	 0.121525068092702 
925	 0.122084681683396 
926	 0.125833092358732 
927	 0.129700166929957 
928	 0.128316199914312 
929	 0.122206154429019 
930	 0.127301491581822 
931	 0.132174365051448 
932	 0.127428647662132 
933	 0.123463113688386 
934	 0.126101231726461 
935	 0.139715220848221 
936	 0.13611781362927 
937	 0.120710413614152 
938	 0.12753396279486 
939	 0.128056635047553 
940	 0.1186570532991 
941	 0.122954376512652 
942	 0.129353905688204 
943	 0.129096201690152 
944	 0.127612652473849 
945	 0.12682700959688 
946	 0.128638431877682 
947	 0.129817871818097 
948	 0.130148206213478 
949	 0.132656498539712 
950	 0.130994210266131 
951	 0.124419322493193 
952	 0.123275532649672 
953	 0.125439825938816 
954	 0.128112297885152 
955	 0.131087975123573 
956	 0.133598492163859 
957	 0.134974345418207 
958	 0.129803511572664 
959	 0.121604126779112 
960	 0.125810909365739 
961	 0.128836688006604 
962	 0.125728221295352 
963	 0.127148075770048 
964	 0.131483753344573 
965	 0.135833569760338 
966	 0.13142309433018 
967	 0.124408024584981 
968	 0.129538359475991 
969	 0.133705141538804 
970	 0.13304724490284 
971	 0.126706829101137 
972	 0.125091443784741 
973	 0.13146923670071 
974	 0.126406020386966 
975	 0.120745385259373 
976	 0.127447119285907 
977	 0.128333870794952 
978	 0.124751536678049 
979	 0.126871558688455 
980	 0.130201411310603 
981	 0.132526199256906 
982	 0.130196125715332 
983	 0.12912973426729 
984	 0.13127667418088 
985	 0.126261212924805 
986	 0.123494079323298 
987	 0.132484237866596 
988	 0.134089345442036 
989	 0.129487205682657 
990	 0.128170161467932 
991	 0.126500403100014 
992	 0.125678746806805 
993	 0.133089241966909 
994	 0.137477287372055 
995	 0.134284762187534 
996	 0.133374457191147 
997	 0.133164169202855 
998	 0.131348742705939 
999	 0.127268804559557 
1000	 0.124855802297481 
1001	 0.130952346858456 
1002	 0.133752499977579 
1003	 0.132062935993111 
1004	 0.133008252036649 
1005	 0.131864836666782 
1006	 0.128260191774775 
1007	 0.129280690133464 
1008	 0.132459700349805 
1009	 0.134668604407357 
1010	 0.129479123229575 
1011	 0.12388778539932 
1012	 0.128181367595795 
1013	 0.127300121293685 
1014	 0.122455210596502 
1015	 0.123917595740242 
1016	 0.131102833909939 
1017	 0.139557310342433 
1018	 0.133692651789351 
1019	 0.126556922426978 
1020	 0.126150316773712 
1021	 0.126757982875712 
1022	 0.132584055001822 
1023	 0.145030530225381 
1024	 0.134020252103298 
1025	 0.112037922476093 
1026	 0.109822465963245 
1027	 0.122671024269756 
1028	 0.138882106744918 
1029	 0.130376801525326 
1030	 0.127954587206972 
1031	 0.137476707418309 
1032	 0.133099303071647 
1033	 0.1200320446421 
1034	 0.105009415156615 
1035	 0.107684037383944 
1036	 0.119215403652191 
1037	 0.126604655591631 
1038	 0.125675334066231 
1039	 0.122139992205002 
1040	 0.127358852695269 
1041	 0.130470876443257 
1042	 0.128972843302097 
1043	 0.123731665577437 
1044	 0.116505487258867 
1045	 0.110279047346997 
1046	 0.109255847740459 
1047	 0.122343904416348 
1048	 0.14799584105986 
1049	 0.149274427196831 
1050	 0.139399009552901 
1051	 0.134769448402833 
1052	 0.126347493118239 
1053	 0.129409237153239 
1054	 0.164275957558075 
1055	 0.148333905821118 
1056	 0.105705085814231 
1057	 0.149445037045579 
1058	 0.171891767040296 
1059	 0.154892342123739 
1060	 0.14492798258852 
1061	 0.128620175380426 
1062	 0.105032514948932 
1063	 9.41768244896975E-02 
1064	 0.1083422818858 
1065	 0.146373913508505 
1066	 0.157602924851586 
1067	 0.137081904927592 
1068	 8.83733302505319E-02 
1069	 0.084220836102387 
1070	 0.1112689863008 
1071	 0.125243866818207 
1072	 0.14342752769068 
1073	 0.161434335953644 
1074	 0.169642913530534 
1075	 0.139979957282433 
