Wavelength	AVEI200339.asd
325	 0.074658805556082 
326	 7.14552015205639E-02 
327	 5.71020514440704E-02 
328	 7.02702946314446E-02 
329	 7.57691775976059E-02 
330	 0.064491636224506 
331	 0.061877417859064 
332	 6.34505449221573E-02 
333	 6.33190128135881E-02 
334	 6.33202958552426E-02 
335	 6.42208769549504E-02 
336	 6.79687520439402E-02 
337	 6.82696592210627E-02 
338	 6.51323892615306E-02 
339	 6.81543182935983E-02 
340	 7.17384278537451E-02 
341	 7.09485802013314E-02 
342	 6.54373406843498E-02 
343	 0.058735077957677 
344	 5.70854881506642E-02 
345	 5.74657628781724E-02 
346	 5.84032656894989E-02 
347	 5.75663181497992E-02 
348	 5.80572238490486E-02 
349	 0.061168415901445 
350	 5.93470472981979E-02 
351	 5.59438660027162E-02 
352	 5.74913779335529E-02 
353	 5.89116194117058E-02 
354	 5.89516118311052E-02 
355	 5.76565103694561E-02 
356	 5.74952634291111E-02 
357	 5.93695711929372E-02 
358	 5.75818666949654E-02 
359	 5.58046851475528E-02 
360	 6.05726991553086E-02 
361	 5.95971898134208E-02 
362	 5.35623631573245E-02 
363	 5.48699815434844E-02 
364	 5.65401811203864E-02 
365	 5.53614263554728E-02 
366	 5.60973404595669E-02 
367	 5.75140951001684E-02 
368	 5.74132433435948E-02 
369	 5.68610736342421E-02 
370	 5.61356339362682E-02 
371	 5.50887684585103E-02 
372	 5.55305206428937E-02 
373	 5.77737021290016E-02 
374	 5.66522955600064E-02 
375	 0.054509291761433 
376	 5.51990581250177E-02 
377	 5.61156590552665E-02 
378	 5.63223842044139E-02 
379	 0.054733735601236 
380	 5.39302084570135E-02 
381	 5.48989924381929E-02 
382	 5.45951129423888E-02 
383	 0.053762667804643 
384	 0.053766302196185 
385	 5.39403170258147E-02 
386	 5.39310104747645E-02 
387	 5.29426071735438E-02 
388	 5.33356805921234E-02 
389	 5.52524476003461E-02 
390	 0.053021609639232 
391	 5.03305613935883E-02 
392	 5.18837541012254E-02 
393	 5.30629326039404E-02 
394	 5.30837608756173E-02 
395	 0.05291255008628 
396	 0.051796760750012 
397	 4.98573569740624E-02 
398	 4.89363394661767E-02 
399	 4.84181973902843E-02 
400	 4.75407842904375E-02 
401	 4.89192948762959E-02 
402	 5.12424165986173E-02 
403	 5.03238807524172E-02 
404	 4.91857700678293E-02 
405	 4.90785197292501E-02 
406	 4.94126378350618E-02 
407	 4.95046681474118E-02 
408	 4.86133410954354E-02 
409	 4.88200900701114E-02 
410	 4.97713313852012E-02 
411	 4.89938858416739E-02 
412	 4.88318061077876E-02 
413	 0.049946813893729 
414	 4.90848303739692E-02 
415	 0.047783959088986 
416	 4.83727658666229E-02 
417	 0.048513836920787 
418	 4.80607313050821E-02 
419	 0.048342111160231 
420	 4.84112395846748E-02 
421	 4.78764016976468E-02 
422	 4.77671863094979E-02 
423	 4.79653637314198E-02 
424	 4.81352170300848E-02 
425	 4.80226473919231E-02 
426	 4.77454315073056E-02 
427	 4.79882485350149E-02 
428	 4.84110042436681E-02 
429	 0.04872750198377 
430	 4.86478566577123E-02 
431	 4.83110976493933E-02 
432	 4.80179408140165E-02 
433	 4.77671230201281E-02 
434	 4.76903600423015E-02 
435	 4.82577505008219E-02 
436	 4.85033029549464E-02 
437	 4.78771397570084E-02 
438	 4.75994282229563E-02 
439	 4.75761456395187E-02 
440	 4.72338672835511E-02 
441	 4.75397714554131E-02 
442	 4.83822435745359E-02 
443	 4.81037535780122E-02 
444	 4.76295012133472E-02 
445	 4.77368700268195E-02 
446	 4.79332701061033E-02 
447	 4.81369400951749E-02 
448	 4.83691169593514E-02 
449	 4.84204837634082E-02 
450	 4.82701655673354E-02 
451	 4.81658256256577E-02 
452	 4.82786644508509E-02 
453	 4.87362009686303E-02 
454	 4.90433716649588E-02 
455	 4.91590853088995E-02 
456	 4.93376997082818E-02 
457	 4.91940730470784E-02 
458	 4.87250476601671E-02 
459	 4.88751954715858E-02 
460	 4.89849699871271E-02 
461	 0.048219616658519 
462	 4.80139301867946E-02 
463	 4.84221498538128E-02 
464	 4.85346488270566E-02 
465	 4.87160054068191E-02 
466	 4.90244079957172E-02 
467	 0.048605486127812 
468	 4.81737665565612E-02 
469	 4.88866302067505E-02 
470	 4.91232568600397E-02 
471	 4.87402377756202E-02 
472	 4.88245346877272E-02 
473	 4.89293154880242E-02 
474	 4.88333540452365E-02 
475	 4.92009084209755E-02 
476	 4.95911794222806E-02 
477	 4.91088709560879E-02 
478	 4.84793362619229E-02 
479	 0.048095948618517 
480	 4.85586765102653E-02 
481	 4.89757923026633E-02 
482	 4.86868989410106E-02 
483	 4.89248884311353E-02 
484	 4.95525125282561E-02 
485	 4.97873479374619E-02 
486	 4.96767014288057E-02 
487	 4.92939744180964E-02 
488	 0.049022374289901 
489	 4.90286192692347E-02 
490	 4.93997772963409E-02 
491	 4.93472474162496E-02 
492	 4.90105059297951E-02 
493	 0.049239268711309 
494	 4.93329839313715E-02 
495	 4.90854098887263E-02 
496	 4.91616657114193E-02 
497	 4.94601238366126E-02 
498	 4.97694946621005E-02 
499	 5.00361979586522E-02 
500	 0.05032355634896 
501	 5.10333926018831E-02 
502	 5.12520031550599E-02 
503	 5.06235008078078E-02 
504	 5.09660721941244E-02 
505	 5.17639412657608E-02 
506	 5.17550093154184E-02 
507	 5.20153122249515E-02 
508	 0.052710297739472 
509	 5.33016780583968E-02 
510	 5.37073759339034E-02 
511	 5.39162068018799E-02 
512	 5.44797505686892E-02 
513	 5.52664127437068E-02 
514	 5.57366437574554E-02 
515	 5.62243004252337E-02 
516	 5.68831395952837E-02 
517	 5.79419609384162E-02 
518	 5.87952627057727E-02 
519	 5.88267940051961E-02 
520	 5.91275226399377E-02 
521	 0.059783793132722 
522	 6.03692439529854E-02 
523	 0.060995971678061 
524	 6.16889015141075E-02 
525	 6.23520115791782E-02 
526	 6.28945216449225E-02 
527	 6.31970012082688E-02 
528	 6.36493824600511E-02 
529	 6.42878683449829E-02 
530	 6.48894089517128E-02 
531	 6.53488699133455E-02 
532	 6.56165587698424E-02 
533	 6.58975950927193E-02 
534	 6.62308155180741E-02 
535	 6.66187939867504E-02 
536	 6.70078870608243E-02 
537	 6.74126422990172E-02 
538	 6.80025044724943E-02 
539	 6.85540141574977E-02 
540	 6.88401519945674E-02 
541	 6.88698075059171E-02 
542	 6.88243279939028E-02 
543	 6.91847673873248E-02 
544	 0.069377284080138 
545	 6.92715422660086E-02 
546	 6.96244821285978E-02 
547	 7.01739427012278E-02 
548	 7.04920302281328E-02 
549	 7.04880322915683E-02 
550	 0.070351465427997 
551	 7.08012679461724E-02 
552	 7.13585109140095E-02 
553	 7.16803460450905E-02 
554	 7.16367162552652E-02 
555	 7.14721046338414E-02 
556	 7.16908212518336E-02 
557	 7.17099055308096E-02 
558	 7.14615592542847E-02 
559	 7.15246856151239E-02 
560	 7.16218069176046E-02 
561	 0.071494358328202 
562	 7.14963270032331E-02 
563	 7.15981533099292E-02 
564	 7.15924993082042E-02 
565	 7.13895902963344E-02 
566	 7.09912332939312E-02 
567	 7.06909018206352E-02 
568	 7.04958625243731E-02 
569	 0.070373659291196 
570	 7.02759826011107E-02 
571	 7.01606200706066E-02 
572	 7.00032991569873E-02 
573	 6.96067985812171E-02 
574	 6.89472323329762E-02 
575	 6.88665114995798E-02 
576	 6.91217617122206E-02 
577	 6.90596720466606E-02 
578	 6.89479945402624E-02 
579	 6.88052335383163E-02 
580	 6.84251878249607E-02 
581	 6.80216619419981E-02 
582	 6.78110291248019E-02 
583	 6.80501289415443E-02 
584	 6.84235713869975E-02 
585	 6.80107872596457E-02 
586	 6.76371884253644E-02 
587	 6.75879361381017E-02 
588	 6.73899369601044E-02 
589	 6.72524179447616E-02 
590	 6.74884020382742E-02 
591	 6.70051218033875E-02 
592	 6.60790859032841E-02 
593	 6.64704279251174E-02 
594	 6.67080297104705E-02 
595	 6.60586767668652E-02 
596	 6.60175186491749E-02 
597	 6.63473757550279E-02 
598	 6.62940151330471E-02 
599	 6.61964665563823E-02 
600	 6.61511137231905E-02 
601	 6.62177500868597E-02 
602	 6.61246668640006E-02 
603	 0.065686859644289 
604	 6.57169172410484E-02 
605	 6.60732798658053E-02 
606	 6.60821781778837E-02 
607	 6.57398804309436E-02 
608	 6.51361892466562E-02 
609	 0.064932488662899 
610	 6.50441798399053E-02 
611	 6.52695561580841E-02 
612	 6.49673848720892E-02 
613	 6.42598526170661E-02 
614	 6.41149354819408E-02 
615	 0.064160964284267 
616	 6.41636865117101E-02 
617	 6.41561693533757E-02 
618	 6.40476844861497E-02 
619	 6.36866346606448E-02 
620	 0.063335027281511 
621	 6.31510746498011E-02 
622	 6.34350654795743E-02 
623	 6.36000448216234E-02 
624	 6.31429312154782E-02 
625	 6.27704568986889E-02 
626	 6.25732922982425E-02 
627	 6.23654563254794E-02 
628	 6.23997428727427E-02 
629	 6.26711993928083E-02 
630	 6.25397753820806E-02 
631	 6.23376948489311E-02 
632	 6.25378888614065E-02 
633	 6.26859978074095E-02 
634	 6.26076461102046E-02 
635	 6.20874484167416E-02 
636	 6.17315159155186E-02 
637	 6.18057351437404E-02 
638	 6.12359651171798E-02 
639	 6.04804179830961E-02 
640	 6.06464638768785E-02 
641	 6.02917934630731E-02 
642	 5.92797391318698E-02 
643	 5.90510109209727E-02 
644	 5.89254404013413E-02 
645	 5.82852702608761E-02 
646	 5.76849720485657E-02 
647	 5.72550179855673E-02 
648	 0.057108279925383 
649	 0.056792867900076 
650	 0.056188321931235 
651	 5.57110397299361E-02 
652	 5.55883307642792E-02 
653	 5.60266636667675E-02 
654	 5.61703855002503E-02 
655	 5.58545696708869E-02 
656	 5.53817137398918E-02 
657	 5.49549476104403E-02 
658	 0.054730145973696 
659	 5.46996307725078E-02 
660	 5.46200011235086E-02 
661	 5.41153715764396E-02 
662	 5.36291930042269E-02 
663	 5.33364946377266E-02 
664	 5.33732586109432E-02 
665	 5.33342358392736E-02 
666	 5.28843576190586E-02 
667	 5.22353090785366E-02 
668	 5.16708701134931E-02 
669	 5.17733497614993E-02 
670	 5.18779208620576E-02 
671	 5.17072169097193E-02 
672	 5.12064394127592E-02 
673	 5.09438017430911E-02 
674	 5.15361696031735E-02 
675	 0.051740722754577 
676	 5.15288978813069E-02 
677	 5.17093310227422E-02 
678	 5.21461777979373E-02 
679	 0.052695731487723 
680	 5.27499354972818E-02 
681	 5.27654873169409E-02 
682	 5.35709402272449E-02 
683	 5.44518364434002E-02 
684	 5.52974285800411E-02 
685	 5.65647420095355E-02 
686	 5.80125115548145E-02 
687	 5.94117826964893E-02 
688	 6.10784684722822E-02 
689	 6.29029529846867E-02 
690	 6.49194861512348E-02 
691	 6.66242080703312E-02 
692	 6.80976228145876E-02 
693	 7.02190626607229E-02 
694	 7.29967153742784E-02 
695	 7.62094227919375E-02 
696	 7.85865449133008E-02 
697	 8.05035238425209E-02 
698	 8.38366609635822E-02 
699	 8.71254976215351E-02 
700	 0.089722921312423 
701	 0.092602533592603 
702	 9.55308717182833E-02 
703	 9.80777056576066E-02 
704	 0.100564211747925 
705	 0.103157346607118 
706	 0.10613780395111 
707	 0.108575919702836 
708	 0.110031827518077 
709	 0.11241125417967 
710	 0.11520904664715 
711	 0.117007520551953 
712	 0.118603992996855 
713	 0.120254788363338 
714	 0.12201695143877 
715	 0.123876682744169 
716	 0.125900863090716 
717	 0.127813781579951 
718	 0.129557963052885 
719	 0.130914677479331 
720	 0.132283814341127 
721	 0.133686250658438 
722	 0.134788077356362 
723	 0.135737855140228 
724	 0.136601776533216 
725	 0.137422959189054 
726	 0.138300505262596 
727	 0.139694920566346 
728	 0.140915377443874 
729	 0.141634584952543 
730	 0.14236226922092 
731	 0.143032947128607 
732	 0.143471339903779 
733	 0.144177805721263 
734	 0.14501270096427 
735	 0.144998954404402 
736	 0.145151399586711 
737	 0.146067833756819 
738	 0.146699171333112 
739	 0.147010581390318 
740	 0.147176007784231 
741	 0.147899556664251 
742	 0.149065969121224 
743	 0.149192227008236 
744	 0.149107529764474 
745	 0.14952458956694 
746	 0.149698526783828 
747	 0.149782004050692 
748	 0.150472912141164 
749	 0.150921124286654 
750	 0.150920662660093 
751	 0.151142289220105 
752	 0.151560894534202 
753	 0.15208094523222 
754	 0.152334918840075 
755	 0.152326615535397 
756	 0.152312179929202 
757	 0.15223845011298 
758	 0.152166328147173 
759	 0.152652147335168 
760	 0.15420009872742 
761	 0.156254684401295 
762	 0.156880928860385 
763	 0.156431216805616 
764	 0.156962917448793 
765	 0.156982675954516 
766	 0.156256313373716 
767	 0.156133990402072 
768	 0.156237033293167 
769	 0.156036540759797 
770	 0.156106027353643 
771	 0.156481123950229 
772	 0.156770246253918 
773	 0.157118779038398 
774	 0.157586384772858 
775	 0.157851307481583 
776	 0.157993469921099 
777	 0.158239868413606 
778	 0.158528731695066 
779	 0.158808434089927 
780	 0.158893705731719 
781	 0.15910060669158 
782	 0.159638872093478 
783	 0.159921576199935 
784	 0.160000074695962 
785	 0.160204520806884 
786	 0.160358850749851 
787	 0.16038950681424 
788	 0.160164209455046 
789	 0.160065664320203 
790	 0.160447108847564 
791	 0.161029114141545 
792	 0.161627747332824 
793	 0.162003764319629 
794	 0.162076619825517 
795	 0.161952784253418 
796	 0.162293475808533 
797	 0.162897392467767 
798	 0.163471229138686 
799	 0.16321351594211 
800	 0.162491834959258 
801	 0.162761301158244 
802	 0.162883580867735 
803	 0.16260048611961 
804	 0.162912648967721 
805	 0.163664540592909 
806	 0.164573838362455 
807	 0.165102940563166 
808	 0.165042707418732 
809	 0.163985762793405 
810	 0.163920533661831 
811	 0.165440815049114 
812	 0.165930280917743 
813	 0.165786068586892 
814	 0.165842486493439 
815	 0.166705883137696 
816	 0.167978293376946 
817	 0.167828003032757 
818	 0.167636847025293 
819	 0.167930664378347 
820	 0.16791132911852 
821	 0.167718579300379 
822	 0.167615596229937 
823	 0.169385002802569 
824	 0.171767151048598 
825	 0.170361370448883 
826	 0.168961790623835 
827	 0.169069839445101 
828	 0.169354413812571 
829	 0.169801575124992 
830	 0.170466843202093 
831	 0.170214430110239 
832	 0.169559645963259 
833	 0.170776396869728 
834	 0.17153472919117 
835	 0.171029205298561 
836	 0.170867062570788 
837	 0.171066268269673 
838	 0.171472594153272 
839	 0.171406451486003 
840	 0.171166178760185 
841	 0.172183254071629 
842	 0.172477335667067 
843	 0.171535819693201 
844	 0.171756477084117 
845	 0.172313737259217 
846	 0.172105204536876 
847	 0.172486149944654 
848	 0.173147150161474 
849	 0.172238722861936 
850	 0.172422064543109 
851	 0.174294287351646 
852	 0.174461715401439 
853	 0.173796404348775 
854	 0.1735627873953 
855	 0.173829632737712 
856	 0.17430180782897 
857	 0.174052215145928 
858	 0.174361791972551 
859	 0.175337281336031 
860	 0.175268405323411 
861	 0.17462062812136 
862	 0.174045250397602 
863	 0.175022093777662 
864	 0.176701139952763 
865	 0.176360363960042 
866	 0.176519311642791 
867	 0.177559336660055 
868	 0.17710078929772 
869	 0.176602737889985 
870	 0.177172413119574 
871	 0.17670196747026 
872	 0.175905154850168 
873	 0.176739248389362 
874	 0.177706886886074 
875	 0.178295771439095 
876	 0.178477574496353 
877	 0.178420100191103 
878	 0.178302796820942 
879	 0.178452298826581 
880	 0.178695991590391 
881	 0.178662782279361 
882	 0.178835035793716 
883	 0.179442388666596 
884	 0.180905804382246 
885	 0.181773394974696 
886	 0.181373223476169 
887	 0.181296933381907 
888	 0.181627246452851 
889	 0.182198172868716 
890	 0.181827705046453 
891	 0.180926997219229 
892	 0.181761687503248 
893	 0.182418758827295 
894	 0.182117454186766 
895	 0.181879969188465 
896	 0.182548096902393 
897	 0.184801460030965 
898	 0.185367780342258 
899	 0.184219735849216 
900	 0.183194074595987 
901	 0.183083685250233 
902	 0.183829715463116 
903	 0.183311042539759 
904	 0.183489750234043 
905	 0.185560362013993 
906	 0.185491209533059 
907	 0.184548429466847 
908	 0.186124925969034 
909	 0.185993883631179 
910	 0.184051008576063 
911	 0.184493158740534 
912	 0.186312187776311 
913	 0.188317206629355 
914	 0.187005853523952 
915	 0.185063544972215 
916	 0.186110326916903 
917	 0.186316946046798 
918	 0.185508784354325 
919	 0.185255559056066 
920	 0.185645601673199 
921	 0.186565075709862 
922	 0.187239694226164 
923	 0.187202677884068 
924	 0.186097072820693 
925	 0.184519884093194 
926	 0.183033788125374 
927	 0.182485903345744 
928	 0.183296607450264 
929	 0.184988273784917 
930	 0.184071975402606 
931	 0.183449354945904 
932	 0.185338870711317 
933	 0.18605760803532 
934	 0.186455480572009 
935	 0.188538438537369 
936	 0.189631390456746 
937	 0.188166706003208 
938	 0.181639006619363 
939	 0.177979618662858 
940	 0.179451838251989 
941	 0.183382039940733 
942	 0.186279578125786 
943	 0.185749455390167 
944	 0.182665537163455 
945	 0.180116010118001 
946	 0.182811328811112 
947	 0.181386833431233 
948	 0.176034890307756 
949	 0.174980707570241 
950	 0.177209003313942 
951	 0.180966023816979 
952	 0.180439996193553 
953	 0.176676096619456 
954	 0.171554048300845 
955	 0.17002340598108 
956	 0.170565074025191 
957	 0.168609870851643 
958	 0.170447870435464 
959	 0.174882526233253 
960	 0.173148800992688 
961	 0.171762545307432 
962	 0.17305800478934 
963	 0.171613507173325 
964	 0.168427553899755 
965	 0.165125403735874 
966	 0.164189677111898 
967	 0.16565874248755 
968	 0.168850052262751 
969	 0.170192871998293 
970	 0.168912045613496 
971	 0.165779079633285 
972	 0.166399557651304 
973	 0.172082797813511 
974	 0.170588052214176 
975	 0.165180544973172 
976	 0.161310682043786 
977	 0.165558329515103 
978	 0.172834240464171 
979	 0.169579976461763 
980	 0.165285466521219 
981	 0.163861184067645 
982	 0.16884079239733 
983	 0.172799285235649 
984	 0.172322251234649 
985	 0.175195612876455 
986	 0.175624237896735 
987	 0.167874501552146 
988	 0.168238184007745 
989	 0.173145097901565 
990	 0.16926569888881 
991	 0.167371658524389 
992	 0.1698052661668 
993	 0.17457623200151 
994	 0.173823241772672 
995	 0.166066333150241 
996	 0.167700133619733 
997	 0.1720172795212 
998	 0.171522462071273 
999	 0.171856160078888 
1000	 0.172767254290986 
1001	 0.172359012047003 
1002	 0.172130871244975 
1003	 0.173078523089918 
1004	 0.177224947054171 
1005	 0.180013060232378 
1006	 0.179615887554131 
1007	 0.177873610142792 
1008	 0.17586239255071 
1009	 0.174813104934964 
1010	 0.176260279431508 
1011	 0.180674256675557 
1012	 0.187883949034021 
1013	 0.189286987632491 
1014	 0.184963582491223 
1015	 0.179577529433112 
1016	 0.180862206782282 
1017	 0.18801391945526 
1018	 0.185938763830423 
1019	 0.180903077905678 
1020	 0.177912203205656 
1021	 0.183436177648836 
1022	 0.189051701367179 
1023	 0.186580651246009 
1024	 0.18783707353716 
1025	 0.18711620078989 
1026	 0.172496475240496 
1027	 0.171453210230833 
1028	 0.183978480217163 
1029	 0.188767283625524 
1030	 0.190348789092619 
1031	 0.191412817272706 
1032	 0.200927161758328 
1033	 0.202449927937044 
1034	 0.188678532542275 
1035	 0.185393755715794 
1036	 0.183821838501742 
1037	 0.17392807283879 
1038	 0.186797538103218 
1039	 0.208040686732961 
1040	 0.205064625277269 
1041	 0.196489339158725 
1042	 0.188992950357313 
1043	 0.188406504777352 
1044	 0.190452888001237 
1045	 0.193541962399584 
1046	 0.199346484780404 
1047	 0.201851383642186 
1048	 0.197061272723642 
1049	 0.185294811113947 
1050	 0.186420125587563 
1051	 0.213796203765017 
1052	 0.206292475593033 
1053	 0.176091650107286 
1054	 0.158956116353589 
1055	 0.176382657283197 
1056	 0.211763250409031 
1057	 0.223977003323738 
1058	 0.211208247937139 
1059	 0.181866641395894 
1060	 0.175005906144071 
1061	 0.17630840665024 
1062	 0.180848889525985 
1063	 0.201501737189849 
1064	 0.20322906480853 
1065	 0.169137191933631 
1066	 0.175941330056664 
1067	 0.212611186917825 
1068	 0.247575097412418 
1069	 0.239047296629676 
1070	 0.212502853107948 
1071	 0.222542903188903 
1072	 0.205969405132995 
1073	 0.174261467966198 
1074	 0.201694365861441 
1075	 0.22505760000786 
