Wavelength	AVEI200102.asd
325	 3.99351257706119E-02 
326	 3.91855151440783E-02 
327	 3.64632771855378E-02 
328	 3.15841166106022E-02 
329	 3.28413300693209E-02 
330	 4.02557096575573E-02 
331	 3.92091183536253E-02 
332	 3.37852696521834E-02 
333	 2.90606152168881E-02 
334	 3.02047174757345E-02 
335	 3.39975015911758E-02 
336	 3.09178679809612E-02 
337	 0.028131078089787 
338	 0.028214743351816 
339	 3.20211518372296E-02 
340	 3.57731128408211E-02 
341	 3.65790013496054E-02 
342	 3.58742784832664E-02 
343	 3.47611274991845E-02 
344	 3.49618850849664E-02 
345	 3.33829128271236E-02 
346	 3.05854765629838E-02 
347	 3.15253470337356E-02 
348	 0.033753583764783 
349	 3.50784532010281E-02 
350	 0.03255817324627 
351	 2.89220912149124E-02 
352	 2.87999804682607E-02 
353	 3.01810042836245E-02 
354	 3.18802292483876E-02 
355	 3.16804117287674E-02 
356	 3.10504256597889E-02 
357	 3.10632028533303E-02 
358	 3.28200526221051E-02 
359	 3.39714051568746E-02 
360	 3.09468135386718E-02 
361	 2.88508952337081E-02 
362	 2.87819306614468E-02 
363	 2.94994547964704E-02 
364	 3.10421979229741E-02 
365	 3.28904636019876E-02 
366	 3.22554620545304E-02 
367	 3.05803739731098E-02 
368	 3.01010838342703E-02 
369	 2.97717656901778E-02 
370	 2.96142125030659E-02 
371	 3.03797153894246E-02 
372	 3.11732905976701E-02 
373	 3.12871269055653E-02 
374	 2.95222769678182E-02 
375	 2.78227432431551E-02 
376	 2.88829673247186E-02 
377	 0.029430215145637 
378	 2.89545010739252E-02 
379	 2.85348966340433E-02 
380	 2.81600517362117E-02 
381	 0.028084814491636 
382	 2.96610056498525E-02 
383	 0.031407915953754 
384	 3.13226827779955E-02 
385	 2.97680711823154E-02 
386	 2.77595981263407E-02 
387	 2.79336760648322E-02 
388	 2.86198573706211E-02 
389	 2.89146947107342E-02 
390	 2.86896066135635E-02 
391	 2.80620019625977E-02 
392	 2.72259107116634E-02 
393	 2.86711382084402E-02 
394	 3.09737570121699E-02 
395	 2.84984347575933E-02 
396	 2.73294803604747E-02 
397	 2.92424161191779E-02 
398	 2.86169951746136E-02 
399	 2.74038442287345E-02 
400	 2.79968665647959E-02 
401	 2.84540500501048E-02 
402	 2.83341843717318E-02 
403	 2.72031493293175E-02 
404	 2.71781902985968E-02 
405	 2.86251165833059E-02 
406	 2.81086766436733E-02 
407	 0.026872329777161 
408	 2.67903762801248E-02 
409	 2.73395755133163E-02 
410	 2.79021997098447E-02 
411	 2.69978246998847E-02 
412	 2.62118046178144E-02 
413	 2.63117798993054E-02 
414	 2.69806607172161E-02 
415	 0.027461409675696 
416	 2.68680752754526E-02 
417	 2.66304232586288E-02 
418	 2.68676096458455E-02 
419	 2.67797754422061E-02 
420	 2.69087521747504E-02 
421	 0.02741142606594 
422	 2.72407358760578E-02 
423	 2.69219962338311E-02 
424	 2.73864545848698E-02 
425	 2.73462158275772E-02 
426	 2.68025802524922E-02 
427	 2.69330120677786E-02 
428	 2.73076888954688E-02 
429	 2.75769194318123E-02 
430	 2.73670429133092E-02 
431	 0.02693713009808 
432	 0.026795809710446 
433	 2.68606595985066E-02 
434	 2.69565355081937E-02 
435	 2.64852117609469E-02 
436	 2.61836826310979E-02 
437	 2.64969173219623E-02 
438	 2.67770144607826E-02 
439	 2.69028967658536E-02 
440	 2.68478124304629E-02 
441	 2.66397160593747E-02 
442	 2.64209322959997E-02 
443	 2.67107467595713E-02 
444	 2.69253871443989E-02 
445	 0.026635736326995 
446	 2.66911312353713E-02 
447	 2.69877018488182E-02 
448	 2.69752652048631E-02 
449	 2.70284113606515E-02 
450	 2.71813717455453E-02 
451	 2.69956594860269E-02 
452	 2.68050636740069E-02 
453	 2.69497565776702E-02 
454	 2.71778771209183E-02 
455	 2.72988511155255E-02 
456	 2.68928750532063E-02 
457	 2.67522931406142E-02 
458	 2.71054470806751E-02 
459	 2.71308747070482E-02 
460	 2.70429174281104E-02 
461	 2.71692291353246E-02 
462	 2.71636547134243E-02 
463	 2.70338737307141E-02 
464	 2.70643369252742E-02 
465	 2.69665324588775E-02 
466	 2.66551694178714E-02 
467	 2.66187745585345E-02 
468	 2.67163271290528E-02 
469	 2.66532035335938E-02 
470	 0.02692715706119 
471	 2.74065680594349E-02 
472	 2.71997686931331E-02 
473	 2.69629522760975E-02 
474	 2.70955238509564E-02 
475	 2.72135349775862E-02 
476	 2.71346461209572E-02 
477	 2.65873962606052E-02 
478	 2.66709840942026E-02 
479	 2.73680360896725E-02 
480	 2.71697659422696E-02 
481	 2.67338543801989E-02 
482	 2.66541851577909E-02 
483	 2.70767273702605E-02 
484	 2.76027690620014E-02 
485	 2.71600871160777E-02 
486	 2.70867187218394E-02 
487	 2.76539116465558E-02 
488	 2.75004811730863E-02 
489	 0.027226729638004 
490	 2.74992427713791E-02 
491	 2.74673720631739E-02 
492	 0.027158712645445 
493	 2.70404729903038E-02 
494	 0.027162471436887 
495	 2.75028357225875E-02 
496	 2.77186182220897E-02 
497	 2.77749436733454E-02 
498	 2.76791525168203E-02 
499	 2.77321295812155E-02 
500	 2.79706592439616E-02 
501	 2.82319180988669E-02 
502	 2.84117784163143E-02 
503	 0.028453313840686 
504	 2.84231461459895E-02 
505	 2.86013084615092E-02 
506	 2.94624767889739E-02 
507	 2.97605013810657E-02 
508	 2.94121543707969E-02 
509	 2.96124154337271E-02 
510	 3.00931422621158E-02 
511	 3.06019806447243E-02 
512	 3.11191950719527E-02 
513	 3.14855571243047E-02 
514	 3.13099770447457E-02 
515	 3.14471220644644E-02 
516	 3.21159420139302E-02 
517	 0.032585627565657 
518	 3.28894595600257E-02 
519	 3.31263498319839E-02 
520	 3.33307853144963E-02 
521	 3.36980131591276E-02 
522	 0.034793177327087 
523	 3.54840649291378E-02 
524	 3.54033786001274E-02 
525	 3.58967600059193E-02 
526	 3.66254702808534E-02 
527	 3.69071943679631E-02 
528	 3.71945989020307E-02 
529	 3.75487752102391E-02 
530	 3.77512728415773E-02 
531	 0.038141894742352 
532	 3.88719437146624E-02 
533	 3.91324258747874E-02 
534	 3.90930345220096E-02 
535	 3.93169021762794E-02 
536	 3.95784508429907E-02 
537	 0.039809955700065 
538	 3.99654243589384E-02 
539	 4.01389877320499E-02 
540	 4.04208324783644E-02 
541	 0.040765840719247 
542	 0.041070812228801 
543	 4.10767895469322E-02 
544	 4.12047556560393E-02 
545	 4.15698701492795E-02 
546	 4.16636623085526E-02 
547	 4.16795446970204E-02 
548	 4.19258974883739E-02 
549	 4.20977626318397E-02 
550	 4.21810752844022E-02 
551	 4.23958734825743E-02 
552	 4.25684401788656E-02 
553	 4.26225623375116E-02 
554	 4.29192679815575E-02 
555	 4.32599567849346E-02 
556	 4.31910294401614E-02 
557	 4.30965922292564E-02 
558	 0.043061271116301 
559	 4.28604078743364E-02 
560	 4.26927993866424E-02 
561	 4.27422023848408E-02 
562	 4.28778366581762E-02 
563	 4.29841528624183E-02 
564	 4.28249447137017E-02 
565	 4.27550063534122E-02 
566	 4.28455665589652E-02 
567	 4.25690910614551E-02 
568	 4.21826153523906E-02 
569	 4.20696653209316E-02 
570	 4.18239445785617E-02 
571	 4.14762402818958E-02 
572	 4.14541858789147E-02 
573	 4.14647216892021E-02 
574	 4.13524996478996E-02 
575	 4.14948671381222E-02 
576	 4.15297465776118E-02 
577	 4.06814670776272E-02 
578	 4.02694918171895E-02 
579	 4.05416785571381E-02 
580	 4.05464918932874E-02 
581	 4.04181586136122E-02 
582	 4.03013975501834E-02 
583	 4.00991474341758E-02 
584	 3.99122841222368E-02 
585	 4.00339998763581E-02 
586	 4.01341775837695E-02 
587	 4.00893225420426E-02 
588	 4.00631209185979E-02 
589	 4.00487173069472E-02 
590	 4.00196994174033E-02 
591	 3.98207495487165E-02 
592	 3.95367255975208E-02 
593	 3.95299126028961E-02 
594	 0.039625208678135 
595	 3.96709299452423E-02 
596	 3.93316079403282E-02 
597	 3.88886426808087E-02 
598	 3.88877330255459E-02 
599	 3.91291653076041E-02 
600	 3.94228028080868E-02 
601	 3.92482910519935E-02 
602	 3.89215244845369E-02 
603	 3.87589549785816E-02 
604	 3.88624215290633E-02 
605	 3.91060296452573E-02 
606	 3.91414801516705E-02 
607	 3.90854675425028E-02 
608	 3.89511697762962E-02 
609	 3.86003926853234E-02 
610	 3.82707891553366E-02 
611	 3.82644865972105E-02 
612	 3.80985993105286E-02 
613	 3.77531364963117E-02 
614	 3.75630936309764E-02 
615	 3.74603858713486E-02 
616	 3.74222835222807E-02 
617	 0.037607411785415 
618	 0.037761380412284 
619	 3.74214512830984E-02 
620	 3.71095447956339E-02 
621	 3.69695934649265E-02 
622	 3.68768151357188E-02 
623	 3.67304821635288E-02 
624	 0.036478760724276 
625	 3.66587086134708E-02 
626	 3.71063707200277E-02 
627	 3.71760487569436E-02 
628	 3.70662337050228E-02 
629	 3.68707045004087E-02 
630	 3.67199279435188E-02 
631	 0.036704998146491 
632	 3.69095021135198E-02 
633	 3.70470713970698E-02 
634	 3.71017503543453E-02 
635	 3.73893445098816E-02 
636	 3.72196665991872E-02 
637	 0.036315482619031 
638	 3.59443427131119E-02 
639	 0.035998084926865 
640	 3.59803287093462E-02 
641	 3.58090823447781E-02 
642	 0.035480736993662 
643	 3.52435019592444E-02 
644	 3.49333955555475E-02 
645	 3.44220698558564E-02 
646	 3.41111315898291E-02 
647	 3.40049515894899E-02 
648	 3.39482729645504E-02 
649	 3.36359990578474E-02 
650	 3.30866894437852E-02 
651	 3.31928652412023E-02 
652	 3.35400812832768E-02 
653	 3.35507475099094E-02 
654	 3.30866270543537E-02 
655	 3.24446522236339E-02 
656	 3.28837409989312E-02 
657	 3.33605300499697E-02 
658	 3.32078898820953E-02 
659	 3.26348843777446E-02 
660	 3.20225414219315E-02 
661	 3.19101101438486E-02 
662	 3.19173536177926E-02 
663	 3.18940988510919E-02 
664	 3.17160871366023E-02 
665	 3.14568585058253E-02 
666	 3.11942607549063E-02 
667	 3.10498119048188E-02 
668	 3.09386278861595E-02 
669	 3.05240097990697E-02 
670	 3.05080763045028E-02 
671	 3.09385988477695E-02 
672	 3.04837162489166E-02 
673	 2.99638977047465E-02 
674	 3.04079400376092E-02 
675	 3.06129166244472E-02 
676	 3.04869821060892E-02 
677	 3.05767551380601E-02 
678	 3.09032637005414E-02 
679	 3.14096731631234E-02 
680	 0.03151302053439 
681	 3.14736238050058E-02 
682	 3.18132107521957E-02 
683	 3.22095691642212E-02 
684	 3.26438094272609E-02 
685	 3.33909351468306E-02 
686	 3.43319291462262E-02 
687	 3.53395852628651E-02 
688	 3.62926456545145E-02 
689	 3.72702583445792E-02 
690	 3.86679156198562E-02 
691	 4.02782208084083E-02 
692	 4.20195047160054E-02 
693	 0.043546669536277 
694	 4.54071848305575E-02 
695	 4.80458564237969E-02 
696	 0.050187799361905 
697	 0.051935201490709 
698	 5.43396470800298E-02 
699	 5.70908035271245E-02 
700	 5.99552322476126E-02 
701	 6.25211646119017E-02 
702	 6.50198908766985E-02 
703	 6.78533922746286E-02 
704	 7.05230941283305E-02 
705	 7.30075520746957E-02 
706	 7.55586637024407E-02 
707	 7.80344953009271E-02 
708	 8.03846595544393E-02 
709	 8.30236112998728E-02 
710	 8.57961830273861E-02 
711	 8.83573311542054E-02 
712	 9.06625138268486E-02 
713	 0.092721136056866 
714	 9.47452532012178E-02 
715	 0.096791852844237 
716	 9.89999208543491E-02 
717	 0.100895579685421 
718	 0.10268020887919 
719	 0.105033109449025 
720	 0.107175285155289 
721	 0.108746032028618 
722	 0.11010622225893 
723	 0.111649959819883 
724	 0.113669236006805 
725	 0.115080130485678 
726	 0.11579617198074 
727	 0.11677623040941 
728	 0.117999481976885 
729	 0.119427842537535 
730	 0.120726263062901 
731	 0.121729640800206 
732	 0.122288770128167 
733	 0.123078599971187 
734	 0.124128982184493 
735	 0.124882909490837 
736	 0.125662549904462 
737	 0.126615737638662 
738	 0.127337899879187 
739	 0.127939218515466 
740	 0.128754961232261 
741	 0.12916100051709 
742	 0.12920375478725 
743	 0.129871453722926 
744	 0.130751917975451 
745	 0.131459957554457 
746	 0.131927553317051 
747	 0.132280408332324 
748	 0.13289892828735 
749	 0.133373117901402 
750	 0.133586078797331 
751	 0.133727837938928 
752	 0.13403622617944 
753	 0.134715765350963 
754	 0.135041550822849 
755	 0.135141230622487 
756	 0.135890637319515 
757	 0.136342339888862 
758	 0.136178675822473 
759	 0.136468765817123 
760	 0.137485613088281 
761	 0.138512375554284 
762	 0.138471362709311 
763	 0.137953379805677 
764	 0.138731067848925 
765	 0.139434599228608 
766	 0.139631329967561 
767	 0.139828262567968 
768	 0.140183715201371 
769	 0.140854641029129 
770	 0.141470474839743 
771	 0.141858726591368 
772	 0.141793703916164 
773	 0.14172269707329 
774	 0.141959197442073 
775	 0.142351777349952 
776	 0.142857863442654 
777	 0.143468525974826 
778	 0.143814944697903 
779	 0.14385100146806 
780	 0.143944463218108 
781	 0.144036541896292 
782	 0.144134072892169 
783	 0.144915533003039 
784	 0.14587032878484 
785	 0.145686808403974 
786	 0.145610656811822 
787	 0.145955396749457 
788	 0.146057115557539 
789	 0.146113149124238 
790	 0.146361052798303 
791	 0.147170845456172 
792	 0.148084729262424 
793	 0.147845581040527 
794	 0.14761731750385 
795	 0.147788098246995 
796	 0.147982993358869 
797	 0.148241131593589 
798	 0.148609380077522 
799	 0.148944978494606 
800	 0.149213903583547 
801	 0.14941219846988 
802	 0.149564025898127 
803	 0.149691142851156 
804	 0.149803794987794 
805	 0.150019387318807 
806	 0.150448563480805 
807	 0.150765873710807 
808	 0.151046737175845 
809	 0.151779190347579 
810	 0.152202258411483 
811	 0.152033098194098 
812	 0.151834114790199 
813	 0.151872548655292 
814	 0.152438703153229 
815	 0.153407466717573 
816	 0.154420956743076 
817	 0.15460016919964 
818	 0.154710430822893 
819	 0.155077098672751 
820	 0.155416850302108 
821	 0.155635046504907 
822	 0.15565185026564 
823	 0.156068039308522 
824	 0.156932219438771 
825	 0.158145885843259 
826	 0.158669842700908 
827	 0.158182947556232 
828	 0.157571837948747 
829	 0.157671171890393 
830	 0.159280133999174 
831	 0.159999579391664 
832	 0.15982406761846 
833	 0.16044898064505 
834	 0.160921080942179 
835	 0.160912524905939 
836	 0.16079293198188 
837	 0.161036478137452 
838	 0.162090545893602 
839	 0.162767854370025 
840	 0.162926564807336 
841	 0.162954526092295 
842	 0.163050069021497 
843	 0.163257464305802 
844	 0.163113080183329 
845	 0.162975716466021 
846	 0.163273263137656 
847	 0.163626508722597 
848	 0.163975174316722 
849	 0.16443719082455 
850	 0.164635342834215 
851	 0.16451292468401 
852	 0.164759100167656 
853	 0.165034067329577 
854	 0.164969365208522 
855	 0.165691461036784 
856	 0.166645481719386 
857	 0.16588254235376 
858	 0.165438725619853 
859	 0.165858128623593 
860	 0.166002624937305 
861	 0.166218635161811 
862	 0.166808291793799 
863	 0.166430443815834 
864	 0.165881614127422 
865	 0.167773241050631 
866	 0.168191243134805 
867	 0.166668783924694 
868	 0.167657025358718 
869	 0.169396520881524 
870	 0.17029264068763 
871	 0.170996142012475 
872	 0.17136174593001 
873	 0.170909559476709 
874	 0.171271600815757 
875	 0.172502889083209 
876	 0.172541689016193 
877	 0.1725136064419 
878	 0.173185788551798 
879	 0.173697431568917 
880	 0.174236152299391 
881	 0.175294910850873 
882	 0.175889865659694 
883	 0.176065493669588 
884	 0.177116089402699 
885	 0.177489514890463 
886	 0.176756514990834 
887	 0.178292781596294 
888	 0.180743084366647 
889	 0.181820647074782 
890	 0.181014478859032 
891	 0.179159797419473 
892	 0.179172762125929 
893	 0.180616689095576 
894	 0.182685598772157 
895	 0.18122480561455 
896	 0.179224800718882 
897	 0.180692264783009 
898	 0.182395525534646 
899	 0.183455752619213 
900	 0.183582921112419 
901	 0.183353753870244 
902	 0.183217400296611 
903	 0.184081778470205 
904	 0.184424430939991 
905	 0.183302714794292 
906	 0.183652449630775 
907	 0.184903231379938 
908	 0.185294517233004 
909	 0.184884634659647 
910	 0.183896194589679 
911	 0.183210851182787 
912	 0.183125398250621 
913	 0.183784353450349 
914	 0.184701907985259 
915	 0.185976191358906 
916	 0.187700021175717 
917	 0.187157466586256 
918	 0.185458618926751 
919	 0.187141283829164 
920	 0.188171820853111 
921	 0.187393908016616 
922	 0.186582560773236 
923	 0.18576149843906 
924	 0.184862511290584 
925	 0.183591239237703 
926	 0.182417808251388 
927	 0.182544069022025 
928	 0.181361605866724 
929	 0.178801315839913 
930	 0.18033230593997 
931	 0.179893899809778 
932	 0.173795147453376 
933	 0.178330581290766 
934	 0.185648047277349 
935	 0.180381534144259 
936	 0.178529378809894 
937	 0.181243890565482 
938	 0.181806810373517 
939	 0.178422714237318 
940	 0.172448465388823 
941	 0.172596182156777 
942	 0.174811223167325 
943	 0.175815586994689 
944	 0.175501868213442 
945	 0.175448320206348 
946	 0.178222200320154 
947	 0.177457029760463 
948	 0.173360193979402 
949	 0.172836168444846 
950	 0.168136924141256 
951	 0.158801776561671 
952	 0.160227053268507 
953	 0.166371606743269 
954	 0.170347937848123 
955	 0.170306347036828 
956	 0.167327323848269 
957	 0.163990503216351 
958	 0.163258194811013 
959	 0.164184719366536 
960	 0.160092966738826 
961	 0.159016180704168 
962	 0.16334585590537 
963	 0.163667185119835 
964	 0.163271893009508 
965	 0.165514500156058 
966	 0.162826940282232 
967	 0.159054794358539 
968	 0.164168624471182 
969	 0.165026559512238 
970	 0.160532064844645 
971	 0.160649228829624 
972	 0.161011391532919 
973	 0.159757813181842 
974	 0.161301776961278 
975	 0.162924467015162 
976	 0.161541230086966 
977	 0.162639705375759 
978	 0.165115379111928 
979	 0.164504231035109 
980	 0.162644849827944 
981	 0.161504661508986 
982	 0.166415719056693 
983	 0.168988264244879 
984	 0.165527957345933 
985	 0.163008419628488 
986	 0.163152256793793 
987	 0.166633797946837 
988	 0.166526685350489 
989	 0.165189375018048 
990	 0.170200668298727 
991	 0.168858413438851 
992	 0.162767170752871 
993	 0.171597070038123 
994	 0.177657097706956 
995	 0.17352394208146 
996	 0.172917133550608 
997	 0.172639127243344 
998	 0.169046143941915 
999	 0.167293246589035 
1000	 0.168500651401282 
1001	 0.173017967398704 
1002	 0.175938401762445 
1003	 0.176113959031172 
1004	 0.175169189039511 
1005	 0.173016907612322 
1006	 0.171626552089701 
1007	 0.179751574609749 
1008	 0.186309326529126 
1009	 0.183055224623235 
1010	 0.179456595407955 
1011	 0.176455742600003 
1012	 0.173829627592869 
1013	 0.178888120927003 
1014	 0.188634801798605 
1015	 0.193190959378279 
1016	 0.187102331481879 
1017	 0.173612284916075 
1018	 0.173224095848912 
1019	 0.179039446137263 
1020	 0.185516284748238 
1021	 0.186957629785081 
1022	 0.184046712357334 
1023	 0.179317015165345 
1024	 0.183573979887092 
1025	 0.19190005599792 
1026	 0.193256233088054 
1027	 0.188121558533916 
1028	 0.181043104514931 
1029	 0.18502926175826 
1030	 0.189585973572907 
1031	 0.190249788675968 
1032	 0.184528210252143 
1033	 0.185823913633399 
1034	 0.199594502217667 
1035	 0.202523445453934 
1036	 0.19961843670692 
1037	 0.198458918578123 
1038	 0.194278568306864 
1039	 0.19277048418908 
1040	 0.203765204234346 
1041	 0.202730331718504 
1042	 0.190047610793492 
1043	 0.186312802965132 
1044	 0.191166175528236 
1045	 0.201380182793259 
1046	 0.201901016687997 
1047	 0.199390595616184 
1048	 0.198638945062035 
1049	 0.202795179600545 
1050	 0.206696419716354 
1051	 0.20495994678707 
1052	 0.196422846410682 
1053	 0.192684975684392 
1054	 0.210221617760997 
1055	 0.206283746394795 
1056	 0.187606721553855 
1057	 0.195419100274995 
1058	 0.195537819698894 
1059	 0.183156437637508 
1060	 0.178672680096333 
1061	 0.189213623471171 
1062	 0.208365694287049 
1063	 0.184611998479317 
1064	 0.162820732798798 
1065	 0.174482961637727 
1066	 0.169951556174929 
1067	 0.164580563025789 
1068	 0.179628346100802 
1069	 0.194335678973582 
1070	 0.196378721463593 
1071	 0.175098977587289 
1072	 0.18492759824043 
1073	 0.216593123387876 
1074	 0.2108616814061 
1075	 0.201454289689127 
