Wavelength	AVEI200161.asd
325	 4.62797956578175E-02 
326	 4.07076846199677E-02 
327	 3.42296421942762E-02 
328	 3.97782093710257E-02 
329	 4.20238451792357E-02 
330	 3.74141507532145E-02 
331	 3.80260322210202E-02 
332	 4.14529034139648E-02 
333	 4.45150151484202E-02 
334	 4.50269840351458E-02 
335	 4.34034106264435E-02 
336	 4.19924913032008E-02 
337	 3.76469449743636E-02 
338	 3.18485955174076E-02 
339	 3.50629915432501E-02 
340	 0.039312366248947 
341	 3.82711641641492E-02 
342	 3.86417743760309E-02 
343	 3.99159354619197E-02 
344	 0.039162048230805 
345	 3.94097436541707E-02 
346	 4.06200743460316E-02 
347	 3.94414714238365E-02 
348	 3.84313499355685E-02 
349	 3.90944449758347E-02 
350	 3.83984569422409E-02 
351	 3.71844897135975E-02 
352	 3.73489461717073E-02 
353	 3.73158371839847E-02 
354	 3.71910796600912E-02 
355	 3.90298859764159E-02 
356	 3.95444958944304E-02 
357	 3.73515061723496E-02 
358	 3.79709564645851E-02 
359	 0.039503603557775 
360	 3.81773648085068E-02 
361	 3.74657620822867E-02 
362	 3.78811271033582E-02 
363	 0.038221294138661 
364	 3.82855157368739E-02 
365	 0.038090219939892 
366	 3.87334739536562E-02 
367	 3.91347132590077E-02 
368	 0.037755919932888 
369	 3.68316347884383E-02 
370	 0.036642811844202 
371	 3.61147023264865E-02 
372	 3.61822836309992E-02 
373	 3.71724357336198E-02 
374	 3.79857652834211E-02 
375	 0.037797828209216 
376	 3.57655145039909E-02 
377	 3.41691808882865E-02 
378	 3.36499858233723E-02 
379	 3.41105228707735E-02 
380	 3.48252986539443E-02 
381	 3.52680025300194E-02 
382	 0.03504504799516 
383	 3.49421871553661E-02 
384	 3.59820435020608E-02 
385	 3.60690233942149E-02 
386	 3.50265398590378E-02 
387	 3.38222585989903E-02 
388	 3.36807895598068E-02 
389	 3.47916280760264E-02 
390	 3.47066853759842E-02 
391	 3.37165929475401E-02 
392	 3.24618153004005E-02 
393	 3.31773341060229E-02 
394	 3.49482537598099E-02 
395	 3.37912823215983E-02 
396	 3.28371965312908E-02 
397	 3.32856892917968E-02 
398	 3.38522420574437E-02 
399	 3.41598126405883E-02 
400	 0.033987404919506 
401	 3.38189712576323E-02 
402	 3.37063480420426E-02 
403	 3.34219742814235E-02 
404	 3.36539171376719E-02 
405	 0.034350123061359 
406	 3.33959395935282E-02 
407	 0.032136043070047 
408	 3.24015409440206E-02 
409	 3.29214939678909E-02 
410	 3.32607226276965E-02 
411	 3.30329891137425E-02 
412	 3.28311582769934E-02 
413	 3.29416585477899E-02 
414	 3.32731445823686E-02 
415	 3.33460761834201E-02 
416	 3.25837069622581E-02 
417	 3.21449465186827E-02 
418	 0.032254449490326 
419	 3.26726931669958E-02 
420	 3.30807133904153E-02 
421	 0.033245853503249 
422	 3.30088745392056E-02 
423	 3.26707793106723E-02 
424	 3.26825026879585E-02 
425	 3.25243873881331E-02 
426	 0.032249582714706 
427	 0.032520525014255 
428	 3.27969725539745E-02 
429	 3.27605752068865E-02 
430	 3.29047828566513E-02 
431	 3.31286364526543E-02 
432	 3.31752698128225E-02 
433	 3.30244204434393E-02 
434	 3.27031470843835E-02 
435	 0.03226881171533 
436	 3.20630812080229E-02 
437	 0.032263814889347 
438	 0.032349805719382 
439	 3.23441687978548E-02 
440	 3.24452521044657E-02 
441	 3.24960026932379E-02 
442	 3.24720044917309E-02 
443	 3.25081748030725E-02 
444	 0.032377327229302 
445	 3.19741021645743E-02 
446	 3.23488225186386E-02 
447	 3.30219400889305E-02 
448	 3.25148519750976E-02 
449	 3.22322349633938E-02 
450	 3.25513634669982E-02 
451	 3.28675023475623E-02 
452	 3.29618689766757E-02 
453	 3.26864577739486E-02 
454	 0.032734581593831 
455	 3.30283642911386E-02 
456	 3.29329887842618E-02 
457	 0.0329094158141 
458	 3.30730389574194E-02 
459	 3.29491326041875E-02 
460	 3.28404687096457E-02 
461	 3.31287529037189E-02 
462	 3.29912059015951E-02 
463	 3.24982818853166E-02 
464	 3.24243044286326E-02 
465	 3.25780380598509E-02 
466	 0.032781874721746 
467	 3.24376163498276E-02 
468	 3.20266518826914E-02 
469	 0.032343716065021 
470	 3.26371541116061E-02 
471	 3.27125481852918E-02 
472	 3.26277516640826E-02 
473	 3.26328610741118E-02 
474	 3.28455863303524E-02 
475	 3.28129143271826E-02 
476	 3.26098637455949E-02 
477	 3.24551329945829E-02 
478	 0.032592978510492 
479	 3.29046637062475E-02 
480	 3.25632612609661E-02 
481	 3.21843473706185E-02 
482	 3.22753014740324E-02 
483	 3.25052261494187E-02 
484	 3.27160764186146E-02 
485	 3.26476404700736E-02 
486	 3.27501104420785E-02 
487	 3.30478725011431E-02 
488	 3.27339515307114E-02 
489	 3.24029585139821E-02 
490	 3.26893524595044E-02 
491	 3.31056800398982E-02 
492	 3.33811323817263E-02 
493	 3.30808303215672E-02 
494	 3.27216324845112E-02 
495	 3.26115938208066E-02 
496	 3.29995429883429E-02 
497	 3.35771829370681E-02 
498	 3.39255563299289E-02 
499	 3.37991969309928E-02 
500	 3.34165699814488E-02 
501	 0.033721678446254 
502	 3.41615839732772E-02 
503	 3.43953113828527E-02 
504	 3.45593694648662E-02 
505	 3.48167594463932E-02 
506	 3.54306446853125E-02 
507	 3.57962242376341E-02 
508	 3.58729953423633E-02 
509	 0.03624055712411 
510	 3.67153097284922E-02 
511	 3.71351926664317E-02 
512	 3.75550848439116E-02 
513	 3.78646785618676E-02 
514	 3.77156091709175E-02 
515	 3.79981970929781E-02 
516	 3.89277801876261E-02 
517	 3.96716355221657E-02 
518	 4.02335009640646E-02 
519	 4.06946301532622E-02 
520	 4.13465210140163E-02 
521	 4.21943687996172E-02 
522	 4.31450336578409E-02 
523	 4.38046281941896E-02 
524	 4.40695479455489E-02 
525	 4.45879987169987E-02 
526	 0.04521384514293 
527	 4.56314676811108E-02 
528	 4.61225362726863E-02 
529	 4.67178718139437E-02 
530	 4.72755397347773E-02 
531	 4.79029605872878E-02 
532	 4.86276962317675E-02 
533	 4.90095850964125E-02 
534	 4.91812177638473E-02 
535	 4.95211242568844E-02 
536	 4.98699282762854E-02 
537	 5.02050322903159E-02 
538	 5.06304438769491E-02 
539	 5.09577189919209E-02 
540	 5.10316301424644E-02 
541	 0.051486855815855 
542	 5.21692763207023E-02 
543	 5.23363966228373E-02 
544	 5.24680811186872E-02 
545	 5.27391225634726E-02 
546	 5.29293029188592E-02 
547	 5.30774845261073E-02 
548	 5.32547911449381E-02 
549	 5.34599816235771E-02 
550	 5.37022408804087E-02 
551	 5.40166076925635E-02 
552	 5.42820997132056E-02 
553	 0.054426352529433 
554	 5.45496406494629E-02 
555	 5.46861653155627E-02 
556	 5.48758796488657E-02 
557	 5.50125978779533E-02 
558	 0.055035736910832 
559	 5.48610564910697E-02 
560	 5.46781552715793E-02 
561	 5.46617054365405E-02 
562	 0.054679338385338 
563	 5.47041042392842E-02 
564	 5.47529440258464E-02 
565	 5.47259562772554E-02 
566	 5.45675899328728E-02 
567	 5.42563941762046E-02 
568	 5.39200365563444E-02 
569	 5.37184851026543E-02 
570	 5.33463691625467E-02 
571	 5.28619886067003E-02 
572	 5.27048501687755E-02 
573	 5.26006115375229E-02 
574	 5.23868366158534E-02 
575	 5.22555277713698E-02 
576	 5.20581547331292E-02 
577	 5.14584711695959E-02 
578	 5.12124155104974E-02 
579	 5.13947088553927E-02 
580	 5.11531923038635E-02 
581	 5.09214610646249E-02 
582	 5.10651741297555E-02 
583	 5.08612135851053E-02 
584	 5.04185038291617E-02 
585	 5.03334098462752E-02 
586	 5.03762460883311E-02 
587	 5.04257114365188E-02 
588	 5.02803708772289E-02 
589	 5.00279430999603E-02 
590	 4.98205372595082E-02 
591	 0.049441730618719 
592	 4.90443033758353E-02 
593	 4.92446050334017E-02 
594	 4.94220898873587E-02 
595	 4.92445362724683E-02 
596	 4.92626025656034E-02 
597	 4.92650616034448E-02 
598	 4.87363114316239E-02 
599	 4.84887443313938E-02 
600	 4.87003330744477E-02 
601	 4.89919210194243E-02 
602	 4.90096020365136E-02 
603	 4.85083596988788E-02 
604	 4.83060879943511E-02 
605	 4.83953627323843E-02 
606	 0.048400164316515 
607	 4.81112574034411E-02 
608	 4.75444352203024E-02 
609	 4.74604610120089E-02 
610	 4.75785117616211E-02 
611	 4.74550029034822E-02 
612	 4.71321459031773E-02 
613	 4.67030631511375E-02 
614	 4.64505386317556E-02 
615	 4.62894883695128E-02 
616	 4.61679735683526E-02 
617	 4.60997606098174E-02 
618	 4.59957636277484E-02 
619	 4.57010032818686E-02 
620	 0.04548785911333 
621	 4.53865510051605E-02 
622	 4.51295993528163E-02 
623	 4.48752069900147E-02 
624	 4.47874950028205E-02 
625	 4.50299052333835E-02 
626	 4.53316534009035E-02 
627	 0.044916185903314 
628	 4.45249710837921E-02 
629	 0.044498222959214 
630	 0.044877553021 
631	 4.52781180176157E-02 
632	 4.52272276455506E-02 
633	 4.49640365656709E-02 
634	 4.46952040499304E-02 
635	 4.49431963572586E-02 
636	 4.48880124306168E-02 
637	 4.41199636802247E-02 
638	 4.35671355670984E-02 
639	 0.043262984904154 
640	 4.30449507784021E-02 
641	 4.26868600803661E-02 
642	 4.21783877768763E-02 
643	 4.18884910687463E-02 
644	 4.14974956013502E-02 
645	 4.07520652602644E-02 
646	 4.03427123793023E-02 
647	 4.02580740789193E-02 
648	 4.01815341614716E-02 
649	 3.97131316395835E-02 
650	 3.88565407298962E-02 
651	 3.87016792275994E-02 
652	 3.88229991665328E-02 
653	 3.86049383250118E-02 
654	 3.83485842032289E-02 
655	 3.81647271199232E-02 
656	 3.82555690184265E-02 
657	 3.83396854894519E-02 
658	 3.82258147227415E-02 
659	 3.79440820704646E-02 
660	 3.75216660000071E-02 
661	 3.69742358131943E-02 
662	 3.65538291737609E-02 
663	 3.63175230220449E-02 
664	 3.61197781411849E-02 
665	 3.59151629065207E-02 
666	 3.56707791384402E-02 
667	 0.035433770561737 
668	 3.52385882501147E-02 
669	 3.51255330488768E-02 
670	 3.51815977279982E-02 
671	 3.52824447459281E-02 
672	 3.45390809204676E-02 
673	 3.38760968386154E-02 
674	 3.43897903747082E-02 
675	 3.46328534447458E-02 
676	 3.45202493503903E-02 
677	 3.49050248604592E-02 
678	 3.51119936220678E-02 
679	 3.48872919918148E-02 
680	 3.51509936895589E-02 
681	 3.56767726348097E-02 
682	 3.59197318286723E-02 
683	 0.036408066620635 
684	 3.72398781336352E-02 
685	 3.82337753087899E-02 
686	 3.93871815406121E-02 
687	 4.06533900085516E-02 
688	 4.16155659143008E-02 
689	 4.25924566951069E-02 
690	 4.46284899985195E-02 
691	 4.67335669061777E-02 
692	 4.87046138758445E-02 
693	 5.08699366897779E-02 
694	 5.34045546456773E-02 
695	 5.63378328726186E-02 
696	 5.94144315884944E-02 
697	 6.24952433670238E-02 
698	 6.55693677590118E-02 
699	 6.86391485391914E-02 
700	 7.17266503058545E-02 
701	 7.52515973726614E-02 
702	 7.90441051683469E-02 
703	 8.28259238580544E-02 
704	 8.59015584254932E-02 
705	 8.85536730073966E-02 
706	 9.21899567736482E-02 
707	 9.59458181029844E-02 
708	 9.92732145502909E-02 
709	 0.102685478235381 
710	 0.106041503926076 
711	 0.108986438436075 
712	 0.111959317331464 
713	 0.114980794177561 
714	 0.117580280132653 
715	 0.119993669593887 
716	 0.122573754558062 
717	 0.124852390612271 
718	 0.12717257714709 
719	 0.130478284142927 
720	 0.133492520680738 
721	 0.135581559788946 
722	 0.137155967140058 
723	 0.138782715846438 
724	 0.140905008540791 
725	 0.14290855175166 
726	 0.144522080617035 
727	 0.145914906587167 
728	 0.147400582596049 
729	 0.149082167118676 
730	 0.150437668202759 
731	 0.151480473297055 
732	 0.152314906698392 
733	 0.153239275396699 
734	 0.154331360467105 
735	 0.155482908649688 
736	 0.156663503970017 
737	 0.157776575143502 
738	 0.158588440245909 
739	 0.159283301144024 
740	 0.160281006054989 
741	 0.160903331757558 
742	 0.161142749021306 
743	 0.161855610502123 
744	 0.162734012385865 
745	 0.163486686590412 
746	 0.164021744969779 
747	 0.164452054684695 
748	 0.165134895222235 
749	 0.165664011091633 
750	 0.165929471215089 
751	 0.166147863423743 
752	 0.166565005237194 
753	 0.167384204850445 
754	 0.167732399200328 
755	 0.167733991736548 
756	 0.168311514932002 
757	 0.168780527721097 
758	 0.168885085729843 
759	 0.168952935923084 
760	 0.169246481921255 
761	 0.170084208983019 
762	 0.170249342319911 
763	 0.170011644575515 
764	 0.170704360523949 
765	 0.171746382983369 
766	 0.172680276703457 
767	 0.172719608326293 
768	 0.172618986536853 
769	 0.173252572840269 
770	 0.173939348615575 
771	 0.174512714556645 
772	 0.175024678255779 
773	 0.17534132195374 
774	 0.17539821028521 
775	 0.17540923136046 
776	 0.175609634140565 
777	 0.17636536962425 
778	 0.176890086008992 
779	 0.176979074022636 
780	 0.176903365364569 
781	 0.177039787675633 
782	 0.177644383635286 
783	 0.178169947581946 
784	 0.17845361462162 
785	 0.17833782046775 
786	 0.178475389564817 
787	 0.178962756847172 
788	 0.179021538891876 
789	 0.179018018814497 
790	 0.179310652045037 
791	 0.179508275718689 
792	 0.179625435567234 
793	 0.179853302929601 
794	 0.180215854130137 
795	 0.180627175092495 
796	 0.180592650850671 
797	 0.180484567179242 
798	 0.180704027649918 
799	 0.181107390429059 
800	 0.181541185906773 
801	 0.181681674285246 
802	 0.181656877805281 
803	 0.181624933111754 
804	 0.182143868138956 
805	 0.182683334171704 
806	 0.182672520231157 
807	 0.183002335072551 
808	 0.183655180951982 
809	 0.184024703684204 
810	 0.184543459450425 
811	 0.185149780983139 
812	 0.184307965279176 
813	 0.18315214971625 
814	 0.183397268916256 
815	 0.184482450287158 
816	 0.185890294687481 
817	 0.186521563957433 
818	 0.186728905042361 
819	 0.186757417875984 
820	 0.186984526799993 
821	 0.187264720567893 
822	 0.187398714781027 
823	 0.188044347512414 
824	 0.189070046345683 
825	 0.189876326580248 
826	 0.190139442584457 
827	 0.189806256044328 
828	 0.189478695806062 
829	 0.189442809354745 
830	 0.189940798502833 
831	 0.190537715342651 
832	 0.191038086573123 
833	 0.191231612663726 
834	 0.191554667607527 
835	 0.192029210303637 
836	 0.191539336593898 
837	 0.19121383413329 
838	 0.192347748947259 
839	 0.193095641044563 
840	 0.193214080822579 
841	 0.193166187627187 
842	 0.193330167970035 
843	 0.193824619473512 
844	 0.194116036203939 
845	 0.194283074263672 
846	 0.19446452763687 
847	 0.194595337452407 
848	 0.19460530117616 
849	 0.194286792193552 
850	 0.194105720381042 
851	 0.194280711570466 
852	 0.194798920739105 
853	 0.195041921125567 
854	 0.194445867205782 
855	 0.194663367887743 
856	 0.195409731959709 
857	 0.195107576669236 
858	 0.195002675420261 
859	 0.19531352005277 
860	 0.194784866860502 
861	 0.194857043424849 
862	 0.196711334916773 
863	 0.196343102368887 
864	 0.194782320334912 
865	 0.196337361901013 
866	 0.197273814676678 
867	 0.196730028123298 
868	 0.19686561343531 
869	 0.197384304730066 
870	 0.198004449347534 
871	 0.199215305000076 
872	 0.200268552732526 
873	 0.199598729291512 
874	 0.199475726912076 
875	 0.200305539838486 
876	 0.200572934746038 
877	 0.200940367884066 
878	 0.201759452333741 
879	 0.201666977797298 
880	 0.201666642556454 
881	 0.203661301454168 
882	 0.20470944550009 
883	 0.204593428113848 
884	 0.205779893145367 
885	 0.206132468391548 
886	 0.204914082379986 
887	 0.205680677307411 
888	 0.20755820508034 
889	 0.208840251490646 
890	 0.208858156368343 
891	 0.207878395279656 
892	 0.207241870985745 
893	 0.207819591338336 
894	 0.209553341849392 
895	 0.208646536329595 
896	 0.207112572741239 
897	 0.207773237561303 
898	 0.208832088541093 
899	 0.209371411009403 
900	 0.207961753115849 
901	 0.208094058047026 
902	 0.210268397152741 
903	 0.211232868085684 
904	 0.210825335302428 
905	 0.209312327810497 
906	 0.20952213437345 
907	 0.210852487147646 
908	 0.211432861010686 
909	 0.211807875943454 
910	 0.211652830188679 
911	 0.209111446992437 
912	 0.208686443497519 
913	 0.212144226359394 
914	 0.212383491140733 
915	 0.211061999321876 
916	 0.21109173313062 
917	 0.210065723081371 
918	 0.208869231099344 
919	 0.211032833071201 
920	 0.212940289255293 
921	 0.213185397546542 
922	 0.211965824033756 
923	 0.210183108875213 
924	 0.208772287530232 
925	 0.209125722574343 
926	 0.209606523609994 
927	 0.205929176150269 
928	 0.203212035310481 
929	 0.202840032061895 
930	 0.201000564424683 
931	 0.199470690107809 
932	 0.199838728465557 
933	 0.202137352360826 
934	 0.203309000484467 
935	 0.199242459137792 
936	 0.197220210746273 
937	 0.197097994359925 
938	 0.193508114405962 
939	 0.189701390505953 
940	 0.187267007733002 
941	 0.188375125593001 
942	 0.188675746441577 
943	 0.185607958090572 
944	 0.186122521880957 
945	 0.188377399406421 
946	 0.188034806849451 
947	 0.190747436136943 
948	 0.194196500274358 
949	 0.187414584931661 
950	 0.177536285982913 
951	 0.169890625183644 
952	 0.174900927064395 
953	 0.179404392355441 
954	 0.172331223721577 
955	 0.172301927059542 
956	 0.176183479411647 
957	 0.173395463484572 
958	 0.169622517572881 
959	 0.166529875460346 
960	 0.16393490529928 
961	 0.162726879362835 
962	 0.163424836866933 
963	 0.166078701596274 
964	 0.169413549773558 
965	 0.172037266165651 
966	 0.16945380611222 
967	 0.164615582435871 
968	 0.164231181782717 
969	 0.167136922572952 
970	 0.171695690119867 
971	 0.173947257463232 
972	 0.171676085109399 
973	 0.165190431763956 
974	 0.164191415681841 
975	 0.166355555899621 
976	 0.167918016334062 
977	 0.169371721395651 
978	 0.170533371162819 
979	 0.171351604977432 
980	 0.169639482670219 
981	 0.166466871823968 
982	 0.167584813653779 
983	 0.170905586664846 
984	 0.174004077702894 
985	 0.170097823335143 
986	 0.16632071779868 
987	 0.170488825342697 
988	 0.173885282118836 
989	 0.175533574608351 
990	 0.176793811982954 
991	 0.175233894350169 
992	 0.172493248033041 
993	 0.176911568678854 
994	 0.179247647628661 
995	 0.175400310827369 
996	 0.170175377615732 
997	 0.170941128117478 
998	 0.182556756291449 
999	 0.183716215963757 
1000	 0.178596711715774 
1001	 0.180907075143784 
1002	 0.181052695303799 
1003	 0.178680487826997 
1004	 0.179880777197662 
1005	 0.181913628317514 
1006	 0.184322494065386 
1007	 0.191409130729116 
1008	 0.194381999952669 
1009	 0.187783445512919 
1010	 0.186121762291314 
1011	 0.188197775668034 
1012	 0.189395453744598 
1013	 0.190343517512356 
1014	 0.191034023984808 
1015	 0.19172413506073 
1016	 0.1903013619079 
1017	 0.187404580465343 
1018	 0.188049689281122 
1019	 0.190316122331844 
1020	 0.193082565719534 
1021	 0.197977189005702 
1022	 0.198647228869391 
1023	 0.190614494679243 
1024	 0.194459247511545 
1025	 0.204457072356297 
1026	 0.205664560739051 
1027	 0.201617333664388 
1028	 0.196007545043418 
1029	 0.197392619269161 
1030	 0.198960344615312 
1031	 0.19805339086843 
1032	 0.193481473633414 
1033	 0.194496239790146 
1034	 0.205027184666872 
1035	 0.209964797284397 
1036	 0.21157762540149 
1037	 0.21367734135831 
1038	 0.212692127526984 
1039	 0.209760519484016 
1040	 0.207574350483522 
1041	 0.209630235386379 
1042	 0.214368079187698 
1043	 0.214262069566756 
1044	 0.210021605152218 
1045	 0.204706896635757 
1046	 0.209456002705186 
1047	 0.217466783163606 
1048	 0.222637988917895 
1049	 0.212988756342434 
1050	 0.20487065052373 
1051	 0.213430773896212 
1052	 0.218771367309677 
1053	 0.220029897790645 
1054	 0.22027269488572 
1055	 0.205867680595613 
1056	 0.187862653336402 
1057	 0.202130192100235 
1058	 0.200785995674676 
1059	 0.181596358988717 
1060	 0.196870335218457 
1061	 0.206562291276387 
1062	 0.194280960626757 
1063	 0.173212788288559 
1064	 0.168713451648357 
1065	 0.19353607915713 
1066	 0.210668483660607 
1067	 0.210924440741748 
1068	 0.189701581229047 
1069	 0.186544069511397 
1070	 0.190435019293274 
1071	 0.172549452356983 
1072	 0.176311588292709 
1073	 0.198711080718667 
1074	 0.206640817789463 
1075	 0.198940255632729 
