Wavelength	AVEI200109.asd
325	 4.18668995120368E-02 
326	 3.93607065610294E-02 
327	 2.78971789105235E-02 
328	 2.56734920443836E-02 
329	 2.67752791684894E-02 
330	 2.91543243155098E-02 
331	 3.49052640122729E-02 
332	 3.76853918398964E-02 
333	 3.21140728203769E-02 
334	 3.28051353876626E-02 
335	 3.71202583045475E-02 
336	 3.32011168307942E-02 
337	 0.028050227821455 
338	 2.54089595986557E-02 
339	 3.19268637726042E-02 
340	 3.67955743913627E-02 
341	 3.21710628962743E-02 
342	 3.05610887311239E-02 
343	 3.20922184065385E-02 
344	 3.33080826628499E-02 
345	 3.31094153698252E-02 
346	 0.0316058734491 
347	 3.06843114786072E-02 
348	 3.05676549978269E-02 
349	 3.11186968581987E-02 
350	 3.01065439683097E-02 
351	 2.88624493022976E-02 
352	 2.98713139227631E-02 
353	 3.11303393245619E-02 
354	 3.20801804823573E-02 
355	 3.29140973667922E-02 
356	 3.26408098729019E-02 
357	 3.11131187713615E-02 
358	 3.19989681834576E-02 
359	 3.32137554647944E-02 
360	 3.10421070381415E-02 
361	 3.02503075745999E-02 
362	 3.11582997370348E-02 
363	 3.06422957090836E-02 
364	 3.05034179802203E-02 
365	 3.13451593587775E-02 
366	 3.05451023838781E-02 
367	 2.91728446444055E-02 
368	 2.89470955830885E-02 
369	 2.92995348627911E-02 
370	 2.98107153283612E-02 
371	 0.029528450706558 
372	 2.93166819264403E-02 
373	 2.95693148570207E-02 
374	 2.95589279205963E-02 
375	 2.95761509832756E-02 
376	 3.01013627280318E-02 
377	 2.92380069076945E-02 
378	 2.74634332079079E-02 
379	 2.76945271704261E-02 
380	 2.86010417097874E-02 
381	 2.93743776053914E-02 
382	 2.96279660445657E-02 
383	 2.95872583681135E-02 
384	 2.96029366306363E-02 
385	 2.86663677637831E-02 
386	 0.027183108610953 
387	 2.69736266747829E-02 
388	 2.72276524460284E-02 
389	 2.75030508092792E-02 
390	 2.76732890439318E-02 
391	 2.76882943842014E-02 
392	 2.75371626287586E-02 
393	 2.82700410783584E-02 
394	 2.93415450657584E-02 
395	 2.86387249521598E-02 
396	 2.78911592127919E-02 
397	 2.77842855876166E-02 
398	 2.75571388209402E-02 
399	 2.75053308068929E-02 
400	 2.79465808081566E-02 
401	 2.78539216251167E-02 
402	 2.73195143308675E-02 
403	 2.68899715653394E-02 
404	 2.71446955252779E-02 
405	 2.80169180863297E-02 
406	 0.027543985299582 
407	 2.66803441350655E-02 
408	 2.67868464729586E-02 
409	 2.68606518104071E-02 
410	 2.67185492168734E-02 
411	 2.64271579057495E-02 
412	 2.63231715228716E-02 
413	 2.65789224195075E-02 
414	 2.72387288147775E-02 
415	 2.76413039138049E-02 
416	 2.69798243225673E-02 
417	 0.026602301724938 
418	 2.67575173745373E-02 
419	 2.71638477083454E-02 
420	 2.73787102210473E-02 
421	 2.72177812993688E-02 
422	 2.73470809908612E-02 
423	 2.75171756731912E-02 
424	 0.027265377185914 
425	 2.69324587589196E-02 
426	 2.66798153800754E-02 
427	 2.67037239669605E-02 
428	 2.68994175367635E-02 
429	 2.71454049372432E-02 
430	 2.71268900376964E-02 
431	 2.69425059614376E-02 
432	 2.68211953657266E-02 
433	 0.026965182800297 
434	 2.72058777377146E-02 
435	 2.66980017468728E-02 
436	 2.63136413516785E-02 
437	 2.65795093005555E-02 
438	 2.66943101839372E-02 
439	 2.66384012506871E-02 
440	 2.65903771059163E-02 
441	 2.65148938631153E-02 
442	 2.64750657555415E-02 
443	 2.67617554930757E-02 
444	 2.69292233291599E-02 
445	 2.66598016093091E-02 
446	 2.66830523296241E-02 
447	 2.68634273344255E-02 
448	 2.65880624736341E-02 
449	 2.65594515148061E-02 
450	 2.68824344745847E-02 
451	 2.68363910538042E-02 
452	 2.67096674363972E-02 
453	 0.026821648697389 
454	 2.70457328432184E-02 
455	 2.72248991467823E-02 
456	 2.69499088502043E-02 
457	 2.69372584021497E-02 
458	 2.73799092877023E-02 
459	 2.75207255348734E-02 
460	 2.74251380011182E-02 
461	 2.72529051181787E-02 
462	 2.70459021577137E-02 
463	 2.69273389158974E-02 
464	 2.72219792358662E-02 
465	 2.73881732196862E-02 
466	 2.71460474362242E-02 
467	 2.67194873933782E-02 
468	 2.64199412611892E-02 
469	 2.66465187900855E-02 
470	 2.69147283918908E-02 
471	 2.70634103836838E-02 
472	 2.70665852644227E-02 
473	 2.70317313610467E-02 
474	 2.70256445752881E-02 
475	 2.69881929197035E-02 
476	 2.68619843668039E-02 
477	 2.65288770854723E-02 
478	 2.65932073363202E-02 
479	 2.70365903091565E-02 
480	 2.69796011721005E-02 
481	 2.68791762200139E-02 
482	 2.70947247421399E-02 
483	 2.71280228734607E-02 
484	 0.027005344393556 
485	 0.026938274302515 
486	 2.71980711091905E-02 
487	 2.77064311679179E-02 
488	 2.74389282548217E-02 
489	 2.71374539142997E-02 
490	 2.75842788983036E-02 
491	 0.027831309078261 
492	 0.027725645555782 
493	 2.73161475167362E-02 
494	 2.72008617142636E-02 
495	 2.75558928503341E-02 
496	 2.75544402316298E-02 
497	 2.74983323654341E-02 
498	 2.78761703087672E-02 
499	 2.79463111641389E-02 
500	 2.77327135803513E-02 
501	 2.79277148221899E-02 
502	 2.83065488375769E-02 
503	 2.86770528608974E-02 
504	 2.86641696155334E-02 
505	 2.85984175540743E-02 
506	 0.029112963826797 
507	 2.95552062610784E-02 
508	 2.97506075317976E-02 
509	 0.029759528956759 
510	 2.99784519951139E-02 
511	 3.06661956300075E-02 
512	 3.10636091024016E-02 
513	 0.031143908070467 
514	 3.10864721757431E-02 
515	 3.14342858695843E-02 
516	 3.22596540622064E-02 
517	 3.26653624694612E-02 
518	 3.28681824844679E-02 
519	 3.31789868873147E-02 
520	 3.35664298982557E-02 
521	 3.41055990131631E-02 
522	 3.50920563625146E-02 
523	 3.56567596554443E-02 
524	 3.55402044200726E-02 
525	 3.59276298269347E-02 
526	 3.65353567626232E-02 
527	 3.67755843206873E-02 
528	 3.71405522210654E-02 
529	 0.037633843038239 
530	 3.78215575066764E-02 
531	 3.81404860439508E-02 
532	 3.88269186483207E-02 
533	 3.92228905512774E-02 
534	 3.93723380735507E-02 
535	 3.95537402001937E-02 
536	 3.97284115566267E-02 
537	 3.99174654683395E-02 
538	 4.02191037056824E-02 
539	 4.04419820921126E-02 
540	 0.040418407540359 
541	 4.05904341734899E-02 
542	 4.09231458050715E-02 
543	 4.10818613349214E-02 
544	 4.12135880524157E-02 
545	 4.13852033020829E-02 
546	 4.16303065634881E-02 
547	 0.041902060787258 
548	 4.21356375586491E-02 
549	 4.21650995692301E-02 
550	 4.20857252794846E-02 
551	 0.042338646798597 
552	 4.27006413615889E-02 
553	 4.30127260069916E-02 
554	 4.32542324874671E-02 
555	 4.33596363531142E-02 
556	 4.32159884200125E-02 
557	 4.31214514673518E-02 
558	 4.31523523713365E-02 
559	 4.31273247935722E-02 
560	 4.30837016524585E-02 
561	 4.30549154362842E-02 
562	 4.28945020012503E-02 
563	 4.27264436604569E-02 
564	 4.29723124050298E-02 
565	 4.30617007241024E-02 
566	 4.27920407911132E-02 
567	 4.25256307887133E-02 
568	 4.23187274075534E-02 
569	 4.21969141052911E-02 
570	 4.20895677980435E-02 
571	 4.19583553686292E-02 
572	 4.17573030981568E-02 
573	 4.15228699228078E-02 
574	 4.12928041351103E-02 
575	 0.041177546323423 
576	 4.11203331303596E-02 
577	 4.09941712344785E-02 
578	 4.08239931597183E-02 
579	 0.040638984436959 
580	 4.05264911810719E-02 
581	 4.04897773263874E-02 
582	 4.05038878790035E-02 
583	 0.04021591800753 
584	 3.98308141095379E-02 
585	 4.00766244267254E-02 
586	 4.01575152434107E-02 
587	 3.98274885371221E-02 
588	 0.03972758120509 
589	 3.97511175699328E-02 
590	 3.96832770037253E-02 
591	 0.039528231188595 
592	 3.93484168752572E-02 
593	 3.93261177110497E-02 
594	 3.94009917312481E-02 
595	 3.95103795106256E-02 
596	 3.94914128286464E-02 
597	 3.93234012751201E-02 
598	 3.89863091592272E-02 
599	 3.89789669721489E-02 
600	 3.93131559649645E-02 
601	 0.039279833521145 
602	 3.91594023260679E-02 
603	 0.03921402562984 
604	 3.92322925223509E-02 
605	 3.92209227624843E-02 
606	 3.93623262027536E-02 
607	 3.90828816043418E-02 
608	 3.83310501564743E-02 
609	 3.82963675182944E-02 
610	 0.038561186891989 
611	 0.038461693660064 
612	 3.82634407158663E-02 
613	 3.80508328440405E-02 
614	 3.79265299592033E-02 
615	 3.77994654178823E-02 
616	 3.76279255477016E-02 
617	 3.75653837498883E-02 
618	 3.74902920669519E-02 
619	 3.71377986042894E-02 
620	 3.70552567320457E-02 
621	 3.72465500087327E-02 
622	 3.69263732332961E-02 
623	 3.66930120757497E-02 
624	 3.70725362165637E-02 
625	 3.73983833134472E-02 
626	 0.037457946635591 
627	 3.70160793484169E-02 
628	 0.036760677723898 
629	 3.69419459165165E-02 
630	 0.037087653520156 
631	 0.037173118826339 
632	 3.72218470065293E-02 
633	 3.72933078121766E-02 
634	 3.73167385251431E-02 
635	 3.70103997988261E-02 
636	 3.67182279812971E-02 
637	 0.036620277416127 
638	 3.63588447688572E-02 
639	 3.60053148564569E-02 
640	 3.57655847681327E-02 
641	 3.55680929548062E-02 
642	 3.53453589725728E-02 
643	 3.48750286320949E-02 
644	 3.44498421558431E-02 
645	 3.43135472274146E-02 
646	 3.40861343668673E-02 
647	 3.37919723902226E-02 
648	 3.36918366444155E-02 
649	 3.36203084667943E-02 
650	 3.35128923855363E-02 
651	 3.34041749623931E-02 
652	 3.32764708836486E-02 
653	 3.31063870992724E-02 
654	 3.30302486772983E-02 
655	 3.30632332258507E-02 
656	 3.31648863508162E-02 
657	 3.31096425910041E-02 
658	 3.28133801962192E-02 
659	 3.26998608935465E-02 
660	 3.26032853596334E-02 
661	 3.21660463313661E-02 
662	 0.031919138235537 
663	 3.18772822202526E-02 
664	 0.031422405665281 
665	 3.09129960439074E-02 
666	 3.06656081497802E-02 
667	 3.05560665428191E-02 
668	 3.05191336093176E-02 
669	 3.04222859424976E-02 
670	 3.05143975255142E-02 
671	 3.07598075194935E-02 
672	 3.04437536356481E-02 
673	 0.030064992128784 
674	 3.02448920056795E-02 
675	 3.04603972272197E-02 
676	 3.05786157536847E-02 
677	 3.05437493608304E-02 
678	 3.06814640279368E-02 
679	 3.11069591280295E-02 
680	 3.12105711413759E-02 
681	 3.12944183619817E-02 
682	 0.031963295959082 
683	 3.23087741031447E-02 
684	 0.032403617181304 
685	 3.36714134537336E-02 
686	 3.50314546554421E-02 
687	 3.55338083556986E-02 
688	 3.64240884099012E-02 
689	 3.76258836795384E-02 
690	 3.85674100682656E-02 
691	 3.98377507922172E-02 
692	 4.16107591072271E-02 
693	 4.35562478601469E-02 
694	 4.57232028541192E-02 
695	 4.80569793580231E-02 
696	 5.00090111715993E-02 
697	 5.17710613680335E-02 
698	 5.41696929567876E-02 
699	 5.71148190691806E-02 
700	 6.03783907131006E-02 
701	 6.28773587973514E-02 
702	 6.51275896876799E-02 
703	 6.80255806063194E-02 
704	 7.08556740864497E-02 
705	 7.34775355318584E-02 
706	 7.58846469161834E-02 
707	 7.83356946323697E-02 
708	 8.09941629518943E-02 
709	 8.37453966091862E-02 
710	 8.64342675476526E-02 
711	 8.88414441546735E-02 
712	 0.091173880554162 
713	 9.34609430233163E-02 
714	 9.56034882411835E-02 
715	 9.76033410617173E-02 
716	 9.95662575933882E-02 
717	 0.101359512522425 
718	 0.103297270226317 
719	 0.106061646800359 
720	 0.108557041045792 
721	 0.110207782364967 
722	 0.111175967750373 
723	 0.112254392579473 
724	 0.114191932037406 
725	 0.115666765844118 
726	 0.11657853215931 
727	 0.118054174601075 
728	 0.119572260470313 
729	 0.120837156546126 
730	 0.12173150853359 
731	 0.122391001185729 
732	 0.123013667407751 
733	 0.123883926878911 
734	 0.124940354817893 
735	 0.125639719771355 
736	 0.126473768453809 
737	 0.127669213536455 
738	 0.128460195988276 
739	 0.129002428444395 
740	 0.129820163563749 
741	 0.130157766242631 
742	 0.130095612027734 
743	 0.130930562036745 
744	 0.131889262179329 
745	 0.13230930225863 
746	 0.132669838601561 
747	 0.133101541112484 
748	 0.133748575620826 
749	 0.134306321804027 
750	 0.134640362593509 
751	 0.134662040677811 
752	 0.1349703625322 
753	 0.13613411567887 
754	 0.136599464506365 
755	 0.136414208575897 
756	 0.136682852777112 
757	 0.136959341867386 
758	 0.137103419726655 
759	 0.137319841790552 
760	 0.137891490213268 
761	 0.138902522526176 
762	 0.139219142934209 
763	 0.139103627669987 
764	 0.139881489594519 
765	 0.140740756945683 
766	 0.141288149519763 
767	 0.14131217528929 
768	 0.141238663728023 
769	 0.141525658094785 
770	 0.14199252573671 
771	 0.142503712490118 
772	 0.142745307679327 
773	 0.14286187892143 
774	 0.142974055937841 
775	 0.143205521277711 
776	 0.143541229145942 
777	 0.143911314379464 
778	 0.144360940129558 
779	 0.144841972653485 
780	 0.145167474555227 
781	 0.145352587399892 
782	 0.14545561053222 
783	 0.145913977551906 
784	 0.146488396335731 
785	 0.146491174015293 
786	 0.146687665671684 
787	 0.147215243764501 
788	 0.147426313120218 
789	 0.147490981221632 
790	 0.14761450753553 
791	 0.147983263382837 
792	 0.148444873908325 
793	 0.148548733509296 
794	 0.148589639790384 
795	 0.148657972961148 
796	 0.148598861542783 
797	 0.148749930933329 
798	 0.149410911955495 
799	 0.149883223128248 
800	 0.14997826162486 
801	 0.149511026876058 
802	 0.149438271779407 
803	 0.150086764157075 
804	 0.150808770464173 
805	 0.151222501446189 
806	 0.151040599890921 
807	 0.151521767235813 
808	 0.152478294641355 
809	 0.152556976463548 
810	 0.15267414346442 
811	 0.15313690154276 
812	 0.153254755323398 
813	 0.153278303259298 
814	 0.153608655197805 
815	 0.153897448695338 
816	 0.154223498776836 
817	 0.155174621308359 
818	 0.155629877371844 
819	 0.155434747467571 
820	 0.156822120310202 
821	 0.157844243402772 
822	 0.156134910688605 
823	 0.156234488135585 
824	 0.158187877841117 
825	 0.159190980180993 
826	 0.159379234434454 
827	 0.158882094811057 
828	 0.158474938792574 
829	 0.158687799059976 
830	 0.159977004994221 
831	 0.160709297612086 
832	 0.160821480033861 
833	 0.16132386559489 
834	 0.161757785294235 
835	 0.161951000754428 
836	 0.161972672582938 
837	 0.162074283875082 
838	 0.162516872574567 
839	 0.163007887155283 
840	 0.163382149018215 
841	 0.16335949924111 
842	 0.163452808368187 
843	 0.163769158907576 
844	 0.163444153054467 
845	 0.163259767974441 
846	 0.164115146268279 
847	 0.164862267761795 
848	 0.165139763647619 
849	 0.16468986240946 
850	 0.164104769733623 
851	 0.163831042478503 
852	 0.164644897598168 
853	 0.165438613918857 
854	 0.165059920171403 
855	 0.165575539414421 
856	 0.166707898221422 
857	 0.166801450886562 
858	 0.166673269391647 
859	 0.166572996242371 
860	 0.166261801258047 
861	 0.166448825691493 
862	 0.167643201600158 
863	 0.167080748523867 
864	 0.165881268039816 
865	 0.168039910768726 
866	 0.169168342737473 
867	 0.16831032463197 
868	 0.168542738718405 
869	 0.169101948975595 
870	 0.169327361409059 
871	 0.170114518952438 
872	 0.170877370831369 
873	 0.170182968266811 
874	 0.170539691426811 
875	 0.172272996930885 
876	 0.173388041923587 
877	 0.173993538977305 
878	 0.174231154396539 
879	 0.174484658873894 
880	 0.174957252593053 
881	 0.175852385955349 
882	 0.176634668024907 
883	 0.177070311457532 
884	 0.176945807056549 
885	 0.176951669731682 
886	 0.177529504334016 
887	 0.178536538716527 
888	 0.179964735783052 
889	 0.18178720243835 
890	 0.18182314408205 
891	 0.180306066771232 
892	 0.179446397755857 
893	 0.180395914770519 
894	 0.183105566742758 
895	 0.182606280536312 
896	 0.18126655502682 
897	 0.182414167953573 
898	 0.183182224684478 
899	 0.183469168543768 
900	 0.184580922564621 
901	 0.185182421042423 
902	 0.185048923146894 
903	 0.185356918350609 
904	 0.185041568593061 
905	 0.183631866210562 
906	 0.185136901932529 
907	 0.187278797596903 
908	 0.184912840295572 
909	 0.184959118596156 
910	 0.187558917935895 
911	 0.184824426066831 
912	 0.183176654184503 
913	 0.185816831432923 
914	 0.18708864006786 
915	 0.187032416838285 
916	 0.186481860173395 
917	 0.185822226043515 
918	 0.185605581022803 
919	 0.186970006982796 
920	 0.187829767940366 
921	 0.187482362350308 
922	 0.186616817907284 
923	 0.185861484521061 
924	 0.18578862868619 
925	 0.186707109267587 
926	 0.18726701560832 
927	 0.184380179601741 
928	 0.181111826888818 
929	 0.17923056716332 
930	 0.181137101443169 
931	 0.182052528675984 
932	 0.178588715742522 
933	 0.180802192881039 
934	 0.184339411914971 
935	 0.180482870293272 
936	 0.176433011928284 
937	 0.174280226184842 
938	 0.174686656835397 
939	 0.172729644371937 
940	 0.168404468955595 
941	 0.169224838155246 
942	 0.171593197579531 
943	 0.172596885143466 
944	 0.171554577877658 
945	 0.171480971554987 
946	 0.177195618735237 
947	 0.17660730885391 
948	 0.169585333800648 
949	 0.166088088251607 
950	 0.164639804101553 
951	 0.16406091862309 
952	 0.160700453358506 
953	 0.157866254285941 
954	 0.158794494280399 
955	 0.164583555265063 
956	 0.170282234886799 
957	 0.167331376930135 
958	 0.163614076733999 
959	 0.161704841761707 
960	 0.16198992390305 
961	 0.162564268222001 
962	 0.162147530685158 
963	 0.159171693230714 
964	 0.157821363052083 
965	 0.161596109923702 
966	 0.163512513529869 
967	 0.162873458835012 
968	 0.160546325050927 
969	 0.162214236785589 
970	 0.167360199631431 
971	 0.168371449499732 
972	 0.165962718954839 
973	 0.161487615413831 
974	 0.160232406599451 
975	 0.162142093593215 
976	 0.166057570424602 
977	 0.166467224258451 
978	 0.164022700313929 
979	 0.162703401199267 
980	 0.160674039818588 
981	 0.159436861081752 
982	 0.165741553465691 
983	 0.171670643486126 
984	 0.172354468887289 
985	 0.166983301572158 
986	 0.162405492512766 
987	 0.165663082343653 
988	 0.169376000948271 
989	 0.171331106480592 
990	 0.169955800477438 
991	 0.167507966802646 
992	 0.166677826233188 
993	 0.174677784175992 
994	 0.177383574851346 
995	 0.16991716828987 
996	 0.169454585036602 
997	 0.171924459519152 
998	 0.172127837531719 
999	 0.173681803806731 
1000	 0.17463270553291 
1001	 0.170833577141748 
1002	 0.16980196053675 
1003	 0.172621604308759 
1004	 0.176437856017228 
1005	 0.175990361454107 
1006	 0.171993554607323 
1007	 0.18065441796576 
1008	 0.189173085713826 
1009	 0.187297700354231 
1010	 0.181381172144795 
1011	 0.176535414652346 
1012	 0.178358918526225 
1013	 0.181038079400563 
1014	 0.182002522832813 
1015	 0.178198735055866 
1016	 0.177609605546865 
1017	 0.181301962771807 
1018	 0.181818385291409 
1019	 0.182691932436866 
1020	 0.186161281582314 
1021	 0.194585060674614 
1022	 0.195406491809254 
1023	 0.178893507004245 
1024	 0.176147814033055 
1025	 0.183049830389671 
1026	 0.18407844250678 
1027	 0.187770749100753 
1028	 0.19388530580345 
1029	 0.198387328863839 
1030	 0.192293854886167 
1031	 0.177542678419878 
1032	 0.176967749768768 
1033	 0.181445994690162 
1034	 0.185741344154705 
1035	 0.200620016436456 
1036	 0.207187562140428 
1037	 0.188614023342628 
1038	 0.192730030774006 
1039	 0.206723988215575 
1040	 0.19523354883668 
1041	 0.189453652480853 
1042	 0.192091353858173 
1043	 0.187369214575916 
1044	 0.185358765643628 
1045	 0.189383867468659 
1046	 0.199211151668225 
1047	 0.200381805603964 
1048	 0.187944693327501 
1049	 0.186945438194518 
1050	 0.190104288253649 
1051	 0.188527771433991 
1052	 0.191179542083023 
1053	 0.189564765480757 
1054	 0.170690352714921 
1055	 0.17147989469448 
1056	 0.185786115918921 
1057	 0.177222929954997 
1058	 0.182086220953548 
1059	 0.201532521932222 
1060	 0.196037316617372 
1061	 0.189345701892316 
1062	 0.187496249318354 
1063	 0.158773121747403 
1064	 0.152312893307797 
1065	 0.193197434147922 
1066	 0.195007659601514 
1067	 0.184405669227355 
1068	 0.19799564362469 
1069	 0.20078875488162 
1070	 0.186682243835372 
1071	 0.157186194461419 
1072	 0.153538259951064 
1073	 0.17080435780123 
1074	 0.167404878841976 
1075	 0.18495475600653 
