Wavelength	AVEI200405.asd
325	 2.86573332619074E-02 
326	 2.37207613948318E-02 
327	 2.89131715863017E-02 
328	 2.55814120062635E-02 
329	 2.53470596267179E-02 
330	 3.08432213047078E-02 
331	 3.39284435448157E-02 
332	 3.37196400606822E-02 
333	 3.02868229423782E-02 
334	 3.02901041078413E-02 
335	 3.23795792394296E-02 
336	 3.02592783247478E-02 
337	 2.95748315370125E-02 
338	 0.031350322767467 
339	 3.13797549718021E-02 
340	 0.032749116767525 
341	 3.74616306046925E-02 
342	 3.78241539450251E-02 
343	 3.51347418226145E-02 
344	 3.40848516944487E-02 
345	 3.28897132775899E-02 
346	 3.14435865393198E-02 
347	 3.05539411957925E-02 
348	 3.03981108534772E-02 
349	 3.08972420737039E-02 
350	 3.02839933793643E-02 
351	 2.98935732967076E-02 
352	 3.23101037671652E-02 
353	 3.31420136644879E-02 
354	 3.21565569701178E-02 
355	 3.28512582404215E-02 
356	 3.35148586393495E-02 
357	 0.033079896733998 
358	 3.19024022532446E-02 
359	 3.08630409949816E-02 
360	 3.11379100095427E-02 
361	 3.22071110010048E-02 
362	 3.31859619500823E-02 
363	 3.15454203238395E-02 
364	 3.09960950912541E-02 
365	 3.28919053864554E-02 
366	 3.16515750671663E-02 
367	 2.97712100531922E-02 
368	 3.13124578364111E-02 
369	 3.23654180548056E-02 
370	 0.032222970148738 
371	 3.15952601248142E-02 
372	 3.16008509227169E-02 
373	 3.25689565132649E-02 
374	 3.19971966248744E-02 
375	 3.08114790806356E-02 
376	 3.06486806054087E-02 
377	 3.11914612125688E-02 
378	 3.20535744162741E-02 
379	 3.23241563411436E-02 
380	 3.18723845221943E-02 
381	 3.08276730347558E-02 
382	 3.03511066685765E-02 
383	 3.06005095223496E-02 
384	 3.15813165252912E-02 
385	 3.09605898359394E-02 
386	 2.91507187427143E-02 
387	 2.91734588172685E-02 
388	 3.03187614716144E-02 
389	 3.17824446833378E-02 
390	 3.10769026780955E-02 
391	 3.00335775998791E-02 
392	 0.030973268727316 
393	 3.11297572262362E-02 
394	 0.03033586291157 
395	 2.95419696317137E-02 
396	 0.030386413027629 
397	 3.27195598817299E-02 
398	 3.16406177064671E-02 
399	 2.97550373028499E-02 
400	 3.00769594856213E-02 
401	 3.02795554382036E-02 
402	 3.02505783669142E-02 
403	 3.08769651507002E-02 
404	 3.11737629374724E-02 
405	 3.07909827713385E-02 
406	 3.02197792669912E-02 
407	 2.97951739296877E-02 
408	 2.98514428461546E-02 
409	 3.03241223044067E-02 
410	 3.08547218400223E-02 
411	 3.05412504886464E-02 
412	 3.01314449672851E-02 
413	 2.99379359787904E-02 
414	 2.92855809269669E-02 
415	 2.90771857665059E-02 
416	 3.05213234028459E-02 
417	 3.08104901514471E-02 
418	 2.99495967560862E-02 
419	 3.01291079310558E-02 
420	 3.06473070652209E-02 
421	 3.10236951182229E-02 
422	 3.06365100891071E-02 
423	 3.00831761104823E-02 
424	 3.03305043663259E-02 
425	 3.04764865169682E-02 
426	 3.03115665709088E-02 
427	 2.99171619004184E-02 
428	 2.97166009739957E-02 
429	 2.99636721049478E-02 
430	 3.02483888649914E-02 
431	 3.04918089097539E-02 
432	 3.06839992299958E-02 
433	 3.05826478906216E-02 
434	 3.03150812237781E-02 
435	 3.05910109105422E-02 
436	 3.07416651615904E-02 
437	 3.03967042210036E-02 
438	 0.030510827690469 
439	 3.08692345497939E-02 
440	 3.08126849598329E-02 
441	 3.09156533563697E-02 
442	 3.12339294425255E-02 
443	 3.12845203469625E-02 
444	 3.12245493427398E-02 
445	 3.12038871885282E-02 
446	 3.12504045739061E-02 
447	 3.13416328428994E-02 
448	 3.14282972005017E-02 
449	 3.13296757438374E-02 
450	 3.11615593609456E-02 
451	 3.18444458844772E-02 
452	 3.24939468303654E-02 
453	 0.032219145512361 
454	 3.18448023940515E-02 
455	 3.16803131320954E-02 
456	 3.20729294720148E-02 
457	 3.25533376532472E-02 
458	 3.28513450397579E-02 
459	 3.27928699239641E-02 
460	 3.25748782526496E-02 
461	 3.24567325949731E-02 
462	 3.25964465249685E-02 
463	 3.28660353043677E-02 
464	 3.26600170190569E-02 
465	 3.28569806540492E-02 
466	 3.36945505580193E-02 
467	 0.033377727901307 
468	 3.27381881366337E-02 
469	 3.32853444506565E-02 
470	 0.033681303948421 
471	 3.36560664770444E-02 
472	 3.35409963243567E-02 
473	 3.35394641475672E-02 
474	 0.033759317812182 
475	 3.39231831674426E-02 
476	 3.38720905339911E-02 
477	 3.33741395368925E-02 
478	 3.32284840853113E-02 
479	 3.36452459024675E-02 
480	 3.44456842308919E-02 
481	 3.47618342618069E-02 
482	 3.39984772679348E-02 
483	 3.37086415681357E-02 
484	 3.38782269126439E-02 
485	 3.37386586344577E-02 
486	 3.39030931079546E-02 
487	 3.44439980977905E-02 
488	 0.03461626446353 
489	 0.034626139589661 
490	 3.47393262435732E-02 
491	 0.034821271723662 
492	 3.48778634236721E-02 
493	 3.49775175165055E-02 
494	 3.50852476541111E-02 
495	 0.035145763993963 
496	 0.034865019479623 
497	 3.47562965050265E-02 
498	 3.55036534604039E-02 
499	 3.58064045038647E-02 
500	 3.56115561334436E-02 
501	 0.035954617394726 
502	 3.62659449536805E-02 
503	 3.62740194957852E-02 
504	 3.67048728514631E-02 
505	 3.73331963780479E-02 
506	 3.76518116978913E-02 
507	 3.77736917977758E-02 
508	 3.77909359158604E-02 
509	 3.79498460719969E-02 
510	 3.81617458078317E-02 
511	 0.038368583140374 
512	 3.88291375148923E-02 
513	 3.93852698243946E-02 
514	 3.95620195523467E-02 
515	 3.98637310122381E-02 
516	 4.04222040602612E-02 
517	 4.09652518115134E-02 
518	 0.04120307378905 
519	 4.08970623245875E-02 
520	 4.12187422823668E-02 
521	 4.20589773397751E-02 
522	 4.24782104472647E-02 
523	 4.26876302635976E-02 
524	 4.28018428795728E-02 
525	 4.29644028841879E-02 
526	 4.33563928503117E-02 
527	 4.42019771886003E-02 
528	 4.46164206137746E-02 
529	 4.45888553710054E-02 
530	 4.50158508421499E-02 
531	 0.045324430818523 
532	 4.52153645096132E-02 
533	 4.56105188263026E-02 
534	 4.63482696471154E-02 
535	 4.69031687956582E-02 
536	 4.69846542997934E-02 
537	 4.66550109521098E-02 
538	 4.66863520353747E-02 
539	 4.71046687559066E-02 
540	 4.78535872755211E-02 
541	 4.82727831524442E-02 
542	 4.83370462135866E-02 
543	 4.83848232084575E-02 
544	 4.85050444290097E-02 
545	 0.048743321999818 
546	 4.89902240021725E-02 
547	 4.91910770914962E-02 
548	 4.92915084905156E-02 
549	 4.94123517389457E-02 
550	 0.049582161612467 
551	 4.97652117187078E-02 
552	 4.99997953537881E-02 
553	 5.02992644315613E-02 
554	 5.05730513202764E-02 
555	 5.08153889087294E-02 
556	 5.10580845212252E-02 
557	 5.11575645887973E-02 
558	 5.11151864327174E-02 
559	 5.11788893106801E-02 
560	 5.11887824869448E-02 
561	 5.10288377194187E-02 
562	 5.13699175998369E-02 
563	 5.19441450964591E-02 
564	 5.17384229331217E-02 
565	 5.14892007405765E-02 
566	 0.051452519867325 
567	 5.12153302623761E-02 
568	 5.10458500879981E-02 
569	 5.13213327414187E-02 
570	 0.051328541110045 
571	 5.11890111099852E-02 
572	 5.20316069045574E-02 
573	 5.25473389073204E-02 
574	 5.20405133375175E-02 
575	 0.051907356555505 
576	 5.21222640919263E-02 
577	 5.22964521134676E-02 
578	 5.21250535141733E-02 
579	 5.16683835326408E-02 
580	 0.051712630306198 
581	 5.18610015548713E-02 
582	 5.17556441920177E-02 
583	 5.17658056620494E-02 
584	 5.19361861857555E-02 
585	 0.052299106611016 
586	 5.22405350953648E-02 
587	 5.16910092044639E-02 
588	 5.20149430316767E-02 
589	 5.26065094873727E-02 
590	 5.24845068050336E-02 
591	 5.23010025452096E-02 
592	 0.052290187206507 
593	 5.26424700688362E-02 
594	 5.31098194252785E-02 
595	 0.053463867895747 
596	 5.32242058956056E-02 
597	 5.27206999190021E-02 
598	 5.26034580199261E-02 
599	 0.052832431019789 
600	 5.32860810218797E-02 
601	 5.34114418107109E-02 
602	 5.35212956354091E-02 
603	 0.053868892257184 
604	 5.38499437607832E-02 
605	 5.34898429494804E-02 
606	 5.30399298355308E-02 
607	 5.29436764345072E-02 
608	 5.33217828800279E-02 
609	 0.053523377902172 
610	 5.35684373578036E-02 
611	 5.35663074317322E-02 
612	 5.36018977675441E-02 
613	 0.053595295598306 
614	 5.31919135126743E-02 
615	 5.27318031275827E-02 
616	 5.24781424194823E-02 
617	 5.26540682727298E-02 
618	 5.29856775291305E-02 
619	 0.052946921019221 
620	 5.29912189643737E-02 
621	 0.053138162816012 
622	 0.052826184205065 
623	 5.27375121413799E-02 
624	 0.053426828963685 
625	 5.35342456355389E-02 
626	 5.32460513861808E-02 
627	 0.053802056024672 
628	 5.41226803156494E-02 
629	 5.38843508408962E-02 
630	 5.38992939302393E-02 
631	 5.40975847840445E-02 
632	 5.42997978285911E-02 
633	 5.42588516297231E-02 
634	 5.40541969031263E-02 
635	 5.41727486741134E-02 
636	 5.42626359935922E-02 
637	 5.41451300323565E-02 
638	 0.054154446240206 
639	 5.42365265319892E-02 
640	 5.41979262915517E-02 
641	 5.44542269396683E-02 
642	 5.49112972229143E-02 
643	 5.46763663856688E-02 
644	 5.41255379541299E-02 
645	 5.36416732002126E-02 
646	 5.33924901448469E-02 
647	 0.053382705040632 
648	 5.34513193354968E-02 
649	 5.37959884320379E-02 
650	 0.054296990907565 
651	 5.40302629111892E-02 
652	 0.053352682544455 
653	 5.27820864557784E-02 
654	 0.05295696895228 
655	 5.36477885073378E-02 
656	 5.34254741481401E-02 
657	 5.28096711944098E-02 
658	 5.22214672524982E-02 
659	 5.19787621823083E-02 
660	 5.20042106005085E-02 
661	 5.21742600187588E-02 
662	 5.15498983351311E-02 
663	 5.03165322918765E-02 
664	 5.04934038864805E-02 
665	 5.09279218764745E-02 
666	 5.06175767605586E-02 
667	 5.01511842231031E-02 
668	 4.97420497420497E-02 
669	 4.96996646558955E-02 
670	 4.94999487422416E-02 
671	 4.90274858624545E-02 
672	 4.87808293858739E-02 
673	 4.88126573780645E-02 
674	 4.91199562223269E-02 
675	 4.92900454308798E-02 
676	 4.93436457198072E-02 
677	 4.96549752692574E-02 
678	 5.01563640487179E-02 
679	 5.07647767994119E-02 
680	 5.11309044900489E-02 
681	 5.14545464452697E-02 
682	 5.21263486988776E-02 
683	 5.26741174252854E-02 
684	 5.31572274113331E-02 
685	 5.43810034533398E-02 
686	 5.58681980727722E-02 
687	 5.71723308198812E-02 
688	 5.87749235837187E-02 
689	 6.04601872486077E-02 
690	 6.20098262983956E-02 
691	 6.33413432707057E-02 
692	 6.45812873701718E-02 
693	 6.60958245422774E-02 
694	 6.80698304440795E-02 
695	 7.05092142311609E-02 
696	 7.25455469791827E-02 
697	 7.41305996292086E-02 
698	 7.56585279213897E-02 
699	 7.74266342794566E-02 
700	 7.95178666914428E-02 
701	 8.14668152960188E-02 
702	 0.083323793040141 
703	 8.52732377147332E-02 
704	 8.65399459428072E-02 
705	 8.74722050359471E-02 
706	 0.089862115197942 
707	 9.18708264176437E-02 
708	 9.24641065040817E-02 
709	 9.36255157792465E-02 
710	 9.51630478692606E-02 
711	 0.096188536296137 
712	 9.72191978017123E-02 
713	 9.84827934333141E-02 
714	 0.100384405149377 
715	 0.102036190748613 
716	 0.10270646370194 
717	 0.104005475882009 
718	 0.105868184520569 
719	 0.106466633413476 
720	 0.106873604978434 
721	 0.107541535717969 
722	 0.108610274814334 
723	 0.109532532797558 
724	 0.109593299848046 
725	 0.110522283441696 
726	 0.112271611851937 
727	 0.113703412158499 
728	 0.114265555489987 
729	 0.113866961204917 
730	 0.114049508409488 
731	 0.114938961421381 
732	 0.116395851999513 
733	 0.11688474162019 
734	 0.116501992135299 
735	 0.116598719424803 
736	 0.117172743539804 
737	 0.118125164261758 
738	 0.118612051377653 
739	 0.118834273131613 
740	 0.119411760587012 
741	 0.119815843384319 
742	 0.119990101745532 
743	 0.120326402031156 
744	 0.120807219072638 
745	 0.121407745066398 
746	 0.122150119318937 
747	 0.122818871357237 
748	 0.12290253151302 
749	 0.12311053754996 
750	 0.123640698308672 
751	 0.123970807103576 
752	 0.124362030974183 
753	 0.125102687482283 
754	 0.12569690517748 
755	 0.12596908739004 
756	 0.125633219900416 
757	 0.125829529007598 
758	 0.127058596882569 
759	 0.127948156653909 
760	 0.128876691203455 
761	 0.13015303870325 
762	 0.13124619495016 
763	 0.131712969838159 
764	 0.131035454017887 
765	 0.130614966352257 
766	 0.130776964336285 
767	 0.130642850149503 
768	 0.130532597007293 
769	 0.130867521980785 
770	 0.131259749526771 
771	 0.131601490445757 
772	 0.131801717903683 
773	 0.132307025270083 
774	 0.133288833515506 
775	 0.133522977843694 
776	 0.133307689602143 
777	 0.133485033260778 
778	 0.133854552895926 
779	 0.134417438613925 
780	 0.135367857915945 
781	 0.136059092154799 
782	 0.136058468575419 
783	 0.136550671696487 
784	 0.137271759321722 
785	 0.137193204599691 
786	 0.137416664354745 
787	 0.138128318504199 
788	 0.138281243832805 
789	 0.138436713438294 
790	 0.139108491972121 
791	 0.1392794236061 
792	 0.13917255356609 
793	 0.139798663553099 
794	 0.1403283955496 
795	 0.140511915802886 
796	 0.140620054763478 
797	 0.140875791551655 
798	 0.141458736300238 
799	 0.141820520273791 
800	 0.142093480917207 
801	 0.143028380577336 
802	 0.143425298159533 
803	 0.143042199225059 
804	 0.14335708895351 
805	 0.144091179460193 
806	 0.144802927697781 
807	 0.144897738773531 
808	 0.144700651127025 
809	 0.145530168810236 
810	 0.146533540366213 
811	 0.14726710308329 
812	 0.14741919804021 
813	 0.147645615504174 
814	 0.14882735194622 
815	 0.148716452647553 
816	 0.147771885712125 
817	 0.149446747167592 
818	 0.150928643421284 
819	 0.151108512086986 
820	 0.151209044624402 
821	 0.151346876512891 
822	 0.151552296499675 
823	 0.152207534053892 
824	 0.152782094582028 
825	 0.151455099772198 
826	 0.15123686463065 
827	 0.153017230116383 
828	 0.153680791327007 
829	 0.153620042001796 
830	 0.15369092957089 
831	 0.154010131052507 
832	 0.154450723726012 
833	 0.154467267868446 
834	 0.154701701458291 
835	 0.155227864359858 
836	 0.154751708094231 
837	 0.154408615282744 
838	 0.155528563423522 
839	 0.156886720777321 
840	 0.157740900519426 
841	 0.156766533620985 
842	 0.15615048733125 
843	 0.156691296428404 
844	 0.156829201981627 
845	 0.156903397345449 
846	 0.157410477688715 
847	 0.157942778056927 
848	 0.158346504964504 
849	 0.158522935163737 
850	 0.158194062404629 
851	 0.15749475861019 
852	 0.157680117926114 
853	 0.158718161615359 
854	 0.16030058981246 
855	 0.160300661024066 
856	 0.159475299678035 
857	 0.160928221977103 
858	 0.161742957434265 
859	 0.161158821393574 
860	 0.160670940168073 
861	 0.160282860801624 
862	 0.159992894747457 
863	 0.160633935227571 
864	 0.16191775169221 
865	 0.162863180125352 
866	 0.163405386756009 
867	 0.163474209806378 
868	 0.163070103407147 
869	 0.162945797898301 
870	 0.163635046156641 
871	 0.164095660866805 
872	 0.164284260321806 
873	 0.16442120111433 
874	 0.164904901204758 
875	 0.165985829033708 
876	 0.168289511205359 
877	 0.169385402563495 
878	 0.167888042069504 
879	 0.167430705212925 
880	 0.167903491143532 
881	 0.168197132658711 
882	 0.16981593964547 
883	 0.172124464341188 
884	 0.171751898518544 
885	 0.171245128758985 
886	 0.171906387530306 
887	 0.17184467331718 
888	 0.171555269831897 
889	 0.171931640249206 
890	 0.172138448800064 
891	 0.17234902454036 
892	 0.174026828620806 
893	 0.173935670436643 
894	 0.171527429418261 
895	 0.174618762115493 
896	 0.178472415205947 
897	 0.176706926757735 
898	 0.176232819147241 
899	 0.177180051667608 
900	 0.175784285478902 
901	 0.176485931627179 
902	 0.179388780248674 
903	 0.178472805326584 
904	 0.176665237227353 
905	 0.176448313379619 
906	 0.177494724119481 
907	 0.178698595279475 
908	 0.178098444368757 
909	 0.177886657239779 
910	 0.178893082958097 
911	 0.18170178016802 
912	 0.183288354933908 
913	 0.182013467832744 
914	 0.179693411031809 
915	 0.178310438548181 
916	 0.179789507669619 
917	 0.181694469784589 
918	 0.183246422893482 
919	 0.184529972739782 
920	 0.182769365515718 
921	 0.178370445903875 
922	 0.178202574285483 
923	 0.180552216463429 
924	 0.183100220567504 
925	 0.18075852392819 
926	 0.175951799926916 
927	 0.176547049465001 
928	 0.179907402080507 
929	 0.183552865008869 
930	 0.179180694890998 
931	 0.176479347322686 
932	 0.182466193090646 
933	 0.175105847691039 
934	 0.168475940995288 
935	 0.187437888410068 
936	 0.1957775474766 
937	 0.189163395195519 
938	 0.180733104340094 
939	 0.180892835625847 
940	 0.188524679500028 
941	 0.179034764176287 
942	 0.176188302487686 
943	 0.194401994489289 
944	 0.199683686756506 
945	 0.194643943406811 
946	 0.19098838759961 
947	 0.180581046094012 
948	 0.16996178264992 
949	 0.184413450446986 
950	 0.195528823974026 
951	 0.192577526294412 
952	 0.187851163873039 
953	 0.182880238466337 
954	 0.179084448193352 
955	 0.181633296206547 
956	 0.186270155406866 
957	 0.184118863173814 
958	 0.186298358939598 
959	 0.190694178019713 
960	 0.181234373322259 
961	 0.174745059264948 
962	 0.17757285658672 
963	 0.177254238194429 
964	 0.178338691353521 
965	 0.185150563078877 
966	 0.18574920383651 
967	 0.183133468163045 
968	 0.187107621664938 
969	 0.187758247760847 
970	 0.184925073281561 
971	 0.188613805622844 
972	 0.188862652271877 
973	 0.182080605260111 
974	 0.182022269997699 
975	 0.183894034085601 
976	 0.181393151999301 
977	 0.183812179345518 
978	 0.1892564826941 
979	 0.190468205659737 
980	 0.188321942494218 
981	 0.184819341692581 
982	 0.18679472601352 
983	 0.188040799602673 
984	 0.185770692137253 
985	 0.184238935286675 
986	 0.186304435037346 
987	 0.193399357002879 
988	 0.188063702417987 
989	 0.178198327803284 
990	 0.186617106924441 
991	 0.187600906180286 
992	 0.180020043346975 
993	 0.185903420885652 
994	 0.191340069894426 
995	 0.190044539850322 
996	 0.190358839378944 
997	 0.189886104831238 
998	 0.18639507617967 
999	 0.187776669832182 
1000	 0.191573374195879 
1001	 0.191216490208077 
1002	 0.190652426095447 
1003	 0.191128809289192 
1004	 0.193708721113747 
1005	 0.195273048366968 
1006	 0.193768771657957 
1007	 0.185347967512577 
1008	 0.18531040951856 
1009	 0.201554897508944 
1010	 0.200429144799306 
1011	 0.189780186081991 
1012	 0.186789046477619 
1013	 0.186061136597896 
1014	 0.185550707615954 
1015	 0.181432115052237 
1016	 0.186216368659718 
1017	 0.198401974705962 
1018	 0.196558632753253 
1019	 0.187546648432068 
1020	 0.179931106250718 
1021	 0.20005604997707 
1022	 0.215435623925073 
1023	 0.195496071586234 
1024	 0.191073477128448 
1025	 0.201901741975034 
1026	 0.212409130328582 
1027	 0.213256021683133 
1028	 0.20335210680626 
1029	 0.187087729161537 
1030	 0.183199441828413 
1031	 0.194934292378851 
1032	 0.200016175885434 
1033	 0.197096315382833 
1034	 0.188412841365855 
1035	 0.192657576124658 
1036	 0.201167347958247 
1037	 0.202830920337516 
1038	 0.208768914345729 
1039	 0.21282297431264 
1040	 0.201655110046037 
1041	 0.207860952470855 
1042	 0.226010480728223 
1043	 0.213285702319716 
1044	 0.193141446640253 
1045	 0.177577324311497 
1046	 0.192028192917635 
1047	 0.208473798591637 
1048	 0.207305149122152 
1049	 0.180507860701718 
1050	 0.168809615517733 
1051	 0.206495890561697 
1052	 0.206755749653794 
1053	 0.184378028680837 
1054	 0.184462009043092 
1055	 0.191248043290997 
1056	 0.19817448190443 
1057	 0.195453734633247 
1058	 0.203576851804884 
1059	 0.22218243822133 
1060	 0.22844205118392 
1061	 0.209842177499832 
1062	 0.169071915711651 
1063	 0.182032210034915 
1064	 0.196856614919475 
1065	 0.181870587556348 
1066	 0.198458979245666 
1067	 0.207083301964918 
1068	 0.163548342445844 
1069	 0.143674598536907 
1070	 0.154219746666236 
1071	 0.178610982461086 
1072	 0.192840947928619 
1073	 0.199465658451782 
1074	 0.219465946429827 
1075	 0.223866120754975 
