Wavelength	AVEI200134.asd
325	 3.79763534339222E-02 
326	 3.59214846770343E-02 
327	 3.20537429598633E-02 
328	 2.59558714426749E-02 
329	 2.85419605427381E-02 
330	 3.98468333647433E-02 
331	 4.11627658094082E-02 
332	 3.66577819186652E-02 
333	 3.18054826680947E-02 
334	 0.032613074718888 
335	 3.67660796920528E-02 
336	 3.69085824342876E-02 
337	 3.39576563611958E-02 
338	 3.00567624168067E-02 
339	 3.40249689027289E-02 
340	 3.74683626500562E-02 
341	 3.40546047747341E-02 
342	 0.033136645392616 
343	 3.42480259559686E-02 
344	 3.36202689511515E-02 
345	 3.37829718199844E-02 
346	 3.47034509995761E-02 
347	 3.37571400024809E-02 
348	 3.32104432430784E-02 
349	 3.43447103779785E-02 
350	 3.43681638178614E-02 
351	 0.033341199752727 
352	 3.18708039273477E-02 
353	 3.10360927935444E-02 
354	 3.13063125283956E-02 
355	 0.033237569043099 
356	 3.44447508922666E-02 
357	 3.37901139336858E-02 
358	 3.45228730328473E-02 
359	 3.50589842097855E-02 
360	 3.24898339645226E-02 
361	 3.14548142827757E-02 
362	 3.22932787502393E-02 
363	 3.17134961180857E-02 
364	 3.26629788874229E-02 
365	 3.57983029595967E-02 
366	 3.50880330250363E-02 
367	 3.24372213216167E-02 
368	 3.11133431503295E-02 
369	 3.11909841671686E-02 
370	 0.032206577127683 
371	 3.23957500941939E-02 
372	 3.24056193027355E-02 
373	 3.24633229199806E-02 
374	 0.031863982052927 
375	 3.10366711352248E-02 
376	 0.030638341333339 
377	 0.030639710269805 
378	 3.07859260535939E-02 
379	 3.01547939668881E-02 
380	 3.01365697140925E-02 
381	 3.11622576057852E-02 
382	 3.12344801854101E-02 
383	 0.030901498133757 
384	 3.11002952747164E-02 
385	 0.030715359053992 
386	 2.97483091100118E-02 
387	 0.028875677175762 
388	 2.86850826046713E-02 
389	 2.92917914459351E-02 
390	 2.95534352330101E-02 
391	 2.98405452664259E-02 
392	 3.06864184073059E-02 
393	 3.10138172997469E-02 
394	 3.05330197997166E-02 
395	 2.88937287736256E-02 
396	 2.85431134625875E-02 
397	 2.99755162711196E-02 
398	 2.96393413979494E-02 
399	 2.89428156960937E-02 
400	 0.029576027814988 
401	 2.93841510971664E-02 
402	 0.028575189882034 
403	 2.84890807718674E-02 
404	 2.89382246642841E-02 
405	 2.95463207496972E-02 
406	 2.84117677771908E-02 
407	 2.72339241241944E-02 
408	 2.82296774926895E-02 
409	 2.87568251276934E-02 
410	 2.84996068171097E-02 
411	 2.83771060793124E-02 
412	 2.81440149579867E-02 
413	 2.78010992085637E-02 
414	 0.027971645206441 
415	 2.82886991115442E-02 
416	 2.82167366411834E-02 
417	 0.028374245124529 
418	 2.87094307173055E-02 
419	 2.86490156949312E-02 
420	 2.84544105941809E-02 
421	 2.83277273704085E-02 
422	 2.86699954461477E-02 
423	 2.89330957121363E-02 
424	 2.82743064620915E-02 
425	 2.77496335852822E-02 
426	 2.76600592652705E-02 
427	 2.79810839818374E-02 
428	 0.028426565279459 
429	 2.87458258934371E-02 
430	 2.87093417908583E-02 
431	 2.84197446167258E-02 
432	 2.80812299633045E-02 
433	 2.82043827291752E-02 
434	 2.86127947271087E-02 
435	 2.81089960734706E-02 
436	 2.76503085845554E-02 
437	 2.78442805430542E-02 
438	 0.028096024053702 
439	 2.81337625102902E-02 
440	 2.75799729748413E-02 
441	 2.74309807854598E-02 
442	 2.78320827759016E-02 
443	 2.79861296218263E-02 
444	 0.027961072850279 
445	 2.78570776500734E-02 
446	 2.79341100711132E-02 
447	 0.028061871050784 
448	 2.78064409269487E-02 
449	 2.77836594473903E-02 
450	 2.81186124638073E-02 
451	 2.83356082566008E-02 
452	 2.83919357504698E-02 
453	 2.82828607647972E-02 
454	 2.81795996420663E-02 
455	 2.81187451949452E-02 
456	 2.80481264285112E-02 
457	 2.81496827717771E-02 
458	 2.84257875285862E-02 
459	 2.84316753543413E-02 
460	 0.028383063567676 
461	 2.85678056652953E-02 
462	 2.83833611952951E-02 
463	 2.79687539167211E-02 
464	 2.81533791771958E-02 
465	 0.028447175905328 
466	 2.85364925256219E-02 
467	 2.81423338399769E-02 
468	 2.76358964999549E-02 
469	 2.75925505934109E-02 
470	 2.80111150338721E-02 
471	 0.028604404582746 
472	 2.84083056088613E-02 
473	 2.81235482736756E-02 
474	 2.81853404875336E-02 
475	 2.82082811885871E-02 
476	 2.81398615609694E-02 
477	 2.79618018299765E-02 
478	 2.79471998415236E-02 
479	 2.80761921588075E-02 
480	 0.02787727916017 
481	 0.027732683123626 
482	 2.79327687316981E-02 
483	 2.79778123050118E-02 
484	 2.79492710408122E-02 
485	 2.82465433394317E-02 
486	 2.85756565959698E-02 
487	 2.87810410576145E-02 
488	 2.87233593318212E-02 
489	 2.85230267790729E-02 
490	 2.83344788843239E-02 
491	 2.84643360895265E-02 
492	 2.87457013091887E-02 
493	 2.85654946149331E-02 
494	 2.83606836371354E-02 
495	 2.83196030986054E-02 
496	 2.82863005051125E-02 
497	 2.84604174814632E-02 
498	 2.91094382996676E-02 
499	 2.92300611857907E-02 
500	 2.88948975211875E-02 
501	 0.029261195283875 
502	 2.97190606210401E-02 
503	 2.98926402323657E-02 
504	 2.99347447868317E-02 
505	 2.99681734242429E-02 
506	 3.01577236564228E-02 
507	 3.04211289158379E-02 
508	 3.07451707163892E-02 
509	 3.11620017410697E-02 
510	 3.16124799321602E-02 
511	 3.20336694570041E-02 
512	 3.22856373828146E-02 
513	 3.24215112180993E-02 
514	 3.25690287909467E-02 
515	 3.30039290211205E-02 
516	 0.033707281247849 
517	 3.39368132303561E-02 
518	 3.40627544059445E-02 
519	 3.45356722491219E-02 
520	 3.50874056072202E-02 
521	 3.57302508385964E-02 
522	 3.67386630700961E-02 
523	 3.74125981526906E-02 
524	 3.75177395915033E-02 
525	 3.78081605616041E-02 
526	 0.03832145570427 
527	 3.89886702882207E-02 
528	 3.93849786510274E-02 
529	 3.95340950099468E-02 
530	 3.99354396950814E-02 
531	 0.040519833250146 
532	 4.11934809582363E-02 
533	 4.15548779998371E-02 
534	 4.16716820152043E-02 
535	 4.17837617654351E-02 
536	 4.20116543706688E-02 
537	 4.23698239894723E-02 
538	 4.26529400048701E-02 
539	 4.28946014893082E-02 
540	 0.043132456996399 
541	 4.32997895691242E-02 
542	 4.34157280892564E-02 
543	 4.35282329883602E-02 
544	 4.38103038421309E-02 
545	 0.04426996506663 
546	 4.44524436382418E-02 
547	 4.45448732673697E-02 
548	 4.48452151469183E-02 
549	 4.49638039789293E-02 
550	 4.49001551206197E-02 
551	 4.49472520910725E-02 
552	 4.51610632821508E-02 
553	 4.55305070017778E-02 
554	 4.56241856347701E-02 
555	 4.55731264647484E-02 
556	 0.045743043604483 
557	 4.58829808924269E-02 
558	 4.58944277315532E-02 
559	 4.57032328839346E-02 
560	 4.55031564596279E-02 
561	 4.54748820807066E-02 
562	 4.55255667499289E-02 
563	 4.55806027246281E-02 
564	 4.55024048021263E-02 
565	 4.54077891772103E-02 
566	 4.53185233765613E-02 
567	 4.50660508853675E-02 
568	 4.47945054570349E-02 
569	 4.47015306124381E-02 
570	 4.44495771772066E-02 
571	 4.40808141782738E-02 
572	 4.40479068946149E-02 
573	 4.39120173299926E-02 
574	 4.34670968921819E-02 
575	 4.34013920515443E-02 
576	 4.34823482613268E-02 
577	 4.31176122893653E-02 
578	 4.27577312099885E-02 
579	 4.25291855004864E-02 
580	 4.22946472145493E-02 
581	 4.22077363826136E-02 
582	 0.042366166153458 
583	 4.22022723729626E-02 
584	 4.18281952086087E-02 
585	 4.17938929425029E-02 
586	 4.18930326590745E-02 
587	 0.041985365152868 
588	 4.16947126555993E-02 
589	 4.13158189199085E-02 
590	 4.12881613218507E-02 
591	 4.11008443549867E-02 
592	 4.08019151488064E-02 
593	 4.09310492262877E-02 
594	 4.11248136109648E-02 
595	 4.11559858945898E-02 
596	 4.10732331500318E-02 
597	 4.08909183711785E-02 
598	 4.06036766155692E-02 
599	 4.05811263910663E-02 
600	 4.08342595189802E-02 
601	 4.08540523325788E-02 
602	 4.07680606199177E-02 
603	 4.07192372856779E-02 
604	 0.040870272227161 
605	 4.10640112897669E-02 
606	 4.08481440512229E-02 
607	 4.04808419938955E-02 
608	 4.01175553710727E-02 
609	 4.00059253757683E-02 
610	 4.00316117181492E-02 
611	 4.00148640682427E-02 
612	 3.98312851157287E-02 
613	 3.95321527841683E-02 
614	 3.94031784681539E-02 
615	 3.93591255532227E-02 
616	 3.93249057653941E-02 
617	 3.91226355460686E-02 
618	 3.88758117412117E-02 
619	 3.88486462326979E-02 
620	 0.038693392651672 
621	 3.84001740763077E-02 
622	 3.84055017654134E-02 
623	 3.83978242140433E-02 
624	 3.81414846155503E-02 
625	 0.038629599641071 
626	 3.93775513756778E-02 
627	 3.86305046651851E-02 
628	 3.80186291321781E-02 
629	 3.81727596253353E-02 
630	 0.038586592219714 
631	 0.038899257620603 
632	 3.87291162001833E-02 
633	 3.86268597708037E-02 
634	 3.86868135772567E-02 
635	 3.87853754993126E-02 
636	 0.03867410305191 
637	 3.82262176657009E-02 
638	 3.77194535436165E-02 
639	 3.73319174114091E-02 
640	 3.73153450651793E-02 
641	 3.70890152904233E-02 
642	 0.036545149894935 
643	 3.61182005244686E-02 
644	 3.56559027692523E-02 
645	 3.50273722013029E-02 
646	 3.44898973726632E-02 
647	 3.41933885197634E-02 
648	 3.44318839519889E-02 
649	 3.44895194023089E-02 
650	 3.41531807868581E-02 
651	 3.41341971327144E-02 
652	 3.42070494115877E-02 
653	 3.40359605375458E-02 
654	 3.35375058130514E-02 
655	 3.29801139704834E-02 
656	 3.34249137668949E-02 
657	 3.39363818653224E-02 
658	 3.39066754737314E-02 
659	 3.35621076448805E-02 
660	 3.30799007684393E-02 
661	 0.032667871210276 
662	 3.24698828682572E-02 
663	 3.24272092262887E-02 
664	 3.20490873924832E-02 
665	 3.17045963609049E-02 
666	 3.16966204150601E-02 
667	 0.031711289619795 
668	 3.15941012962113E-02 
669	 3.10437305343869E-02 
670	 3.08859918155879E-02 
671	 3.12218856137903E-02 
672	 3.06243104716728E-02 
673	 3.01162442334654E-02 
674	 3.09466890993477E-02 
675	 3.13593273580168E-02 
676	 3.11959231073787E-02 
677	 3.12683404217895E-02 
678	 3.14093741446083E-02 
679	 3.15548904891934E-02 
680	 3.17766584804424E-02 
681	 3.20426776863623E-02 
682	 3.22852166584405E-02 
683	 3.26889412385894E-02 
684	 3.33033045025838E-02 
685	 3.41184079446365E-02 
686	 3.50489653188564E-02 
687	 3.60226838960908E-02 
688	 3.72674124955198E-02 
689	 3.85962195508235E-02 
690	 3.97404737954747E-02 
691	 4.10409430888734E-02 
692	 4.26621886271283E-02 
693	 4.45389422443173E-02 
694	 4.67831241684211E-02 
695	 4.93751086298865E-02 
696	 5.16033768902804E-02 
697	 5.35983077417243E-02 
698	 5.61904498650428E-02 
699	 0.059118143408883 
700	 6.21567588555877E-02 
701	 6.48643256239225E-02 
702	 6.74871580347246E-02 
703	 0.070446232827066 
704	 7.35648605092441E-02 
705	 7.66887997943547E-02 
706	 7.92994561560553E-02 
707	 8.20126397523443E-02 
708	 8.51631809660181E-02 
709	 8.79988992938847E-02 
710	 9.06484534568475E-02 
711	 9.36048933421971E-02 
712	 9.61614565388653E-02 
713	 9.82137839740412E-02 
714	 0.100403286389385 
715	 0.102559104070022 
716	 0.104607748178833 
717	 0.10644848298248 
718	 0.108416115745388 
719	 0.111237190679764 
720	 0.113832712717446 
721	 0.115687839838257 
722	 0.117367383959971 
723	 0.118954844209601 
724	 0.120352940688209 
725	 0.122021864058785 
726	 0.123715625634164 
727	 0.124695131469948 
728	 0.125891701893955 
729	 0.127638255536921 
730	 0.128741505362784 
731	 0.129525291194188 
732	 0.130600709710833 
733	 0.131697589638435 
734	 0.132787309323006 
735	 0.133881398577723 
736	 0.134976043229946 
737	 0.135997548871429 
738	 0.136717676590803 
739	 0.137292170322014 
740	 0.138077105672762 
741	 0.138557751703336 
742	 0.138784597167964 
743	 0.139646500516301 
744	 0.140514628670574 
745	 0.140870496756498 
746	 0.141247087387204 
747	 0.141800207066414 
748	 0.142717335159866 
749	 0.143474701182062 
750	 0.143843473704213 
751	 0.143818568449244 
752	 0.143897048957178 
753	 0.144570893134339 
754	 0.144993064156249 
755	 0.145229911101437 
756	 0.146059699823647 
757	 0.14658736136692 
758	 0.146497510044789 
759	 0.146629672314337 
760	 0.147311835265788 
761	 0.148446945533212 
762	 0.147957299063222 
763	 0.146770517025258 
764	 0.147839183666885 
765	 0.149175739196677 
766	 0.149937167728876 
767	 0.150150324653528 
768	 0.150244063860735 
769	 0.150663707717902 
770	 0.151035217046084 
771	 0.151330575966168 
772	 0.15178147976682 
773	 0.152163392577682 
774	 0.15237831852368 
775	 0.153004803299544 
776	 0.153685404834966 
777	 0.15363396698519 
778	 0.153750793246222 
779	 0.154194679661981 
780	 0.154384005047315 
781	 0.154582853149128 
782	 0.154989591935604 
783	 0.155295729847708 
784	 0.155482553685648 
785	 0.155632597920516 
786	 0.155634684153036 
787	 0.155599613401785 
788	 0.156199300070318 
789	 0.156775911732926 
790	 0.156729542696842 
791	 0.157003440784314 
792	 0.15757165137871 
793	 0.15801817245723 
794	 0.157977565778173 
795	 0.157452370294186 
796	 0.157208682439505 
797	 0.157398159677163 
798	 0.158077339491347 
799	 0.15870001848315 
800	 0.159010570014534 
801	 0.158590959386759 
802	 0.158581109316143 
803	 0.159346439798073 
804	 0.160022807493853 
805	 0.160474496768082 
806	 0.160655356825739 
807	 0.160956714873365 
808	 0.161363793866409 
809	 0.16151545848984 
810	 0.161933850632793 
811	 0.162662534547244 
812	 0.162496039328825 
813	 0.161749180372696 
814	 0.161037733919184 
815	 0.16155335245487 
816	 0.163163726000998 
817	 0.164337733936033 
818	 0.164700074072747 
819	 0.164329967172246 
820	 0.164809790724057 
821	 0.165422855957791 
822	 0.165220487856883 
823	 0.165889671026732 
824	 0.167208099245358 
825	 0.167610383459109 
826	 0.167711606044948 
827	 0.167754983145874 
828	 0.16749976491952 
829	 0.167698031489846 
830	 0.16918019255096 
831	 0.169450430866822 
832	 0.168782113422286 
833	 0.169640220045092 
834	 0.170370275007826 
835	 0.170394338896999 
836	 0.170600214008442 
837	 0.17101930224771 
838	 0.171587601569508 
839	 0.171725358656164 
840	 0.171603440396333 
841	 0.172081401365197 
842	 0.172536688655568 
843	 0.172753122971414 
844	 0.173166188367607 
845	 0.17335453351482 
846	 0.172863943932626 
847	 0.172830377417842 
848	 0.173297329459844 
849	 0.173628869686007 
850	 0.174091656391286 
851	 0.174584480534993 
852	 0.174088896561955 
853	 0.173364405987809 
854	 0.173321515633387 
855	 0.173858007096626 
856	 0.174640884837148 
857	 0.174980462506816 
858	 0.174935706818881 
859	 0.174672028608054 
860	 0.174891868940277 
861	 0.175569652262377 
862	 0.176512096591002 
863	 0.175835016553604 
864	 0.174632753856832 
865	 0.17644238815374 
866	 0.17723651778147 
867	 0.176187473987193 
868	 0.176293429127778 
869	 0.176877456903321 
870	 0.177349465561358 
871	 0.17867368234913 
872	 0.179927589610888 
873	 0.179074307484964 
874	 0.17886323835633 
875	 0.179874217718567 
876	 0.180683745413884 
877	 0.181362919553426 
878	 0.181969178856342 
879	 0.182583694617077 
880	 0.183124828214735 
881	 0.183440831736151 
882	 0.183873705013173 
883	 0.184617427096736 
884	 0.186151729520462 
885	 0.186717215179407 
886	 0.185650761203438 
887	 0.185626847052965 
888	 0.187001410983861 
889	 0.189724444676631 
890	 0.18962267847429 
891	 0.187200148439366 
892	 0.187416466179531 
893	 0.188484521803093 
894	 0.189445766538439 
895	 0.189196329565938 
896	 0.188823695435618 
897	 0.189690350163292 
898	 0.189474193403989 
899	 0.188906095051456 
900	 0.191169060459081 
901	 0.191722387427589 
902	 0.190153704466246 
903	 0.191978381089419 
904	 0.193141090796472 
905	 0.190809709301667 
906	 0.190435737180565 
907	 0.191488014116471 
908	 0.191570386352736 
909	 0.191472313271879 
910	 0.191426633325756 
911	 0.191738962694391 
912	 0.191657762152238 
913	 0.191005482643249 
914	 0.19160179781478 
915	 0.192774580664187 
916	 0.19343053154125 
917	 0.192533608976798 
918	 0.191077136882615 
919	 0.192255894345994 
920	 0.193333020086997 
921	 0.193557430316079 
922	 0.194548501775044 
923	 0.194456958666713 
924	 0.191984512461827 
925	 0.193382773164154 
926	 0.19629896116966 
927	 0.193026156930877 
928	 0.188555800703703 
929	 0.185003981410368 
930	 0.183618245518199 
931	 0.182244173364581 
932	 0.179516554835903 
933	 0.180815677819931 
934	 0.183837397163184 
935	 0.183691494023175 
936	 0.182425014453014 
937	 0.181244375441237 
938	 0.182729920196404 
939	 0.179030209344761 
940	 0.170435833695506 
941	 0.169068421963042 
942	 0.171621998049081 
943	 0.174617661980519 
944	 0.171378609630456 
945	 0.169052211023713 
946	 0.180048583665407 
947	 0.180726716055856 
948	 0.172898651016798 
949	 0.184415583489168 
950	 0.185217128126297 
951	 0.167855303133463 
952	 0.165562066456669 
953	 0.168842274804216 
954	 0.167302508216805 
955	 0.168474394645472 
956	 0.170173400230814 
957	 0.166925988813402 
958	 0.164181270276712 
959	 0.162985061356726 
960	 0.161145821391137 
961	 0.160701206307959 
962	 0.162247694647334 
963	 0.163470715747227 
964	 0.164671072904435 
965	 0.16612249913941 
966	 0.164182600847414 
967	 0.16085059918735 
968	 0.160655181375351 
969	 0.164890570113541 
970	 0.171292537200497 
971	 0.171067872434236 
972	 0.167563689848632 
973	 0.163585781307708 
974	 0.163487292557473 
975	 0.165930097007208 
976	 0.168674923169665 
977	 0.169466515582324 
978	 0.169262362726745 
979	 0.171762450711289 
980	 0.167575674082766 
981	 0.159278046628352 
982	 0.166474645030426 
983	 0.173135557584709 
984	 0.171260527997799 
985	 0.169981008418 
986	 0.168751841294474 
987	 0.16669754911452 
988	 0.170524911926375 
989	 0.176033346359945 
990	 0.172713101065985 
991	 0.168436892635627 
992	 0.16706283127817 
993	 0.173662735148109 
994	 0.178155931605738 
995	 0.175642746850349 
996	 0.170537511856946 
997	 0.168141477585062 
998	 0.172706085253495 
999	 0.176781091871042 
1000	 0.179027331298891 
1001	 0.179546973676879 
1002	 0.180415516289203 
1003	 0.180773695331545 
1004	 0.175364141111506 
1005	 0.172635955765974 
1006	 0.176622783437392 
1007	 0.188048658341186 
1008	 0.192558619534685 
1009	 0.181838369834148 
1010	 0.183947512018657 
1011	 0.190530126419872 
1012	 0.185229775334378 
1013	 0.185388970602545 
1014	 0.190564380300429 
1015	 0.19128583057854 
1016	 0.186061868838955 
1017	 0.177662947415388 
1018	 0.180023764146858 
1019	 0.182543116850256 
1020	 0.180617487857639 
1021	 0.18709095923213 
1022	 0.190349920713014 
1023	 0.180074088340918 
1024	 0.181703345903703 
1025	 0.190511423963747 
1026	 0.191879007626355 
1027	 0.190993087010617 
1028	 0.189593318400797 
1029	 0.189761668011726 
1030	 0.188968903967898 
1031	 0.187755685138768 
1032	 0.192789712282959 
1033	 0.194260780352646 
1034	 0.188692295967228 
1035	 0.198456391641242 
1036	 0.2054048691133 
1037	 0.191169709614589 
1038	 0.192790159569 
1039	 0.203922158174267 
1040	 0.203020796324417 
1041	 0.201668008353982 
1042	 0.201189059937451 
1043	 0.197034867993421 
1044	 0.197898008653702 
1045	 0.204870714141431 
1046	 0.209955017533915 
1047	 0.203013590906541 
1048	 0.182990497447333 
1049	 0.182056307262546 
1050	 0.190480244737906 
1051	 0.195048664123328 
1052	 0.195049491764582 
1053	 0.193367542785468 
1054	 0.195263244035416 
1055	 0.204948562948555 
1056	 0.213793559752982 
1057	 0.197629843083845 
1058	 0.187353331109198 
1059	 0.191938939442914 
1060	 0.20937869401649 
1061	 0.216530868315306 
1062	 0.204797219668618 
1063	 0.188100838012708 
1064	 0.185793849906557 
1065	 0.204241277723137 
1066	 0.192103179832863 
1067	 0.175605308637695 
1068	 0.188623585161689 
1069	 0.195945100115538 
1070	 0.19438715771935 
1071	 0.189563291000873 
1072	 0.164698426281237 
1073	 0.139811490125673 
1074	 0.177484681333958 
1075	 0.20272710921711 
