Wavelength	AVEI200237.asd
325	 5.51090756889687E-02 
326	 5.65771996283745E-02 
327	 6.40101383259807E-02 
328	 5.90389993809225E-02 
329	 5.41872246841649E-02 
330	 5.39280079633713E-02 
331	 5.71014357055289E-02 
332	 5.84463900744744E-02 
333	 0.053748497222852 
334	 5.61445996973825E-02 
335	 6.24645531045375E-02 
336	 0.059806042022422 
337	 5.98692507243687E-02 
338	 6.42385248952664E-02 
339	 0.063480809518727 
340	 6.09805050815548E-02 
341	 5.98957409275889E-02 
342	 5.92235099546769E-02 
343	 5.89864475781233E-02 
344	 5.93346928635018E-02 
345	 0.060094995079608 
346	 6.11501736347442E-02 
347	 6.26053963534252E-02 
348	 6.33633250702059E-02 
349	 6.28646862398466E-02 
350	 0.06289856451499 
351	 6.31566476596875E-02 
352	 6.26870272908455E-02 
353	 6.33752238162581E-02 
354	 6.46594332437116E-02 
355	 6.26876402690332E-02 
356	 6.15360038139466E-02 
357	 6.31899147760463E-02 
358	 6.23390576296007E-02 
359	 0.06097538150807 
360	 6.29735862078844E-02 
361	 0.063749872912868 
362	 6.30774229342737E-02 
363	 6.42352462703582E-02 
364	 6.50357831802613E-02 
365	 6.44544489751611E-02 
366	 6.38103549783939E-02 
367	 6.35991599903893E-02 
368	 6.42525768977772E-02 
369	 6.52867161213784E-02 
370	 6.61696471828626E-02 
371	 6.56644886176463E-02 
372	 6.53651664020016E-02 
373	 6.60914103055919E-02 
374	 6.71567834900357E-02 
375	 6.74765607184639E-02 
376	 6.57767666480574E-02 
377	 6.38681979717585E-02 
378	 6.28859426284034E-02 
379	 6.49416977451855E-02 
380	 6.59613188755589E-02 
381	 6.43021033574812E-02 
382	 0.064020541862572 
383	 0.064860245880597 
384	 6.59521643912532E-02 
385	 6.52831291605958E-02 
386	 6.34079947345993E-02 
387	 0.063463487836468 
388	 6.48384522026385E-02 
389	 6.67119721900207E-02 
390	 0.066163762945319 
391	 6.52212744882293E-02 
392	 6.64546919460475E-02 
393	 0.066804673199465 
394	 6.63586648292629E-02 
395	 6.73636940582819E-02 
396	 6.75982793943412E-02 
397	 6.64030551607685E-02 
398	 6.55448639692854E-02 
399	 6.52979347895504E-02 
400	 6.56863254469471E-02 
401	 6.62411930638685E-02 
402	 6.68473395489791E-02 
403	 6.76113330603828E-02 
404	 6.81073535313913E-02 
405	 6.82147846750432E-02 
406	 6.83885757253213E-02 
407	 0.068404369433124 
408	 6.79479185989218E-02 
409	 6.78446550423522E-02 
410	 6.80640879621833E-02 
411	 6.79022982001003E-02 
412	 6.79025900626668E-02 
413	 6.82499670827527E-02 
414	 6.83956234326948E-02 
415	 6.85085942165391E-02 
416	 6.88725386680851E-02 
417	 6.91171359707436E-02 
418	 6.91452300086453E-02 
419	 6.88424211070726E-02 
420	 6.89988262254647E-02 
421	 6.98633492124068E-02 
422	 6.99011254692191E-02 
423	 6.96239307791228E-02 
424	 7.00261066961783E-02 
425	 0.070262573646046 
426	 7.03225386629388E-02 
427	 7.09237248041809E-02 
428	 7.15640243484843E-02 
429	 7.18652411840241E-02 
430	 7.16928015126908E-02 
431	 7.13757333359229E-02 
432	 7.14682168296208E-02 
433	 7.16640517326655E-02 
434	 7.19229625744238E-02 
435	 7.24402026895323E-02 
436	 0.072800899306971 
437	 7.27807720236465E-02 
438	 7.29482261162239E-02 
439	 7.32337996986876E-02 
440	 7.33364943729175E-02 
441	 7.36515625499203E-02 
442	 7.41299715813917E-02 
443	 7.40470088060999E-02 
444	 7.40072165650272E-02 
445	 7.44777780921828E-02 
446	 7.47640619188528E-02 
447	 7.49070730984595E-02 
448	 0.075280919315633 
449	 7.54913056538568E-02 
450	 0.075498894727546 
451	 7.58121202809191E-02 
452	 7.60808983476087E-02 
453	 7.59627127493215E-02 
454	 0.076079668275105 
455	 7.64389221803864E-02 
456	 7.67027568210004E-02 
457	 7.69757953722024E-02 
458	 7.72733825567555E-02 
459	 7.75120447875518E-02 
460	 7.77285833006749E-02 
461	 7.79729704116591E-02 
462	 7.81808385170269E-02 
463	 7.83169720240566E-02 
464	 7.83403580412992E-02 
465	 7.82577863070578E-02 
466	 0.078116437390665 
467	 7.81462967054312E-02 
468	 7.83480182112421E-02 
469	 7.86759452086513E-02 
470	 7.88999927856846E-02 
471	 7.90151865651578E-02 
472	 7.92939243390995E-02 
473	 7.94956853813351E-02 
474	 7.94793513523368E-02 
475	 7.93592174572175E-02 
476	 7.94466699660774E-02 
477	 8.02698560823248E-02 
478	 8.07267879115634E-02 
479	 8.06273951031594E-02 
480	 8.07310914185446E-02 
481	 8.08554908721601E-02 
482	 8.08584791415898E-02 
483	 8.10143995221457E-02 
484	 8.12600031190586E-02 
485	 8.13684732569633E-02 
486	 8.12316933355991E-02 
487	 8.09337720208839E-02 
488	 8.11527079159668E-02 
489	 0.081448507842439 
490	 8.13539229763274E-02 
491	 8.15259054363968E-02 
492	 8.19605842795698E-02 
493	 8.23308996585355E-02 
494	 8.26056603580321E-02 
495	 8.27326666959437E-02 
496	 8.25565062113554E-02 
497	 8.24726719551524E-02 
498	 0.082990011495048 
499	 8.37661231013799E-02 
500	 8.44565176040627E-02 
501	 8.43006629200715E-02 
502	 8.39598512346795E-02 
503	 0.083896404907197 
504	 8.42078804466668E-02 
505	 8.46827550272287E-02 
506	 8.49580848311466E-02 
507	 8.50716192263888E-02 
508	 8.51233477978901E-02 
509	 0.085520402818307 
510	 8.58221508360253E-02 
511	 8.57165176975401E-02 
512	 8.58898846348072E-02 
513	 8.63284312337631E-02 
514	 8.67587889300617E-02 
515	 8.70298571773429E-02 
516	 8.71200097786319E-02 
517	 8.73733490445401E-02 
518	 8.76073926251997E-02 
519	 8.76069787727006E-02 
520	 8.75968112622011E-02 
521	 8.76821325476027E-02 
522	 8.79828286315932E-02 
523	 8.84016557842466E-02 
524	 8.88300240928231E-02 
525	 8.89290317389967E-02 
526	 8.88527710585196E-02 
527	 0.08886050171757 
528	 0.089145748168789 
529	 8.96700589885768E-02 
530	 9.01612138787087E-02 
531	 9.03832514036923E-02 
532	 9.02396441801381E-02 
533	 9.03842384795434E-02 
534	 9.07052830888881E-02 
535	 9.07691521989492E-02 
536	 9.09163368857523E-02 
537	 9.12084680503434E-02 
538	 9.14239749198845E-02 
539	 9.16345702555924E-02 
540	 9.19003655661387E-02 
541	 9.18331361753187E-02 
542	 9.16746092898036E-02 
543	 9.22921330810515E-02 
544	 9.27578591035799E-02 
545	 9.27393797091393E-02 
546	 9.28070722112573E-02 
547	 0.092987104988666 
548	 9.32401170759466E-02 
549	 0.093632555437472 
550	 9.40038864136365E-02 
551	 9.37687572416988E-02 
552	 9.36195412922097E-02 
553	 9.39767002128204E-02 
554	 0.094412084168945 
555	 9.46873915647415E-02 
556	 9.44436452214094E-02 
557	 9.46128957112237E-02 
558	 9.52953518640652E-02 
559	 9.54502050098132E-02 
560	 9.53403922695232E-02 
561	 9.52647388067293E-02 
562	 9.52926338109242E-02 
563	 9.54379131057517E-02 
564	 9.56729062437897E-02 
565	 9.59076047112065E-02 
566	 9.60815314669127E-02 
567	 9.61538350919895E-02 
568	 9.61655609398961E-02 
569	 9.61753081993552E-02 
570	 0.096380791028934 
571	 9.67101350705036E-02 
572	 9.67463797122828E-02 
573	 9.67552163874455E-02 
574	 9.68870004086052E-02 
575	 9.69359894158258E-02 
576	 9.69844851091105E-02 
577	 9.72426378849181E-02 
578	 0.097272765188898 
579	 9.71292052658114E-02 
580	 0.097737319761826 
581	 0.098183783248808 
582	 9.77075803054274E-02 
583	 9.75721452554019E-02 
584	 9.77736324880358E-02 
585	 9.76271805389702E-02 
586	 9.77476649443105E-02 
587	 9.82532419166456E-02 
588	 9.82869756791352E-02 
589	 9.81836952647669E-02 
590	 9.84802896808418E-02 
591	 9.85610631443273E-02 
592	 9.83576456015458E-02 
593	 9.80859500145349E-02 
594	 9.81038041979537E-02 
595	 9.85504639867481E-02 
596	 0.09867022373078 
597	 0.098538759641465 
598	 0.098461232047495 
599	 9.86042714554578E-02 
600	 9.89125051261981E-02 
601	 9.88707599059226E-02 
602	 9.86578534984868E-02 
603	 9.84819029993402E-02 
604	 9.86717691852443E-02 
605	 9.90957199833992E-02 
606	 9.93264543440545E-02 
607	 9.92260690655137E-02 
608	 9.88367276090267E-02 
609	 9.89101084855529E-02 
610	 9.91108250152463E-02 
611	 0.098932022018726 
612	 9.88314110158175E-02 
613	 9.88666194459737E-02 
614	 9.88570987367071E-02 
615	 9.88226046806621E-02 
616	 9.87721171982309E-02 
617	 9.86849387625337E-02 
618	 9.86412755650704E-02 
619	 0.098771201702617 
620	 9.90264144495654E-02 
621	 9.92943857252269E-02 
622	 9.91749583925301E-02 
623	 9.90805795572481E-02 
624	 9.93593153894895E-02 
625	 9.93452314075325E-02 
626	 0.099132860653859 
627	 9.93151188277966E-02 
628	 9.93924270014791E-02 
629	 9.92315118113382E-02 
630	 9.92981794331545E-02 
631	 9.93734035444496E-02 
632	 9.91454579317563E-02 
633	 9.92301874905416E-02 
634	 0.099658416205519 
635	 0.100108195401791 
636	 0.10016971165151 
637	 9.96877931324244E-02 
638	 9.95617355400238E-02 
639	 9.98006441757569E-02 
640	 0.100212514574177 
641	 0.100317646146266 
642	 0.100087423426652 
643	 0.100170761039432 
644	 0.100461933383294 
645	 0.100819990440913 
646	 0.100890751238923 
647	 0.100723129203585 
648	 0.100632619106698 
649	 0.100621066795531 
650	 0.100703303936674 
651	 0.100871356351954 
652	 0.100942672157837 
653	 0.100711895361961 
654	 0.100513182216023 
655	 0.100393476220649 
656	 0.100242686952271 
657	 0.100020903988269 
658	 9.96701844429971E-02 
659	 9.88180331925882E-02 
660	 9.80724042349912E-02 
661	 9.84694461604713E-02 
662	 0.098660319899258 
663	 9.82926897003139E-02 
664	 9.76870293093799E-02 
665	 9.72386388640323E-02 
666	 9.72437472351623E-02 
667	 9.71691941694844E-02 
668	 0.096984077958304 
669	 9.68713503283339E-02 
670	 9.67164350085756E-02 
671	 9.65156672927456E-02 
672	 9.64329649345178E-02 
673	 9.65124176624454E-02 
674	 9.67749583392218E-02 
675	 9.67825337902617E-02 
676	 9.65809063951845E-02 
677	 9.66048778169057E-02 
678	 9.68447127580864E-02 
679	 9.72651326471621E-02 
680	 9.76141166248144E-02 
681	 9.78135013823058E-02 
682	 9.77849648018296E-02 
683	 9.81378684458804E-02 
684	 0.098880872756261 
685	 9.92809286853573E-02 
686	 9.97392668126997E-02 
687	 0.100567493947733 
688	 0.101087242860862 
689	 0.101285168108317 
690	 0.101501336057422 
691	 0.101985480415003 
692	 0.102784586101328 
693	 0.103620473226736 
694	 0.104138933035459 
695	 0.104010810367035 
696	 0.104172772160374 
697	 0.104581527145069 
698	 0.104507735421008 
699	 0.104708478322868 
700	 0.105408833995751 
701	 0.105537128913725 
702	 0.105376901891701 
703	 0.10548728373079 
704	 0.105611279705565 
705	 0.105822967048675 
706	 0.106616904935309 
707	 0.107090135491019 
708	 0.106742136554751 
709	 0.106704215923548 
710	 0.10686469597344 
711	 0.106680475722285 
712	 0.106703876171043 
713	 0.10709220888883 
714	 0.107777422598094 
715	 0.10833182268245 
716	 0.10838232214151 
717	 0.108364355397615 
718	 0.108407859436978 
719	 0.108612665262524 
720	 0.1086428076168 
721	 0.108487784647841 
722	 0.10859398616218 
723	 0.109055009430607 
724	 0.109957310219055 
725	 0.109836425636961 
726	 0.108979136438853 
727	 0.109485734269656 
728	 0.109890117789013 
729	 0.109582054588347 
730	 0.109713742447754 
731	 0.109961068685385 
732	 0.109729774707937 
733	 0.109519904534958 
734	 0.109413791020019 
735	 0.109191771999682 
736	 0.109405117805576 
737	 0.110276912661314 
738	 0.110359731005565 
739	 0.109941838711736 
740	 0.109952081484605 
741	 0.109918468434858 
742	 0.109839857775897 
743	 0.110271122276494 
744	 0.110541183001736 
745	 0.110132516863072 
746	 0.11004672327956 
747	 0.11019716989601 
748	 0.109841770564013 
749	 0.110055912322737 
750	 0.11094789048824 
751	 0.110926391079463 
752	 0.110548077135647 
753	 0.110528292581249 
754	 0.110707745430436 
755	 0.111062389331822 
756	 0.111705349689263 
757	 0.111691582464827 
758	 0.110748510916906 
759	 0.1109929918463 
760	 0.112378368483845 
761	 0.112518063656541 
762	 0.112568991317025 
763	 0.112846251381944 
764	 0.113057914767424 
765	 0.113263098798056 
766	 0.113398519613918 
767	 0.11300682232211 
768	 0.112654551788561 
769	 0.11303310566142 
770	 0.113057950446219 
771	 0.11266001242162 
772	 0.112574596021858 
773	 0.112629939710578 
774	 0.112696893593049 
775	 0.112657145838629 
776	 0.11266273258972 
777	 0.113037063466499 
778	 0.113219757799999 
779	 0.113162056485903 
780	 0.113462773540714 
781	 0.113703757395495 
782	 0.11358657340995 
783	 0.113761710187052 
784	 0.11405722068886 
785	 0.113865894216588 
786	 0.113791869158719 
787	 0.113993726809179 
788	 0.114199548879606 
789	 0.114310209918645 
790	 0.114259096626896 
791	 0.114339907935336 
792	 0.114468713053406 
793	 0.11423842102295 
794	 0.114433890937095 
795	 0.115074378238346 
796	 0.114619926460447 
797	 0.114394571259303 
798	 0.115670118416562 
799	 0.115686394640419 
800	 0.114792218798349 
801	 0.115495114343073 
802	 0.115899443155739 
803	 0.115445397461856 
804	 0.115274402553069 
805	 0.115307697465778 
806	 0.115369056576914 
807	 0.115478831793098 
808	 0.115581713831374 
809	 0.115536552884278 
810	 0.115458512373485 
811	 0.115461185338926 
812	 0.115922901044866 
813	 0.116290913028184 
814	 0.115807703532613 
815	 0.115872312357813 
816	 0.116537101893887 
817	 0.116699718882449 
818	 0.116827002999571 
819	 0.117025089247033 
820	 0.116765102319961 
821	 0.116520716857911 
822	 0.116881065257005 
823	 0.117599034881762 
824	 0.118221717952147 
825	 0.117845228003152 
826	 0.117099477496673 
827	 0.116416058170764 
828	 0.116654552084696 
829	 0.117402155476926 
830	 0.117997100286124 
831	 0.117648948791377 
832	 0.116783744107634 
833	 0.117189551797502 
834	 0.11745803470013 
835	 0.117020738053054 
836	 0.116146671213941 
837	 0.115891868686649 
838	 0.117292993815016 
839	 0.116974015553332 
840	 0.11553757175234 
841	 0.116880295459483 
842	 0.118168086514299 
843	 0.118116014540666 
844	 0.116770733297741 
845	 0.115547334917252 
846	 0.115984973614685 
847	 0.116827480502678 
848	 0.117537187664474 
849	 0.117429426470878 
850	 0.117238102290063 
851	 0.117302980785068 
852	 0.117695827594111 
853	 0.117745163211983 
854	 0.116828524648886 
855	 0.116816303003635 
856	 0.117375317096747 
857	 0.11662804239485 
858	 0.116280082760914 
859	 0.116805939868552 
860	 0.117470126067757 
861	 0.118156282903965 
862	 0.118744702733702 
863	 0.118828819475745 
864	 0.118440389404802 
865	 0.117738677864493 
866	 0.117858438292506 
867	 0.118825882035618 
868	 0.118709466479691 
869	 0.118184678970099 
870	 0.117863747050949 
871	 0.117371496772383 
872	 0.1168795879141 
873	 0.116769966071082 
874	 0.11691890176427 
875	 0.117382379683655 
876	 0.118699509311667 
877	 0.119225038887647 
878	 0.117998922743853 
879	 0.117210803270287 
880	 0.117284904198437 
881	 0.118329270465151 
882	 0.119260114858476 
883	 0.119555785636175 
884	 0.118679959612087 
885	 0.118126074667149 
886	 0.118640595126877 
887	 0.118859045428125 
888	 0.118770225528002 
889	 0.118558269690486 
890	 0.117448137503148 
891	 0.116207686861374 
892	 0.117784951993075 
893	 0.119611405749906 
894	 0.120379932575926 
895	 0.120531515800566 
896	 0.120195553695627 
897	 0.119620387408812 
898	 0.120237311337104 
899	 0.121417598539863 
900	 0.120710714443866 
901	 0.120803863491732 
902	 0.121636369253648 
903	 0.118930440458088 
904	 0.115996594441929 
905	 0.115478332436958 
906	 0.115728155620618 
907	 0.116510622255732 
908	 0.117830364932657 
909	 0.119453568917262 
910	 0.120636317497454 
911	 0.119163673977158 
912	 0.118335388948603 
913	 0.119774059699236 
914	 0.120137036769344 
915	 0.119692832384593 
916	 0.119250946876701 
917	 0.119959358284022 
918	 0.120945732969474 
919	 0.118878603272074 
920	 0.118892303811277 
921	 0.121456225380723 
922	 0.119246376148765 
923	 0.116836179102054 
924	 0.118369388450349 
925	 0.117753559224763 
926	 0.115963006851367 
927	 0.117556249615175 
928	 0.117609733316972 
929	 0.115709001085855 
930	 0.119689997621131 
931	 0.121977251722558 
932	 0.11677572119282 
933	 0.115238649756689 
934	 0.117412486717049 
935	 0.120084050786306 
936	 0.119359470808923 
937	 0.117977134515564 
938	 0.127340139166688 
939	 0.125904160769123 
940	 0.112141807482701 
941	 0.10919401033378 
942	 0.112468837242989 
943	 0.117361831568981 
944	 0.120519240539543 
945	 0.121434440534249 
946	 0.120486201142551 
947	 0.119805035289853 
948	 0.119327842835326 
949	 0.1161891035018 
950	 0.115582661929109 
951	 0.118231782244744 
952	 0.115665814531348 
953	 0.111266826766046 
954	 0.109404448859875 
955	 0.117245153113333 
956	 0.125362973739194 
957	 0.115364225087795 
958	 0.112175575534754 
959	 0.117951661225332 
960	 0.116121180277182 
961	 0.118776839581632 
962	 0.127666709973178 
963	 0.119795229613882 
964	 0.11221885363815 
965	 0.121040777980222 
966	 0.1224290570675 
967	 0.119186098521061 
968	 0.124791047567306 
969	 0.125856366929921 
970	 0.121128476244072 
971	 0.119627508441786 
972	 0.118904323222421 
973	 0.117908653277437 
974	 0.118804704156132 
975	 0.12009050494384 
976	 0.119909656478226 
977	 0.118053217944946 
978	 0.116180131477656 
979	 0.117689954596802 
980	 0.120213915711951 
981	 0.122439335720838 
982	 0.12242932543048 
983	 0.122809673756207 
984	 0.123892134231914 
985	 0.11752550265551 
986	 0.112917711936661 
987	 0.119506630692574 
988	 0.123185530938793 
989	 0.121816837056921 
990	 0.116555319864149 
991	 0.110718730651504 
992	 0.108506972643438 
993	 0.120718527797088 
994	 0.127323583366308 
995	 0.120174024144488 
996	 0.116696032256292 
997	 0.115573035849038 
998	 0.114326718609042 
999	 0.114935495885308 
1000	 0.116430840274086 
1001	 0.116602607329222 
1002	 0.118794786593842 
1003	 0.122938813558113 
1004	 0.126477806008193 
1005	 0.126261751147025 
1006	 0.122405467429515 
1007	 0.123092841935748 
1008	 0.122289872009002 
1009	 0.116272931239277 
1010	 0.117063952991256 
1011	 0.120750270694531 
1012	 0.119978175206268 
1013	 0.125452146964787 
1014	 0.131331668151579 
1015	 0.117517455387299 
1016	 0.117522198676759 
1017	 0.131882038230189 
1018	 0.116074745402987 
1019	 0.105439757621956 
1020	 0.117681790993351 
1021	 0.123449937586989 
1022	 0.123765664081648 
1023	 0.12187899397674 
1024	 0.117412925043684 
1025	 0.11547685962479 
1026	 0.124386042017225 
1027	 0.124775457127174 
1028	 0.115716563653435 
1029	 0.106628862115881 
1030	 0.108444594419692 
1031	 0.120949487981679 
1032	 0.120655312827591 
1033	 0.118003114655912 
1034	 0.117775851876043 
1035	 0.10250165719708 
1036	 9.10391987818922E-02 
1037	 0.102598670603387 
1038	 0.111227545203536 
1039	 0.113459152921647 
1040	 0.111147979701437 
1041	 0.107748283219196 
1042	 0.105854447207126 
1043	 0.109215440553912 
1044	 0.114231485466789 
1045	 0.116241460163298 
1046	 0.101744164058947 
1047	 9.80320416465834E-02 
1048	 0.116251831902928 
1049	 0.122053185038466 
1050	 0.120421266043341 
1051	 0.117587382158472 
1052	 0.092164669340239 
1053	 8.03358746284398E-02 
1054	 0.136333083917769 
1055	 0.137354131659812 
1056	 9.43826752285186E-02 
1057	 0.107079638728383 
1058	 0.119683095103937 
1059	 0.119753648493824 
1060	 0.118974166812105 
1061	 0.111943769312831 
1062	 9.69256257053863E-02 
1063	 7.48479039317105E-02 
1064	 7.81703220396203E-02 
1065	 0.119122600172629 
1066	 0.125513317084158 
1067	 9.42688245366322E-02 
1068	 0.03455300407592 
1069	 5.16618257424718E-02 
1070	 0.104849316463068 
1071	 0.107196710075394 
1072	 9.01061541412662E-02 
1073	 0.07619840668913 
1074	 0.10638387900666 
1075	 0.115189773463365 
