Wavelength	AVEI200397.asd
325	 0.040284261062023 
326	 4.31868194712215E-02 
327	 4.92795495728942E-02 
328	 3.50406291538035E-02 
329	 3.11260198852085E-02 
330	 4.36071838658744E-02 
331	 4.15869140883365E-02 
332	 0.035327670666771 
333	 0.036311397231179 
334	 3.57945808118008E-02 
335	 3.47718459470967E-02 
336	 3.95855021264759E-02 
337	 3.99017426753125E-02 
338	 3.51477380065598E-02 
339	 3.80528164450395E-02 
340	 4.16906766909586E-02 
341	 4.01111483516387E-02 
342	 3.52640455576518E-02 
343	 3.19747846476345E-02 
344	 3.87743139965943E-02 
345	 4.12403588627829E-02 
346	 0.037912890222955 
347	 3.94110991101179E-02 
348	 4.06929404853168E-02 
349	 3.87729279276537E-02 
350	 4.00591821322157E-02 
351	 4.23480067162766E-02 
352	 4.12164076104428E-02 
353	 3.77565458397018E-02 
354	 3.45729221420907E-02 
355	 3.99173647874177E-02 
356	 4.41649577458029E-02 
357	 4.20452627639747E-02 
358	 4.13517217804151E-02 
359	 4.11911139496604E-02 
360	 3.87957081925907E-02 
361	 3.70990636213217E-02 
362	 3.70850613012146E-02 
363	 3.95856365110475E-02 
364	 4.05247080551974E-02 
365	 3.84860679419219E-02 
366	 3.95326715386178E-02 
367	 4.11375685737873E-02 
368	 3.92013418364223E-02 
369	 3.81295532199829E-02 
370	 3.86067209411367E-02 
371	 3.92544573400564E-02 
372	 3.99985358230193E-02 
373	 4.05376401668572E-02 
374	 3.96610934994366E-02 
375	 3.81668847083143E-02 
376	 3.72779490878074E-02 
377	 3.76780211732592E-02 
378	 0.038695317444405 
379	 3.76235781781091E-02 
380	 3.64624328457987E-02 
381	 3.62499087603834E-02 
382	 3.65807184276062E-02 
383	 3.72072339804879E-02 
384	 3.78480445248913E-02 
385	 3.81404664463987E-02 
386	 3.81955908128333E-02 
387	 3.88106553262386E-02 
388	 3.88747495146663E-02 
389	 3.80814839483543E-02 
390	 3.75309292900418E-02 
391	 3.76181968657666E-02 
392	 0.038614895964293 
393	 3.79903495961143E-02 
394	 3.60580511483654E-02 
395	 0.035087164054371 
396	 3.55739472308895E-02 
397	 3.70547095096639E-02 
398	 3.59637891282299E-02 
399	 3.45168971922629E-02 
400	 3.50852296241412E-02 
401	 3.50759428620335E-02 
402	 3.46285550006921E-02 
403	 3.53626923162714E-02 
404	 3.56418213274392E-02 
405	 0.034956622063308 
406	 3.46244243867843E-02 
407	 3.45946547746138E-02 
408	 3.46455219159008E-02 
409	 3.50204765702464E-02 
410	 3.53840629279083E-02 
411	 3.46569801925384E-02 
412	 3.41052621184275E-02 
413	 3.42629655152497E-02 
414	 3.43355619146672E-02 
415	 3.42590910801278E-02 
416	 3.40516024080498E-02 
417	 3.44792700331571E-02 
418	 3.51854186292756E-02 
419	 0.034499727887092 
420	 3.37603101720786E-02 
421	 3.37408602635855E-02 
422	 3.43043134953239E-02 
423	 3.50459620039419E-02 
424	 3.54464630039749E-02 
425	 3.52813428777422E-02 
426	 3.46690897087164E-02 
427	 3.41934653052332E-02 
428	 3.41323851192097E-02 
429	 3.45689235794897E-02 
430	 3.46008991148888E-02 
431	 0.034296803517905 
432	 3.39820224524125E-02 
433	 0.033965290834582 
434	 3.41911078406041E-02 
435	 3.41046172841873E-02 
436	 3.40049064818635E-02 
437	 0.034067184313934 
438	 3.38972960866004E-02 
439	 0.033771208287806 
440	 3.43189893265639E-02 
441	 3.46248274276677E-02 
442	 0.034444069136743 
443	 3.39989676042501E-02 
444	 3.38257910249277E-02 
445	 3.43086218983877E-02 
446	 0.034880280629457 
447	 3.51538032967363E-02 
448	 3.44305244789435E-02 
449	 3.42637056491815E-02 
450	 0.034986950991581 
451	 3.53638935506874E-02 
452	 3.53265293146243E-02 
453	 3.49111300265504E-02 
454	 3.47291201025284E-02 
455	 3.47982948974223E-02 
456	 3.47266361651428E-02 
457	 0.034894889712315 
458	 3.53055559827719E-02 
459	 0.035079860168975 
460	 3.47843027070591E-02 
461	 3.51561341053065E-02 
462	 0.035530490439926 
463	 3.57098276184789E-02 
464	 0.035557312065879 
465	 3.55673559960257E-02 
466	 3.59173771355318E-02 
467	 3.58427183398523E-02 
468	 3.56050522126506E-02 
469	 3.57112131750631E-02 
470	 3.56427769861871E-02 
471	 3.54282272918931E-02 
472	 3.56298558514537E-02 
473	 3.58377712442843E-02 
474	 3.58212567459624E-02 
475	 3.60321751032401E-02 
476	 3.62038759419722E-02 
477	 3.57519648041694E-02 
478	 3.56152048280222E-02 
479	 3.59502864693042E-02 
480	 3.61882065070019E-02 
481	 3.61768246839931E-02 
482	 3.58516047350059E-02 
483	 3.58427135326146E-02 
484	 3.60689119837757E-02 
485	 0.03605587842499 
486	 3.60351313527546E-02 
487	 3.60831189119092E-02 
488	 3.61743225983977E-02 
489	 0.036337335703376 
490	 3.65798607696549E-02 
491	 3.64738710691159E-02 
492	 3.61912779825259E-02 
493	 3.63613886858111E-02 
494	 3.68575165872577E-02 
495	 3.74585552582698E-02 
496	 3.71999953848054E-02 
497	 3.66610220277815E-02 
498	 3.67019458387884E-02 
499	 0.036725204158034 
500	 3.67873447926208E-02 
501	 3.75909181986367E-02 
502	 3.81416864283461E-02 
503	 3.79387109085644E-02 
504	 3.81822715442579E-02 
505	 3.86304745365319E-02 
506	 3.86039911769583E-02 
507	 0.038849965614007 
508	 3.94454998550779E-02 
509	 3.98362447422489E-02 
510	 4.01114911695925E-02 
511	 4.03651282896391E-02 
512	 4.07078231448845E-02 
513	 4.11175632476764E-02 
514	 4.15167624924244E-02 
515	 4.17253871926286E-02 
516	 4.17906644999543E-02 
517	 4.23668989198088E-02 
518	 4.30181942325996E-02 
519	 4.32354282434502E-02 
520	 4.34405412065442E-02 
521	 4.38073356835802E-02 
522	 4.46152157820419E-02 
523	 4.51793930918914E-02 
524	 4.52635427214767E-02 
525	 0.045585833971402 
526	 4.61241939480398E-02 
527	 4.67365211025412E-02 
528	 4.71013115615079E-02 
529	 4.72099215536663E-02 
530	 4.73290422624386E-02 
531	 4.77035067334404E-02 
532	 4.84486483737272E-02 
533	 4.90343408737267E-02 
534	 4.93633384039654E-02 
535	 4.94083485933583E-02 
536	 4.95360302983413E-02 
537	 4.98878805304948E-02 
538	 0.050459327673366 
539	 5.08893222600692E-02 
540	 5.08650516316744E-02 
541	 5.11689892809944E-02 
542	 5.16988540438522E-02 
543	 5.17350028997196E-02 
544	 5.18492003020476E-02 
545	 5.22692249799024E-02 
546	 5.28269565019327E-02 
547	 5.33292874529962E-02 
548	 5.35537765526822E-02 
549	 5.36244824196439E-02 
550	 5.36527250848045E-02 
551	 0.053861101337124 
552	 5.41418816005149E-02 
553	 5.44376997710435E-02 
554	 0.054889212475694 
555	 5.53418254331279E-02 
556	 5.55021504998523E-02 
557	 5.54718590244269E-02 
558	 0.05534151592628 
559	 5.53577960660534E-02 
560	 5.54170308732637E-02 
561	 5.54048937495059E-02 
562	 5.51985243065666E-02 
563	 5.50010055242325E-02 
564	 5.54327582800573E-02 
565	 5.57083709213039E-02 
566	 5.55428680829843E-02 
567	 5.54098672583937E-02 
568	 5.52941367632879E-02 
569	 5.51229623312157E-02 
570	 5.52548485228806E-02 
571	 0.055528222371771 
572	 5.51030109753205E-02 
573	 5.46666345978394E-02 
574	 5.46299810264746E-02 
575	 5.46879026310145E-02 
576	 5.46257164847144E-02 
577	 5.40991546267452E-02 
578	 5.39415041926729E-02 
579	 5.42989830981321E-02 
580	 5.45513173207981E-02 
581	 5.45711986350677E-02 
582	 5.42959700631512E-02 
583	 5.41622306702321E-02 
584	 5.41539815456242E-02 
585	 5.39726904867204E-02 
586	 5.38927726272131E-02 
587	 5.39838019250631E-02 
588	 5.39662294541127E-02 
589	 5.38798974675932E-02 
590	 5.38142447792158E-02 
591	 5.37555032897156E-02 
592	 0.05373183218266 
593	 5.38574379979128E-02 
594	 5.38386417460076E-02 
595	 5.35631982166014E-02 
596	 5.36546197651598E-02 
597	 5.38434872902081E-02 
598	 5.34767485277192E-02 
599	 5.35951656748788E-02 
600	 5.41815474888972E-02 
601	 5.36868951298978E-02 
602	 5.31334978447364E-02 
603	 5.34255710386239E-02 
604	 0.053580906966819 
605	 5.34884252749218E-02 
606	 5.32837518088959E-02 
607	 5.33075958324659E-02 
608	 5.35879124675101E-02 
609	 5.33247847646395E-02 
610	 5.28585219567699E-02 
611	 5.27051219870575E-02 
612	 5.25238816415623E-02 
613	 0.052264251774329 
614	 5.19995698550625E-02 
615	 0.051802047639394 
616	 5.17236246011599E-02 
617	 5.17449452294237E-02 
618	 5.18497264222385E-02 
619	 5.20434687261418E-02 
620	 5.20333070089355E-02 
621	 5.16813494978148E-02 
622	 5.07473719442233E-02 
623	 5.02409791154668E-02 
624	 5.09925809781631E-02 
625	 0.05140584962952 
626	 5.13556598836075E-02 
627	 5.14080529320475E-02 
628	 5.13075081884458E-02 
629	 0.051028226540595 
630	 5.08660039394967E-02 
631	 0.050945754099204 
632	 5.13705854620441E-02 
633	 5.15288580326494E-02 
634	 5.13463583573699E-02 
635	 0.051150226287552 
636	 5.08797631258218E-02 
637	 5.05809437441225E-02 
638	 5.08379215148523E-02 
639	 0.051239804164063 
640	 5.09354572588536E-02 
641	 5.05550004543101E-02 
642	 5.02788137602513E-02 
643	 4.99405705897876E-02 
644	 4.97884625085908E-02 
645	 4.99928731582026E-02 
646	 4.97666663519076E-02 
647	 4.92808783192453E-02 
648	 4.94378035669248E-02 
649	 4.93970299571207E-02 
650	 4.89218567497916E-02 
651	 0.04868085483684 
652	 0.048515086068708 
653	 4.81699632731669E-02 
654	 0.048055616817963 
655	 4.80389120483438E-02 
656	 0.047316255696978 
657	 4.66761375290269E-02 
658	 4.65746578452316E-02 
659	 0.046540203643216 
660	 4.63085496738998E-02 
661	 4.55292780013174E-02 
662	 4.51798005973315E-02 
663	 0.04521465947817 
664	 0.044153866383207 
665	 4.29295015347751E-02 
666	 4.23841283793306E-02 
667	 0.042450165231822 
668	 0.042768387471026 
669	 4.25563896239217E-02 
670	 4.20556440440869E-02 
671	 4.14944060202105E-02 
672	 4.17372779885961E-02 
673	 4.20127107822527E-02 
674	 4.13905617834027E-02 
675	 4.11629268320514E-02 
676	 4.14148429705764E-02 
677	 4.14423795496679E-02 
678	 4.15963844197155E-02 
679	 4.19875336933718E-02 
680	 4.19532498982308E-02 
681	 4.21159167055691E-02 
682	 0.043591028013087 
683	 4.46114781308773E-02 
684	 4.48881575655075E-02 
685	 4.54106374144598E-02 
686	 4.64790495045933E-02 
687	 4.83163713908968E-02 
688	 5.00488514640334E-02 
689	 5.14458551426226E-02 
690	 5.27819942011549E-02 
691	 5.43507653891443E-02 
692	 5.62806915476798E-02 
693	 5.83457964519703E-02 
694	 6.05728462554996E-02 
695	 6.28995830836803E-02 
696	 6.49237418413035E-02 
697	 6.67897540601068E-02 
698	 6.92243062925641E-02 
699	 7.15877515704027E-02 
700	 7.35641504961178E-02 
701	 7.55358186559995E-02 
702	 7.75191264218907E-02 
703	 7.94849186914763E-02 
704	 8.15214041971606E-02 
705	 0.083624435458331 
706	 8.56865259984628E-02 
707	 8.74670397901601E-02 
708	 8.88525215910405E-02 
709	 9.03460668248897E-02 
710	 9.19518149770917E-02 
711	 9.35369032936592E-02 
712	 9.50678480262042E-02 
713	 9.65122447466765E-02 
714	 9.78908241531692E-02 
715	 9.91080050021613E-02 
716	 0.100140847634461 
717	 0.101206900029871 
718	 0.102357242635173 
719	 0.103366421189974 
720	 0.104362773328847 
721	 0.105380728840486 
722	 0.106664891729387 
723	 0.107881970349487 
724	 0.108543421141825 
725	 0.108996747893531 
726	 0.109471707409076 
727	 0.110526918189204 
728	 0.111372910444629 
729	 0.111697396974509 
730	 0.112351267462582 
731	 0.113226709909224 
732	 0.114032743068235 
733	 0.114935251094975 
734	 0.115742709902299 
735	 0.115632709174431 
736	 0.115584735398425 
737	 0.116223393409514 
738	 0.116825446439882 
739	 0.117398392212013 
740	 0.11819199923453 
741	 0.118528977529935 
742	 0.118354715859436 
743	 0.11827034214511 
744	 0.118796344877322 
745	 0.120214142124754 
746	 0.120627178381027 
747	 0.120243626901909 
748	 0.120337708848841 
749	 0.12087533494109 
750	 0.121759850156735 
751	 0.122306946175276 
752	 0.12248066263202 
753	 0.122328369797068 
754	 0.122166970359909 
755	 0.122305785328985 
756	 0.123517857910294 
757	 0.123907052408654 
758	 0.122790402958877 
759	 0.122625129025248 
760	 0.123688545004385 
761	 0.124857542146857 
762	 0.125990583692596 
763	 0.126683104473329 
764	 0.126384538190892 
765	 0.126575871310974 
766	 0.127475774627192 
767	 0.127449753420041 
768	 0.127230811452133 
769	 0.127784280394489 
770	 0.127859617261572 
771	 0.127482467021082 
772	 0.12787023021037 
773	 0.128294690781198 
774	 0.128300441717553 
775	 0.128385741571274 
776	 0.128694565198512 
777	 0.129364522676891 
778	 0.129997376362914 
779	 0.130409580976219 
780	 0.130452111437472 
781	 0.130610356714581 
782	 0.131221675287398 
783	 0.131545569047259 
784	 0.13157921469888 
785	 0.131550679830424 
786	 0.131812682843678 
787	 0.132361146368446 
788	 0.132460441736277 
789	 0.132492276604067 
790	 0.132838237070875 
791	 0.133274911065526 
792	 0.133676131385025 
793	 0.133829561595972 
794	 0.134040967249895 
795	 0.134381665555601 
796	 0.134619285572741 
797	 0.134689783372489 
798	 0.134585442450654 
799	 0.134984418229463 
800	 0.135701884782337 
801	 0.135876609318903 
802	 0.135914908461419 
803	 0.13603032618672 
804	 0.136570702680832 
805	 0.136986633043279 
806	 0.136710240133865 
807	 0.136829302138045 
808	 0.137419921319304 
809	 0.138104108845179 
810	 0.138302194109972 
811	 0.137884348142701 
812	 0.138041014698601 
813	 0.138281564981321 
814	 0.137879111439866 
815	 0.138983817771384 
816	 0.141111410115079 
817	 0.140989606132947 
818	 0.14089021622115 
819	 0.1415275702755 
820	 0.140813597987331 
821	 0.140298313176711 
822	 0.141911417458836 
823	 0.143262975811303 
824	 0.14371744161113 
825	 0.143325792544732 
826	 0.143054047019399 
827	 0.143361177441204 
828	 0.144048384764314 
829	 0.144601186715985 
830	 0.144431003014448 
831	 0.144090347411346 
832	 0.143917493309237 
833	 0.144453773497653 
834	 0.144979592352503 
835	 0.14517429022118 
836	 0.145237529273473 
837	 0.145262874646903 
838	 0.145354413177595 
839	 0.145957756693687 
840	 0.146927167802132 
841	 0.14776028479572 
842	 0.147646437936924 
843	 0.146579692057641 
844	 0.146871577209964 
845	 0.147438854834178 
846	 0.146899673617314 
847	 0.146666539689642 
848	 0.147026623123372 
849	 0.148058458634783 
850	 0.148453617973536 
851	 0.147822299289819 
852	 0.147546907616072 
853	 0.147805567646566 
854	 0.148597385122467 
855	 0.14892840161866 
856	 0.148844285162329 
857	 0.149112067071122 
858	 0.148832472543087 
859	 0.14806223924126 
860	 0.148596846128123 
861	 0.149303155757649 
862	 0.149102776262949 
863	 0.149741377897491 
864	 0.150855903868453 
865	 0.150895486426767 
866	 0.150436961403138 
867	 0.149971271885012 
868	 0.150802780046812 
869	 0.151669856152451 
870	 0.151545399384517 
871	 0.151156028965931 
872	 0.151075294584713 
873	 0.152195047527202 
874	 0.152865767724495 
875	 0.15283134588802 
876	 0.153363917813804 
877	 0.153896131772697 
878	 0.154074174769318 
879	 0.154536481336958 
880	 0.155185673676511 
881	 0.155737137073189 
882	 0.155885194940193 
883	 0.155891748446556 
884	 0.15693567577669 
885	 0.158231292986293 
886	 0.159203615111623 
887	 0.159340046834969 
888	 0.159104882975469 
889	 0.159197408437014 
890	 0.159273894897253 
891	 0.159346181714966 
892	 0.159559536863307 
893	 0.160226382260697 
894	 0.161382836458744 
895	 0.162318578736186 
896	 0.162421810673197 
897	 0.161250356172359 
898	 0.161884457253884 
899	 0.16390184747133 
900	 0.164571989156642 
901	 0.164368723676538 
902	 0.163463012062666 
903	 0.161913882921524 
904	 0.161412959328931 
905	 0.163055284593263 
906	 0.164160639818456 
907	 0.16475418652959 
908	 0.165726705678035 
909	 0.164951315897268 
910	 0.16295076987304 
911	 0.164167308804388 
912	 0.164925626838071 
913	 0.163673310261891 
914	 0.165387774552107 
915	 0.1675445062335 
916	 0.166652375873632 
917	 0.166046125918364 
918	 0.166301852804815 
919	 0.166984451155469 
920	 0.16770264942009 
921	 0.168237932705398 
922	 0.168825445747545 
923	 0.168007687054839 
924	 0.164906798572543 
925	 0.165243826059702 
926	 0.167177555410398 
927	 0.16437985065809 
928	 0.162695740679533 
929	 0.163536859738906 
930	 0.162850938836952 
931	 0.162812072522715 
932	 0.164457696935662 
933	 0.161092260282355 
934	 0.157128143187109 
935	 0.16028162943555 
936	 0.160203112674092 
937	 0.156780757676073 
938	 0.156490601738959 
939	 0.155155489230407 
940	 0.153132538649132 
941	 0.157236820673826 
942	 0.163519222754854 
943	 0.16817819580019 
944	 0.165606410451961 
945	 0.159322824300013 
946	 0.156155999120664 
947	 0.157982528273712 
948	 0.1625128690593 
949	 0.160373106805963 
950	 0.160152636447734 
951	 0.163619427820191 
952	 0.159224898636246 
953	 0.154811946127928 
954	 0.157306428522613 
955	 0.153843117704194 
956	 0.149727056036532 
957	 0.158309766719844 
958	 0.163005973005692 
959	 0.161048281633709 
960	 0.158248783923476 
961	 0.156294263824921 
962	 0.156033655040019 
963	 0.156072530207744 
964	 0.156333838820241 
965	 0.156969861543456 
966	 0.160197788432591 
967	 0.163173041496167 
968	 0.159588710550886 
969	 0.159208873669868 
970	 0.162671349682911 
971	 0.161423733636666 
972	 0.160681801774124 
973	 0.162462378597916 
974	 0.159823341859471 
975	 0.157405984279815 
976	 0.160617936356265 
977	 0.160113857264037 
978	 0.157140699808084 
979	 0.158439522667835 
980	 0.156457826411208 
981	 0.152290082956081 
982	 0.158082358264195 
983	 0.164075834968513 
984	 0.164979657277135 
985	 0.164005552276992 
986	 0.162793557930427 
987	 0.162700699520872 
988	 0.161726665712529 
989	 0.160663313534762 
990	 0.161720226104655 
991	 0.162351241020606 
992	 0.162301285701729 
993	 0.16322909032069 
994	 0.165983609684049 
995	 0.169925248498981 
996	 0.168996912594611 
997	 0.166697589435907 
998	 0.166867827143953 
999	 0.168883835405963 
1000	 0.170459513287646 
1001	 0.168026269582722 
1002	 0.162895554286302 
1003	 0.157949863331601 
1004	 0.161280695702217 
1005	 0.164903587941648 
1006	 0.165704831671356 
1007	 0.166108675232145 
1008	 0.168610928711857 
1009	 0.174260646235849 
1010	 0.176109174638486 
1011	 0.174019803951668 
1012	 0.169611931218536 
1013	 0.169334866775492 
1014	 0.170709323567614 
1015	 0.163730366657807 
1016	 0.157962129916682 
1017	 0.157285790070798 
1018	 0.162883120265379 
1019	 0.170358632663576 
1020	 0.175356170845093 
1021	 0.171269373185123 
1022	 0.164721805264258 
1023	 0.163056690701567 
1024	 0.165106885034368 
1025	 0.167649879865701 
1026	 0.165858839230128 
1027	 0.165251382859798 
1028	 0.166026498318052 
1029	 0.164480698859395 
1030	 0.163315461647812 
1031	 0.165057763822229 
1032	 0.177431653443267 
1033	 0.180010992087771 
1034	 0.16403191794984 
1035	 0.165570662076576 
1036	 0.173712557288318 
1037	 0.173383250406357 
1038	 0.174644439474912 
1039	 0.17757451262907 
1040	 0.179747146809679 
1041	 0.174107846696867 
1042	 0.163695430737145 
1043	 0.163888459585366 
1044	 0.169497335421432 
1045	 0.17817913150062 
1046	 0.190090503085939 
1047	 0.185770042964378 
1048	 0.160512727953489 
1049	 0.155863320032004 
1050	 0.162139848783708 
1051	 0.164967796978771 
1052	 0.154026185387127 
1053	 0.148200534060452 
1054	 0.176030633067792 
1055	 0.17217659536039 
1056	 0.142098191352174 
1057	 0.138470666855184 
1058	 0.141386308057223 
1059	 0.147709498471345 
1060	 0.16661009040814 
1061	 0.170973576977535 
1062	 0.154922731861516 
1063	 0.148634289233305 
1064	 0.157160998797597 
1065	 0.176298799992461 
1066	 0.161521430671996 
1067	 0.149948576439165 
1068	 0.180830269098533 
1069	 0.165119005200184 
1070	 0.133866384813568 
1071	 0.160004651281829 
1072	 0.167888615268928 
1073	 0.152006038755592 
1074	 0.151257379959669 
1075	 0.142587069808043 
