Wavelength	AVEI200346.asd
325	 0.065163604251496 
326	 6.75056560280715E-02 
327	 4.94405198366568E-02 
328	 5.56834371948279E-02 
329	 6.06423171870796E-02 
330	 5.52602902979968E-02 
331	 4.10009430554534E-02 
332	 3.52501851957314E-02 
333	 5.20219332602225E-02 
334	 4.42666035307447E-02 
335	 0.022554219357101 
336	 3.22799129994348E-02 
337	 0.044201270592218 
338	 4.84025857452728E-02 
339	 4.17983921045127E-02 
340	 3.53205994814746E-02 
341	 3.77436039824708E-02 
342	 4.14251680770988E-02 
343	 0.044231679970018 
344	 4.49260754206989E-02 
345	 4.32209102889107E-02 
346	 3.97458075415068E-02 
347	 3.61452593098283E-02 
348	 3.50520029955665E-02 
349	 3.75594114733227E-02 
350	 3.77946524137052E-02 
351	 3.63401647223353E-02 
352	 3.52691585126248E-02 
353	 3.49613335063146E-02 
354	 3.56384620179767E-02 
355	 3.77811503912577E-02 
356	 3.82579096563159E-02 
357	 3.55119979844628E-02 
358	 0.032560089126278 
359	 3.22705337248037E-02 
360	 3.84587185646258E-02 
361	 3.61528803220578E-02 
362	 2.72604969536853E-02 
363	 2.99639755785982E-02 
364	 0.035249277459083 
365	 3.78816370728008E-02 
366	 3.70172281198492E-02 
367	 3.52723241601907E-02 
368	 3.62675610047104E-02 
369	 3.74437616335949E-02 
370	 3.78922486326455E-02 
371	 3.62428260871749E-02 
372	 3.65160948360419E-02 
373	 4.02614179402379E-02 
374	 4.15046708218135E-02 
375	 4.03716077576533E-02 
376	 3.80929784650598E-02 
377	 3.59366622545745E-02 
378	 3.45184836873162E-02 
379	 3.43149759317666E-02 
380	 0.03343070235726 
381	 3.15991811576627E-02 
382	 3.42530055837124E-02 
383	 3.77351370549577E-02 
384	 0.0365298532038 
385	 3.50462375618606E-02 
386	 3.45767749969031E-02 
387	 3.57701673609437E-02 
388	 3.50551652064408E-02 
389	 3.19731967902869E-02 
390	 3.37236010362384E-02 
391	 3.69949991512369E-02 
392	 3.72607116854018E-02 
393	 3.62512233417916E-02 
394	 0.034574882843912 
395	 3.30808746259262E-02 
396	 3.12670477473383E-02 
397	 2.94782634545478E-02 
398	 0.030539342774234 
399	 3.06224035082541E-02 
400	 2.61253752372248E-02 
401	 2.63025180495759E-02 
402	 3.00861318073607E-02 
403	 3.10057112894492E-02 
404	 0.030931714791834 
405	 3.06362127911632E-02 
406	 3.04786554634759E-02 
407	 2.99829695707454E-02 
408	 2.85362724940899E-02 
409	 2.96732999916865E-02 
410	 3.25845881737779E-02 
411	 3.30252313415249E-02 
412	 3.23877304032985E-02 
413	 3.14017122612483E-02 
414	 3.00996587934646E-02 
415	 2.96775741831007E-02 
416	 3.15822038292722E-02 
417	 3.17144061443959E-02 
418	 0.030176346069896 
419	 3.05996018020627E-02 
420	 3.09873059963328E-02 
421	 3.02887644722705E-02 
422	 0.028968307747717 
423	 2.82172627812581E-02 
424	 0.029648265211164 
425	 3.06420257668084E-02 
426	 3.05846645355324E-02 
427	 2.99111287969227E-02 
428	 2.98035955384231E-02 
429	 0.030871680118591 
430	 3.13444609987549E-02 
431	 3.09776334697702E-02 
432	 2.97930675441233E-02 
433	 2.92658859453498E-02 
434	 0.029614425724512 
435	 3.00238872814133E-02 
436	 3.01584819888915E-02 
437	 2.98462275089908E-02 
438	 2.95927609925548E-02 
439	 2.98580703013636E-02 
440	 3.15054431412913E-02 
441	 3.13747083805389E-02 
442	 2.94093637009992E-02 
443	 2.97441181660999E-02 
444	 3.05487080323775E-02 
445	 3.03106973067985E-02 
446	 3.06248143658503E-02 
447	 3.12638861477441E-02 
448	 3.12188521301512E-02 
449	 3.08958021511705E-02 
450	 3.05642801181553E-02 
451	 3.09067134408126E-02 
452	 3.11565442559298E-02 
453	 3.05882207477751E-02 
454	 3.09706432934262E-02 
455	 3.19591727330095E-02 
456	 3.17060727506837E-02 
457	 0.03096909600435 
458	 3.02852246920625E-02 
459	 3.08974156034719E-02 
460	 0.031794151548085 
461	 3.16656312681409E-02 
462	 3.11233818280067E-02 
463	 3.07845412339565E-02 
464	 3.22518075654251E-02 
465	 3.29750124165036E-02 
466	 0.031784917131544 
467	 3.08082973266861E-02 
468	 3.03144700275437E-02 
469	 3.02935290245095E-02 
470	 3.05667362373459E-02 
471	 0.030997470918792 
472	 3.13825443088813E-02 
473	 3.18987333172332E-02 
474	 3.24936808961634E-02 
475	 0.031785253251089 
476	 3.07615242796841E-02 
477	 3.14606779247969E-02 
478	 3.19626010501714E-02 
479	 3.18861055762467E-02 
480	 3.22180769844941E-02 
481	 3.22947451088843E-02 
482	 3.16861991737102E-02 
483	 3.21740872355614E-02 
484	 3.31957493130022E-02 
485	 0.032720856068128 
486	 3.17061489945077E-02 
487	 0.030793742287622 
488	 3.12983688395581E-02 
489	 3.21591075339791E-02 
490	 3.22276585093254E-02 
491	 3.17158359613863E-02 
492	 3.12776388679628E-02 
493	 3.26677089470329E-02 
494	 3.36786713333947E-02 
495	 3.33769032053064E-02 
496	 3.26111193651182E-02 
497	 3.20671274412226E-02 
498	 3.25041652818397E-02 
499	 3.28702923044793E-02 
500	 3.29974292982633E-02 
501	 0.033233806916292 
502	 3.39021234320437E-02 
503	 3.49561177037022E-02 
504	 3.45426513113252E-02 
505	 3.35373472387215E-02 
506	 3.37754566952173E-02 
507	 3.37245121454773E-02 
508	 3.33087845088723E-02 
509	 3.40561352620967E-02 
510	 3.44452886097613E-02 
511	 3.34426202603621E-02 
512	 3.40963405644044E-02 
513	 3.55734321470092E-02 
514	 3.45904195612406E-02 
515	 3.43979332521919E-02 
516	 3.58455679805412E-02 
517	 0.036893078060192 
518	 3.68970648691923E-02 
519	 0.035497128878056 
520	 3.59170645601759E-02 
521	 0.037491970266559 
522	 3.64938153198137E-02 
523	 3.58713378450221E-02 
524	 3.68138614692594E-02 
525	 3.76163351477979E-02 
526	 3.81206724719243E-02 
527	 3.83666863243385E-02 
528	 3.85633213154533E-02 
529	 0.038732641425287 
530	 3.86642869355428E-02 
531	 3.87694678878572E-02 
532	 3.92485616645638E-02 
533	 3.91720880152321E-02 
534	 3.89876432876727E-02 
535	 3.99040338188207E-02 
536	 4.02597968432138E-02 
537	 3.98074298392602E-02 
538	 4.00895281230887E-02 
539	 4.04082145185901E-02 
540	 4.00685608656388E-02 
541	 4.02018790995564E-02 
542	 4.06695984640306E-02 
543	 4.04353023815112E-02 
544	 0.040608430074983 
545	 4.14134364729727E-02 
546	 4.12000138493734E-02 
547	 4.07429736286604E-02 
548	 4.12394797531751E-02 
549	 4.12255627087987E-02 
550	 4.07178041370358E-02 
551	 4.09771346653636E-02 
552	 4.15222461835011E-02 
553	 0.042012050398169 
554	 4.23707764761347E-02 
555	 0.042455218578777 
556	 4.19691033686082E-02 
557	 4.22603486109911E-02 
558	 4.33453980034257E-02 
559	 4.30810979562859E-02 
560	 4.25454362226371E-02 
561	 4.27901613685488E-02 
562	 4.31057267115258E-02 
563	 4.32372108116646E-02 
564	 0.042775976106106 
565	 0.042663888130495 
566	 4.32152026630293E-02 
567	 4.36536261622492E-02 
568	 4.38798837672039E-02 
569	 4.38698220598393E-02 
570	 4.39898727702382E-02 
571	 4.41297124676758E-02 
572	 4.35674485403592E-02 
573	 4.30067580983014E-02 
574	 4.28630774102855E-02 
575	 0.042559050410973 
576	 4.25412984811583E-02 
577	 4.37930825136573E-02 
578	 4.46594170632799E-02 
579	 4.46654631518377E-02 
580	 4.44306675793551E-02 
581	 4.41551195247772E-02 
582	 4.40152588782308E-02 
583	 4.40840467044527E-02 
584	 4.43022906159326E-02 
585	 4.45576689173405E-02 
586	 0.044446765313884 
587	 4.38842620670729E-02 
588	 4.35804148023651E-02 
589	 4.34183036177286E-02 
590	 4.31622782833777E-02 
591	 4.35042071023568E-02 
592	 4.42073964697365E-02 
593	 4.40182433722291E-02 
594	 4.39595911263227E-02 
595	 4.44972067164301E-02 
596	 4.42010646714372E-02 
597	 4.37253428070172E-02 
598	 4.45964880130499E-02 
599	 4.46870617798915E-02 
600	 4.37400674788355E-02 
601	 4.36282082681253E-02 
602	 4.39211595041458E-02 
603	 4.41601938272176E-02 
604	 0.04420673585686 
605	 4.43485363595951E-02 
606	 4.55816092168069E-02 
607	 4.60525487286838E-02 
608	 0.045257624408462 
609	 4.52649992116971E-02 
610	 4.55480067124452E-02 
611	 4.52133514285018E-02 
612	 4.47536722877321E-02 
613	 4.45613661560388E-02 
614	 4.56102871379464E-02 
615	 4.62664162621841E-02 
616	 4.56184401229505E-02 
617	 4.50872759340347E-02 
618	 4.51015669841827E-02 
619	 4.61053505078355E-02 
620	 4.61532059723671E-02 
621	 4.50049524031575E-02 
622	 4.44149743569575E-02 
623	 4.44755473077979E-02 
624	 0.045150707879728 
625	 4.54661321707401E-02 
626	 4.54881691086668E-02 
627	 4.59806641354912E-02 
628	 4.64052435873196E-02 
629	 4.65139159606092E-02 
630	 0.046216472447467 
631	 4.58603240631204E-02 
632	 4.58758148104842E-02 
633	 4.59629034890048E-02 
634	 0.046139122725634 
635	 4.68612107115248E-02 
636	 4.68007717835684E-02 
637	 4.54469424611789E-02 
638	 4.55012315943516E-02 
639	 4.64183083979059E-02 
640	 4.65893312021254E-02 
641	 0.046579837102923 
642	 4.65068827920393E-02 
643	 4.62756823458735E-02 
644	 4.61950273442501E-02 
645	 4.64850266734128E-02 
646	 4.62747435688663E-02 
647	 4.57297427952589E-02 
648	 4.57330532132946E-02 
649	 0.04576490722121 
650	 4.56546491129815E-02 
651	 4.55688472933235E-02 
652	 4.56200327703168E-02 
653	 4.59218746496305E-02 
654	 4.59313576963952E-02 
655	 4.56573408178751E-02 
656	 4.57278199006243E-02 
657	 4.55405877051026E-02 
658	 4.48850744310526E-02 
659	 4.48109802938074E-02 
660	 4.48881531498468E-02 
661	 4.42101338465571E-02 
662	 4.41513050498722E-02 
663	 4.47597002887374E-02 
664	 4.44771066365405E-02 
665	 4.41026101835532E-02 
666	 4.42777318141762E-02 
667	 4.39300771372516E-02 
668	 4.32601030648224E-02 
669	 4.31082311912827E-02 
670	 4.34450384653433E-02 
671	 4.40851006498358E-02 
672	 4.39628528011389E-02 
673	 4.35741804533806E-02 
674	 4.35837397650751E-02 
675	 4.35852702419112E-02 
676	 0.043526180470233 
677	 4.34185106815658E-02 
678	 4.36494234218417E-02 
679	 4.44033319950615E-02 
680	 4.53858615840137E-02 
681	 4.61872855390147E-02 
682	 4.62686484386542E-02 
683	 4.58331799664258E-02 
684	 4.55099503914574E-02 
685	 4.75044658169892E-02 
686	 4.95553983761016E-02 
687	 0.049677139832352 
688	 5.07769532378671E-02 
689	 5.23859623549633E-02 
690	 5.24064879149731E-02 
691	 0.05335314040792 
692	 5.56817562784537E-02 
693	 5.73517946873672E-02 
694	 0.058833504410559 
695	 6.06211004868966E-02 
696	 6.16369352418606E-02 
697	 6.22089627039659E-02 
698	 6.36814428881471E-02 
699	 6.56329679364474E-02 
700	 6.77479321129425E-02 
701	 0.069377768981734 
702	 7.06289850039306E-02 
703	 7.18051376823825E-02 
704	 7.25118807795142E-02 
705	 7.31101968838438E-02 
706	 7.50684354880669E-02 
707	 7.67134795285913E-02 
708	 7.71268650976419E-02 
709	 7.82706238975745E-02 
710	 8.02496260354294E-02 
711	 8.28716288071662E-02 
712	 8.41745465374151E-02 
713	 8.39829161551295E-02 
714	 8.46793457474313E-02 
715	 8.57117638985962E-02 
716	 8.65761557659437E-02 
717	 8.79105563560799E-02 
718	 8.94851010296595E-02 
719	 8.98473004750146E-02 
720	 9.07147394796363E-02 
721	 9.22179405825653E-02 
722	 9.21170460519683E-02 
723	 9.20865454766746E-02 
724	 9.40703803457292E-02 
725	 9.52305370966868E-02 
726	 9.53574687460256E-02 
727	 0.096359274453598 
728	 9.72559059133855E-02 
729	 9.76686306854282E-02 
730	 9.86427865424707E-02 
731	 9.91989340566291E-02 
732	 9.78746842407637E-02 
733	 9.87269527112028E-02 
734	 0.101582979863477 
735	 0.102799292606317 
736	 0.103275225126047 
737	 0.103588269828043 
738	 0.10391467558149 
739	 0.104063582362298 
740	 0.103433950024209 
741	 0.104309942551673 
742	 0.106704187677831 
743	 0.107639105338318 
744	 0.107670588159289 
745	 0.107441607375198 
746	 0.107827997150072 
747	 0.108710002197974 
748	 0.109311896890889 
749	 0.110184172276535 
750	 0.111263399294432 
751	 0.111312803245238 
752	 0.111184978404098 
753	 0.111847337684824 
754	 0.112517165087527 
755	 0.112967296561635 
756	 0.113159452643068 
757	 0.112492925429977 
758	 0.110961568201288 
759	 0.11141476721595 
760	 0.114107880864317 
761	 0.115699532883639 
762	 0.117967562862315 
763	 0.119958797976276 
764	 0.118752202666003 
765	 0.118632894319446 
766	 0.120483709748823 
767	 0.121137183019973 
768	 0.121004773461559 
769	 0.120648201863321 
770	 0.120804061805895 
771	 0.121572877583604 
772	 0.122442440199037 
773	 0.123460440107774 
774	 0.124547838078327 
775	 0.124913538788502 
776	 0.1248641514746 
777	 0.125120519741874 
778	 0.125838520392685 
779	 0.12685984641841 
780	 0.127258121500381 
781	 0.127396401528575 
782	 0.127640927475507 
783	 0.128368301430827 
784	 0.129444533502851 
785	 0.130481270922988 
786	 0.131126140346416 
787	 0.131327124304375 
788	 0.131587672781755 
789	 0.131820116251943 
790	 0.131960771888715 
791	 0.13259457119388 
792	 0.133459604116058 
793	 0.133668062758483 
794	 0.133865234205095 
795	 0.134302080541868 
796	 0.135037336235724 
797	 0.135679907386933 
798	 0.135855755999904 
799	 0.135983192626311 
800	 0.136235707965482 
801	 0.136753088211889 
802	 0.13759911112883 
803	 0.138746675892061 
804	 0.139844557220084 
805	 0.141222905835235 
806	 0.143131226470962 
807	 0.142432894068203 
808	 0.140137334777312 
809	 0.140973633741541 
810	 0.141964518663865 
811	 0.14203878285044 
812	 0.14275692051033 
813	 0.143999809861721 
814	 0.145425686484583 
815	 0.146429086508082 
816	 0.146921635146005 
817	 0.147425169014115 
818	 0.147828415357346 
819	 0.148045682037412 
820	 0.147353449060713 
821	 0.147897945809488 
822	 0.152136265042065 
823	 0.154897691826361 
824	 0.154941209378637 
825	 0.152833964428164 
826	 0.152169977240616 
827	 0.154015108400519 
828	 0.153887031401728 
829	 0.153587456536999 
830	 0.155684291687906 
831	 0.155770861414671 
832	 0.154528943240005 
833	 0.156747197842749 
834	 0.158678781400321 
835	 0.159156063554122 
836	 0.161627344478578 
837	 0.163175373282588 
838	 0.160449885860907 
839	 0.159246593747836 
840	 0.160378296274074 
841	 0.162470784261865 
842	 0.163669741552605 
843	 0.163346138792256 
844	 0.16371113348409 
845	 0.164364530578078 
846	 0.164665054826874 
847	 0.164860633389093 
848	 0.165098743667248 
849	 0.16569930005384 
850	 0.165929348021986 
851	 0.165990678194887 
852	 0.168865582795887 
853	 0.171784755698526 
854	 0.171580196584626 
855	 0.170887544317185 
856	 0.170562291058204 
857	 0.171112756348671 
858	 0.172816878691902 
859	 0.175016333958296 
860	 0.174204729702431 
861	 0.172131328880515 
862	 0.170802725693877 
863	 0.171389642001134 
864	 0.173569434272339 
865	 0.176149512021298 
866	 0.176925120558109 
867	 0.175883556653119 
868	 0.177402580338477 
869	 0.179288344512394 
870	 0.179610199179737 
871	 0.178929827904217 
872	 0.178459392501376 
873	 0.180280894090524 
874	 0.182963805078011 
875	 0.185085730293869 
876	 0.18288972438679 
877	 0.181523383705149 
878	 0.184428811333939 
879	 0.187588544624493 
880	 0.189409888757477 
881	 0.18838047341837 
882	 0.187642410526092 
883	 0.188171230981206 
884	 0.189896734593313 
885	 0.191130251386064 
886	 0.19098997574578 
887	 0.190724524926027 
888	 0.190816980895254 
889	 0.191694254315511 
890	 0.193469430545847 
891	 0.195061423620003 
892	 0.193053609706247 
893	 0.192062685643015 
894	 0.193768673763762 
895	 0.193006177335446 
896	 0.191881609104147 
897	 0.193495174500345 
898	 0.197601255803071 
899	 0.20218337350446 
900	 0.202481186305049 
901	 0.203051891450163 
902	 0.204301946192349 
903	 0.200531250154514 
904	 0.198408601739216 
905	 0.202574849537639 
906	 0.204538013396174 
907	 0.204843342000834 
908	 0.206854450417511 
909	 0.207223956248468 
910	 0.205739700073165 
911	 0.205203410258673 
912	 0.204820733462614 
913	 0.204379985823577 
914	 0.205321538905744 
915	 0.206980430868839 
916	 0.208300110223959 
917	 0.207695040456402 
918	 0.207233292954525 
919	 0.213573090867555 
920	 0.218173849342141 
921	 0.217241012415202 
922	 0.208395680292868 
923	 0.202323558682939 
924	 0.207676305442056 
925	 0.21153374995001 
926	 0.212144121128734 
927	 0.210725637696219 
928	 0.208838124222662 
929	 0.207668522421205 
930	 0.209158301783296 
931	 0.210932971834268 
932	 0.211006013172548 
933	 0.211470827234737 
934	 0.212187742759828 
935	 0.212360474720993 
936	 0.206227635408642 
937	 0.202485011458695 
938	 0.225714040683579 
939	 0.229706211866896 
940	 0.207602198206296 
941	 0.19821419555547 
942	 0.198270210797747 
943	 0.203439488465795 
944	 0.211239486460057 
945	 0.218318107940705 
946	 0.219459382655507 
947	 0.215727675309798 
948	 0.208753746232348 
949	 0.203075319409106 
950	 0.19769316893323 
951	 0.193677496840883 
952	 0.197680808544967 
953	 0.205205852194972 
954	 0.21113059463888 
955	 0.217328426282258 
956	 0.216995016510476 
957	 0.197181814096832 
958	 0.195932038021626 
959	 0.214134920269971 
960	 0.217226185760524 
961	 0.213590411515304 
962	 0.209298107788893 
963	 0.214616036568395 
964	 0.217809646434464 
965	 0.208744513568061 
966	 0.214827957308115 
967	 0.225365773355962 
968	 0.210869856514889 
969	 0.204393879250752 
970	 0.210843979279797 
971	 0.212810304563826 
972	 0.214249628474181 
973	 0.21657508184385 
974	 0.215112204124163 
975	 0.210719837079922 
976	 0.205658762553656 
977	 0.211927796795917 
978	 0.222815554945938 
979	 0.220202479740502 
980	 0.216105130080333 
981	 0.214497192256615 
982	 0.216910970781664 
983	 0.217154098360656 
984	 0.213437835019984 
985	 0.216886766696669 
986	 0.221779657818809 
987	 0.221733696694765 
988	 0.227580752518416 
989	 0.233588486503107 
990	 0.224848517203641 
991	 0.217872323380342 
992	 0.217513174122659 
993	 0.221601103047388 
994	 0.230913223807871 
995	 0.242486977486367 
996	 0.237512258002229 
997	 0.22690880656276 
998	 0.223269396803941 
999	 0.230248141346312 
1000	 0.237137827966996 
1001	 0.225057603063509 
1002	 0.225551563404741 
1003	 0.239873544657917 
1004	 0.244649357498677 
1005	 0.23982323894273 
1006	 0.228067811220924 
1007	 0.223577381908628 
1008	 0.22587798104137 
1009	 0.232463200428345 
1010	 0.235000668636279 
1011	 0.233003067427502 
1012	 0.227531560686176 
1013	 0.227257916063421 
1014	 0.232543360411938 
1015	 0.238923092651448 
1016	 0.248344618936621 
1017	 0.254887936020848 
1018	 0.232967293601876 
1019	 0.223445556461758 
1020	 0.24364060569888 
1021	 0.248960974523322 
1022	 0.245786226643445 
1023	 0.244639847518537 
1024	 0.24972051230165 
1025	 0.253587274194318 
1026	 0.242159409327459 
1027	 0.245355427633403 
1028	 0.258941833317597 
1029	 0.252407622606936 
1030	 0.239357637528232 
1031	 0.229126003330995 
1032	 0.238336121974523 
1033	 0.247370242798771 
1034	 0.245679140979437 
1035	 0.24996595910537 
1036	 0.264154525619917 
1037	 0.286734993621595 
1038	 0.289987123502407 
1039	 0.276505684337881 
1040	 0.260409584476653 
1041	 0.261108972544911 
1042	 0.273589367919051 
1043	 0.267509167890483 
1044	 0.270573198809311 
1045	 0.286299426339686 
1046	 0.288126222414923 
1047	 0.280382570742867 
1048	 0.269453530495313 
1049	 0.266283165982183 
1050	 0.256974082506175 
1051	 0.233119939462732 
1052	 0.226137429373545 
1053	 0.241036904585154 
1054	 0.279420314069002 
1055	 0.285436016296521 
1056	 0.261050949129098 
1057	 0.247609993423933 
1058	 0.24218000241315 
1059	 0.244936326235422 
1060	 0.25330743290119 
1061	 0.259202093286863 
1062	 0.258676957651935 
1063	 0.262623873980395 
1064	 0.264331485317017 
1065	 0.260294851765228 
1066	 0.273591835805353 
1067	 0.246149064370708 
1068	 0.128415110779974 
1069	 0.1250813144979 
1070	 0.216294737522869 
1071	 0.309372643699052 
1072	 0.356929370702018 
1073	 0.347580018631257 
1074	 0.276929270256423 
1075	 0.230610687131407 
