Wavelength	AVEI200308.asd
325	 5.76435437227626E-02 
326	 5.18664937097206E-02 
327	 0.034464961380583 
328	 3.94906727632709E-02 
329	 4.41770017726341E-02 
330	 4.16401393000707E-02 
331	 4.01656514321882E-02 
332	 3.94526141528651E-02 
333	 3.85847690290061E-02 
334	 3.59210028345678E-02 
335	 3.30856293051797E-02 
336	 0.034716695099635 
337	 3.51465290645022E-02 
338	 3.41789576892471E-02 
339	 4.14384573062362E-02 
340	 4.19111140977703E-02 
341	 2.53570845393992E-02 
342	 2.21018303176554E-02 
343	 3.00822251811375E-02 
344	 3.78376504738224E-02 
345	 0.033355303955324 
346	 2.05806079963264E-02 
347	 2.99972795128556E-02 
348	 3.79015870917663E-02 
349	 3.01242900530688E-02 
350	 0.031043202490269 
351	 3.65644555474742E-02 
352	 3.52581526535396E-02 
353	 3.30483563059713E-02 
354	 3.11626734404146E-02 
355	 2.85198527292952E-02 
356	 2.75690477976486E-02 
357	 0.029182503591457 
358	 2.75804334131811E-02 
359	 2.63413346829071E-02 
360	 3.18015754115123E-02 
361	 3.39107085962927E-02 
362	 3.17580163064098E-02 
363	 3.09067690265709E-02 
364	 3.17724579958832E-02 
365	 3.39259372829422E-02 
366	 3.28271213496449E-02 
367	 3.07197840999872E-02 
368	 3.11949826475412E-02 
369	 3.12793066667015E-02 
370	 3.11352114342315E-02 
371	 3.36389802708696E-02 
372	 3.58268462293017E-02 
373	 3.58157797988684E-02 
374	 3.24014102454189E-02 
375	 2.88351553146125E-02 
376	 2.94446545349691E-02 
377	 3.04616470670042E-02 
378	 3.05219509061104E-02 
379	 2.83046982005325E-02 
380	 2.67429394916684E-02 
381	 0.027726495603838 
382	 3.28293107885432E-02 
383	 3.68792021487428E-02 
384	 3.31915465627864E-02 
385	 3.07860260101573E-02 
386	 3.03213453443605E-02 
387	 2.58465687625559E-02 
388	 2.32086804727071E-02 
389	 2.49541523277328E-02 
390	 2.91500567204091E-02 
391	 3.17985637849742E-02 
392	 2.88273480662019E-02 
393	 2.78314641181848E-02 
394	 0.028989176797194 
395	 2.74317942129238E-02 
396	 2.77317742984811E-02 
397	 3.07467047577418E-02 
398	 3.03678385608353E-02 
399	 2.80688716432237E-02 
400	 2.60116728937603E-02 
401	 2.82353295669358E-02 
402	 3.21113753203586E-02 
403	 2.95420582951887E-02 
404	 2.66374269710947E-02 
405	 2.61164525068625E-02 
406	 2.83668251985794E-02 
407	 3.03486259545959E-02 
408	 2.84608491225755E-02 
409	 2.84477519939502E-02 
410	 3.00371747836338E-02 
411	 2.85174537001955E-02 
412	 2.67702831096542E-02 
413	 2.64615777592868E-02 
414	 0.028696789303871 
415	 3.11430399161584E-02 
416	 3.07865020359045E-02 
417	 3.05337129472527E-02 
418	 0.030396209476225 
419	 2.79162207422596E-02 
420	 2.65512587249702E-02 
421	 2.79700492023791E-02 
422	 2.94562091758853E-02 
423	 2.99720750111946E-02 
424	 2.85624749278468E-02 
425	 0.027495965322007 
426	 2.73728164969187E-02 
427	 2.78467307399306E-02 
428	 0.028200072678414 
429	 2.81425864256935E-02 
430	 2.98165275659086E-02 
431	 3.12255371365278E-02 
432	 2.85816898399065E-02 
433	 2.74633286347748E-02 
434	 2.87227495042383E-02 
435	 2.94330546160741E-02 
436	 2.95877894897494E-02 
437	 2.92194929019742E-02 
438	 2.84338238688856E-02 
439	 2.77880624820086E-02 
440	 2.82907806367162E-02 
441	 2.81563131747307E-02 
442	 2.72592480667503E-02 
443	 0.027497761962559 
444	 2.81617050411583E-02 
445	 2.85315736224174E-02 
446	 2.76748119148675E-02 
447	 2.65844219560479E-02 
448	 2.78922477827323E-02 
449	 2.88275671721263E-02 
450	 2.86307080242466E-02 
451	 2.86529955957964E-02 
452	 2.87878966529952E-02 
453	 2.88628411027109E-02 
454	 2.89455868998032E-02 
455	 2.89759397631413E-02 
456	 2.87515485215937E-02 
457	 2.84845861458775E-02 
458	 2.84837490854473E-02 
459	 3.00285503695916E-02 
460	 3.11106565118133E-02 
461	 2.93483551846111E-02 
462	 2.86578113327966E-02 
463	 2.93472718083677E-02 
464	 2.93154842407589E-02 
465	 2.92226772795108E-02 
466	 2.94705944557847E-02 
467	 3.07674941361179E-02 
468	 3.16949899977335E-02 
469	 3.01118021391367E-02 
470	 2.95060717813994E-02 
471	 3.02160843119662E-02 
472	 2.98122655490404E-02 
473	 2.93990948624465E-02 
474	 2.96330577687097E-02 
475	 2.98544714789023E-02 
476	 2.98128251787988E-02 
477	 2.92087990903704E-02 
478	 2.87941224478432E-02 
479	 2.89650041760279E-02 
480	 0.030295899047632 
481	 3.12761848261252E-02 
482	 3.07613778259893E-02 
483	 3.02870459311694E-02 
484	 3.01564026142504E-02 
485	 3.03758029078719E-02 
486	 3.09659003986242E-02 
487	 3.15941239166859E-02 
488	 3.06753744015403E-02 
489	 2.96785109227716E-02 
490	 3.01520392388028E-02 
491	 0.031003120137066 
492	 3.14552163754554E-02 
493	 2.98047083878107E-02 
494	 2.94158071119935E-02 
495	 3.13648416323965E-02 
496	 3.23029601872368E-02 
497	 3.22283964660748E-02 
498	 3.15855155185044E-02 
499	 3.17301058214526E-02 
500	 3.26258016363086E-02 
501	 3.28164507909239E-02 
502	 3.26320114968604E-02 
503	 3.24337816187313E-02 
504	 3.34759992919336E-02 
505	 0.034741487279972 
506	 0.034281105577297 
507	 3.41969458819065E-02 
508	 3.47419261838425E-02 
509	 3.43310346644713E-02 
510	 3.38818953955491E-02 
511	 3.42496410467356E-02 
512	 3.63893125181025E-02 
513	 3.87145539580141E-02 
514	 3.71392125062878E-02 
515	 0.035812450491447 
516	 3.62098782867201E-02 
517	 3.71793844611916E-02 
518	 3.84573487732387E-02 
519	 3.97547191423518E-02 
520	 3.95421218438315E-02 
521	 3.86370282121651E-02 
522	 4.01112622147636E-02 
523	 4.13939532005589E-02 
524	 4.15688810650196E-02 
525	 4.29659801196925E-02 
526	 4.42048497536236E-02 
527	 4.29877434094933E-02 
528	 4.38273344459834E-02 
529	 4.65219318494897E-02 
530	 4.61726568820062E-02 
531	 4.54867780147629E-02 
532	 4.61851726678606E-02 
533	 4.64824868500452E-02 
534	 4.62763430582116E-02 
535	 4.57524317505706E-02 
536	 4.60195616863995E-02 
537	 4.71066034855979E-02 
538	 4.70835393058523E-02 
539	 0.047464141746162 
540	 4.96124253719644E-02 
541	 4.98044577718565E-02 
542	 0.048554664506962 
543	 4.93127487029542E-02 
544	 4.98185057787442E-02 
545	 0.04939935090793 
546	 4.98051937046937E-02 
547	 5.06202509772564E-02 
548	 5.11021567889204E-02 
549	 5.09413076567951E-02 
550	 0.050397631420916 
551	 5.06167579305264E-02 
552	 5.10705965471105E-02 
553	 5.14320888793027E-02 
554	 5.19901691038989E-02 
555	 5.24857800655499E-02 
556	 5.23691004319888E-02 
557	 5.24819587397828E-02 
558	 5.29661222309133E-02 
559	 5.31869775638794E-02 
560	 5.29205163310979E-02 
561	 5.21166092030913E-02 
562	 5.27891110051575E-02 
563	 5.41161297411222E-02 
564	 5.28914103384723E-02 
565	 5.19340781162715E-02 
566	 5.22259619885097E-02 
567	 5.21466529930395E-02 
568	 5.20258434475031E-02 
569	 5.24534354856599E-02 
570	 5.21729090221301E-02 
571	 0.051420896255501 
572	 5.21875703817842E-02 
573	 5.25623980927765E-02 
574	 5.15556995284684E-02 
575	 0.051415604153693 
576	 5.15465920279245E-02 
577	 5.02043124112827E-02 
578	 5.00194394518914E-02 
579	 5.11696321310669E-02 
580	 5.04704984348303E-02 
581	 4.98784023739426E-02 
582	 5.10620556385642E-02 
583	 5.13384041244018E-02 
584	 5.07695492575257E-02 
585	 5.08327293494873E-02 
586	 0.050742051502819 
587	 5.02369596634939E-02 
588	 4.95205265033363E-02 
589	 0.049008710102766 
590	 4.92206167994673E-02 
591	 4.96997385053365E-02 
592	 5.01279854211061E-02 
593	 4.99652921948318E-02 
594	 4.99757507041176E-02 
595	 5.04545180877746E-02 
596	 4.98022830530705E-02 
597	 4.89242534383532E-02 
598	 0.049788150304103 
599	 5.01672835208179E-02 
600	 4.96885611416333E-02 
601	 4.98429617217685E-02 
602	 5.03488234097382E-02 
603	 5.08187572010609E-02 
604	 5.01049505216048E-02 
605	 0.048845908999962 
606	 4.93205659625799E-02 
607	 4.90811971454748E-02 
608	 4.76114169454054E-02 
609	 4.79710990375201E-02 
610	 4.91379166115953E-02 
611	 4.94728268626096E-02 
612	 4.87721618085549E-02 
613	 4.75863288402683E-02 
614	 4.81496584825961E-02 
615	 4.80561161560357E-02 
616	 4.62825450976678E-02 
617	 4.72513896130591E-02 
618	 4.94322661341348E-02 
619	 0.049259490437173 
620	 4.79305957115534E-02 
621	 4.62927299879077E-02 
622	 4.64333945539488E-02 
623	 4.74247655173436E-02 
624	 4.82708687151212E-02 
625	 4.81548542928675E-02 
626	 4.74477874466369E-02 
627	 4.75273380568431E-02 
628	 4.81628489790219E-02 
629	 4.89876823168776E-02 
630	 4.82572036840967E-02 
631	 4.72259768463021E-02 
632	 4.76238625150551E-02 
633	 4.86594747983832E-02 
634	 4.95348929046237E-02 
635	 4.83563547678477E-02 
636	 4.72111226270357E-02 
637	 4.72239798694899E-02 
638	 4.64735145367646E-02 
639	 4.54947275382256E-02 
640	 4.55627503869554E-02 
641	 4.72201317715552E-02 
642	 4.94820510732989E-02 
643	 4.78274828209577E-02 
644	 4.46159023702318E-02 
645	 4.23199536690726E-02 
646	 4.36224019869783E-02 
647	 4.68198876675161E-02 
648	 4.60204019729536E-02 
649	 4.45114918020036E-02 
650	 4.36703809532914E-02 
651	 4.37664291694519E-02 
652	 4.39461031812622E-02 
653	 4.31550549823356E-02 
654	 4.22422295679629E-02 
655	 4.17250246103785E-02 
656	 4.28536074742531E-02 
657	 4.33705061716622E-02 
658	 4.21507537954851E-02 
659	 4.14807679190497E-02 
660	 4.16732267910887E-02 
661	 4.29068797314814E-02 
662	 4.26093543636387E-02 
663	 4.05899026097711E-02 
664	 3.94492067829764E-02 
665	 3.94844561094741E-02 
666	 4.06645349811866E-02 
667	 4.03571795920613E-02 
668	 0.038785456583619 
669	 3.75716436470125E-02 
670	 3.70847436193724E-02 
671	 3.76069957545823E-02 
672	 3.91873264573272E-02 
673	 4.08138940271511E-02 
674	 4.13290493427665E-02 
675	 4.03677445225551E-02 
676	 3.86070587518585E-02 
677	 3.80099960794287E-02 
678	 3.88752420540559E-02 
679	 4.09485788459338E-02 
680	 4.10079833601784E-02 
681	 3.99084437990222E-02 
682	 3.96343527877479E-02 
683	 4.00180875453176E-02 
684	 4.10484662231339E-02 
685	 4.25259617811638E-02 
686	 4.45365039304806E-02 
687	 4.70973796207875E-02 
688	 4.96332389791982E-02 
689	 5.13762377074092E-02 
690	 5.15324428201023E-02 
691	 5.21836878455251E-02 
692	 5.42415201610263E-02 
693	 0.058129643934378 
694	 6.19324821959341E-02 
695	 6.36074956191391E-02 
696	 6.59002834192396E-02 
697	 6.89133639482613E-02 
698	 7.14613762741075E-02 
699	 7.42022597902726E-02 
700	 7.74852506552731E-02 
701	 8.18056998890138E-02 
702	 8.58926908002642E-02 
703	 8.80379464066267E-02 
704	 9.08652287106637E-02 
705	 9.43994776501301E-02 
706	 9.61547898793046E-02 
707	 9.83077958405579E-02 
708	 0.102049803798773 
709	 0.104969210578013 
710	 0.107133884495488 
711	 0.109247459055243 
712	 0.111976546023261 
713	 0.115333118760746 
714	 0.118544510307637 
715	 0.120414274041542 
716	 0.12008257577409 
717	 0.12241089698721 
718	 0.126997952015218 
719	 0.127464977169178 
720	 0.128594968070509 
721	 0.131582983864692 
722	 0.134207218183529 
723	 0.136181131951631 
724	 0.137012511872142 
725	 0.138353483123878 
726	 0.140040950845093 
727	 0.140374868477488 
728	 0.14153353679925 
729	 0.144230446739042 
730	 0.145512234869021 
731	 0.14530347658823 
732	 0.144018340475451 
733	 0.145123100652922 
734	 0.147962221770706 
735	 0.147410648199675 
736	 0.147040396651761 
737	 0.149059339472528 
738	 0.150746062071848 
739	 0.151989862146527 
740	 0.153343608377671 
741	 0.154187794011527 
742	 0.15449707433372 
743	 0.154922984783296 
744	 0.155428514956393 
745	 0.155944220288919 
746	 0.156198519893178 
747	 0.156381033965836 
748	 0.157104270534125 
749	 0.157499118731688 
750	 0.15751901014904 
751	 0.158595148041459 
752	 0.160272823622787 
753	 0.161892565664895 
754	 0.162090957460456 
755	 0.161329321284462 
756	 0.161653975005065 
757	 0.162558957963431 
758	 0.163862744700563 
759	 0.164879445913337 
760	 0.165739744068687 
761	 0.16592619922509 
762	 0.167451769716786 
763	 0.169280029980048 
764	 0.167773598991247 
765	 0.167792180350527 
766	 0.170059191443479 
767	 0.170307082095871 
768	 0.169677184119563 
769	 0.169627883587649 
770	 0.169773357659716 
771	 0.169991066730423 
772	 0.169975501486118 
773	 0.17019498515249 
774	 0.170875649367488 
775	 0.171054887706073 
776	 0.171079217151561 
777	 0.171788990848857 
778	 0.173002788738907 
779	 0.174282115642209 
780	 0.173909742240712 
781	 0.174151981077139 
782	 0.176531923716473 
783	 0.176941360998071 
784	 0.176195385873942 
785	 0.177671219018823 
786	 0.177625063844888 
787	 0.175627173042388 
788	 0.175676708097862 
789	 0.176915115994275 
790	 0.178272038737801 
791	 0.178979312112908 
792	 0.179525216739244 
793	 0.181933488858537 
794	 0.182222092921116 
795	 0.179845898135009 
796	 0.179881379478784 
797	 0.180915967472744 
798	 0.181252917368581 
799	 0.182180560238733 
800	 0.183529818551501 
801	 0.184362059841832 
802	 0.184721201645558 
803	 0.184878999789284 
804	 0.186532259725203 
805	 0.187677064109819 
806	 0.186239493919756 
807	 0.186567433042366 
808	 0.188446453002809 
809	 0.188462755855666 
810	 0.188893434304441 
811	 0.190343856800316 
812	 0.190160945174784 
813	 0.189735163418829 
814	 0.191180496582153 
815	 0.1913233800976 
816	 0.191127875544508 
817	 0.196861278672268 
818	 0.198304469767539 
819	 0.193007130718269 
820	 0.19364173427197 
821	 0.196375053267907 
822	 0.195764868897228 
823	 0.197168683563907 
824	 0.199817873927156 
825	 0.198413452741856 
826	 0.197814305528223 
827	 0.199465813026653 
828	 0.198543616314396 
829	 0.198065174379358 
830	 0.20200090664307 
831	 0.203846617302225 
832	 0.202711066280252 
833	 0.199885129552368 
834	 0.199640580130646 
835	 0.202871935171654 
836	 0.20237522785223 
837	 0.201155037766338 
838	 0.203115033040165 
839	 0.203439143000518 
840	 0.202914649020257 
841	 0.207223382426988 
842	 0.208403026819553 
843	 0.204276617451941 
844	 0.20396008272616 
845	 0.205222649942665 
846	 0.204807559162797 
847	 0.205392264144731 
848	 0.206946318806863 
849	 0.207949961114456 
850	 0.209134933452975 
851	 0.210193089058113 
852	 0.20772062366296 
853	 0.205707564076495 
854	 0.20834665072408 
855	 0.209139198242876 
856	 0.208084307362296 
857	 0.208309127206844 
858	 0.20988458182113 
859	 0.212313785404545 
860	 0.212418625271822 
861	 0.212470220658333 
862	 0.214481563064627 
863	 0.21334950509084 
864	 0.210400358202688 
865	 0.210863639693582 
866	 0.2123723142326 
867	 0.213891594043962 
868	 0.214374805651667 
869	 0.214813791271285 
870	 0.215940472702191 
871	 0.216398596721441 
872	 0.21556485997189 
873	 0.212446226214683 
874	 0.211918955694064 
875	 0.214938615583265 
876	 0.218602481252811 
877	 0.220649179254099 
878	 0.220098885965138 
879	 0.223290056463893 
880	 0.227164819930759 
881	 0.225442262957924 
882	 0.225959584545677 
883	 0.228499042812716 
884	 0.224455967442804 
885	 0.220921278279336 
886	 0.221927747889722 
887	 0.224026862843465 
888	 0.22775990854404 
889	 0.234063010947976 
890	 0.233279408177336 
891	 0.227256939169564 
892	 0.229403975517673 
893	 0.231995132580765 
894	 0.232336108781766 
895	 0.237555078496336 
896	 0.241067729686771 
897	 0.235184998012654 
898	 0.237837334791513 
899	 0.244834983133614 
900	 0.235862436261292 
901	 0.231134473606943 
902	 0.235560138896207 
903	 0.238631437962528 
904	 0.237596431986209 
905	 0.231948496881529 
906	 0.235415592463162 
907	 0.243930171221419 
908	 0.246377984201048 
909	 0.246901994047896 
910	 0.24628743893155 
911	 0.24402207049844 
912	 0.24070808379176 
913	 0.237809401463241 
914	 0.241631401319672 
915	 0.244087288432103 
916	 0.235794356560826 
917	 0.243984948223623 
918	 0.261423248319584 
919	 0.254987348210242 
920	 0.246315724596043 
921	 0.242689216536733 
922	 0.240384805062122 
923	 0.240868040867779 
924	 0.244970134391449 
925	 0.24558559412339 
926	 0.243807810872219 
927	 0.245139275734606 
928	 0.243993127030986 
929	 0.241244145424126 
930	 0.25347683265265 
931	 0.253668453892408 
932	 0.225372558597862 
933	 0.236338663641768 
934	 0.261234849240378 
935	 0.244873927613856 
936	 0.226298023189847 
937	 0.218022154926139 
938	 0.224867136303078 
939	 0.245746859874219 
940	 0.269659412033337 
941	 0.254191822313223 
942	 0.23672841155929 
943	 0.246608112196544 
944	 0.266233932970315 
945	 0.275516014982266 
946	 0.25233835483471 
947	 0.213155786855719 
948	 0.186340737022922 
949	 0.227708092211686 
950	 0.255265670061161 
951	 0.244865655246943 
952	 0.259537980843108 
953	 0.266608637075309 
954	 0.238452961120729 
955	 0.222136862410194 
956	 0.230158683251712 
957	 0.266479484846473 
958	 0.273825492534151 
959	 0.246991524884945 
960	 0.224382548611969 
961	 0.210739862912488 
962	 0.211898868395196 
963	 0.237142870667602 
964	 0.257967976874141 
965	 0.252239371198479 
966	 0.247808138668634 
967	 0.245029415514356 
968	 0.234083209448944 
969	 0.238651497795357 
970	 0.255884375269045 
971	 0.253343623127149 
972	 0.245137442306907 
973	 0.240885188091264 
974	 0.246284538950098 
975	 0.247636447037155 
976	 0.230901877844613 
977	 0.233612477875946 
978	 0.249177620533234 
979	 0.246520041151505 
980	 0.239070898998285 
981	 0.232307702433607 
982	 0.233519034909943 
983	 0.240958242621953 
984	 0.249607405905414 
985	 0.24121433004043 
986	 0.22381091528861 
987	 0.209266964041832 
988	 0.227857849885792 
989	 0.25712976303074 
990	 0.245791678727586 
991	 0.241503667595086 
992	 0.252396979996565 
993	 0.255565379595408 
994	 0.256471491440215 
995	 0.257453782246594 
996	 0.257995898061722 
997	 0.254759104904927 
998	 0.246077558822147 
999	 0.249976849628613 
1000	 0.261039243035189 
1001	 0.265374458196553 
1002	 0.25767356008552 
1003	 0.241399737468378 
1004	 0.232249674421358 
1005	 0.232392197222734 
1006	 0.24226856646577 
1007	 0.256605321725974 
1008	 0.259976143210324 
1009	 0.246116649623316 
1010	 0.253125129798739 
1011	 0.264727766347806 
1012	 0.25317897321287 
1013	 0.247201208813929 
1014	 0.245747300826773 
1015	 0.230044265864065 
1016	 0.220958233159254 
1017	 0.230793430821681 
1018	 0.280598671172897 
1019	 0.300766938666551 
1020	 0.265549861664155 
1021	 0.23777094877796 
1022	 0.232922462543988 
1023	 0.253861496871732 
1024	 0.249212263093941 
1025	 0.22998104836643 
1026	 0.233106518146605 
1027	 0.263139284767171 
1028	 0.293245162931211 
1029	 0.252686006120229 
1030	 0.24506477523678 
1031	 0.294539394788893 
1032	 0.31003490997833 
1033	 0.310065162381682 
1034	 0.302363118487092 
1035	 0.275682052897828 
1036	 0.249679655453235 
1037	 0.242367592908902 
1038	 0.271636730658975 
1039	 0.298290986425213 
1040	 0.26583306911858 
1041	 0.276906508824457 
1042	 0.30510295579494 
1043	 0.1856480897463 
1044	 0.146381562075992 
1045	 0.241900968340087 
1046	 0.258114518923935 
1047	 0.26570256979001 
1048	 0.294260970278831 
1049	 0.271074991133733 
1050	 0.274981669416254 
1051	 0.366503572247982 
1052	 0.308889961550625 
1053	 0.188426562213671 
1054	 0.19889539021738 
1055	 0.222006363313809 
1056	 0.23381617183899 
1057	 0.232810943257089 
1058	 0.197466815507246 
1059	 0.156868052256008 
1060	 0.249645482488751 
1061	 0.287908149393183 
1062	 0.240677884157344 
1063	 0.218730584496272 
1064	 0.233550220924849 
1065	 0.272984473685071 
1066	 0.240779205135044 
1067	 0.212056831052635 
1068	 0.277698315046808 
1069	 0.300088132666643 
1070	 0.270862054109943 
1071	 0.212306494721625 
1072	 0.204847588499271 
1073	 0.226779580077836 
1074	 0.173487615361873 
1075	 0.197494672079769 
