Wavelength	AVEI200095.asd
325	 2.39367935047264E-02 
326	 2.72119938049978E-02 
327	 2.99191845515923E-02 
328	 2.87020183355266E-02 
329	 2.81866478679146E-02 
330	 2.91567094879467E-02 
331	 0.025668045629159 
332	 2.14329185993397E-02 
333	 2.02942876359641E-02 
334	 2.46435248087782E-02 
335	 2.95555347787179E-02 
336	 0.022257686946899 
337	 1.95566741041945E-02 
338	 2.45309471104196E-02 
339	 2.55102781245722E-02 
340	 2.51434856743163E-02 
341	 2.58377087539734E-02 
342	 2.39616691078372E-02 
343	 2.14031217773737E-02 
344	 2.24972721069597E-02 
345	 2.40770070775617E-02 
346	 2.49295634966664E-02 
347	 2.41632566770632E-02 
348	 2.31466119522924E-02 
349	 2.29752858923267E-02 
350	 2.47462772576022E-02 
351	 2.62370763269044E-02 
352	 0.023828607341516 
353	 2.28592866697878E-02 
354	 2.34400503848477E-02 
355	 2.05931100805182E-02 
356	 0.018667331783543 
357	 2.00689984638254E-02 
358	 0.02160171518027 
359	 2.25795316443123E-02 
360	 2.26753478884156E-02 
361	 2.21698667938742E-02 
362	 2.15798404306666E-02 
363	 2.22709133056995E-02 
364	 2.27274824827863E-02 
365	 0.022156578910604 
366	 2.12025519370636E-02 
367	 2.02466398259513E-02 
368	 0.01966119258381 
369	 0.019906767845539 
370	 2.09435102597072E-02 
371	 2.24588837212258E-02 
372	 2.32576366952388E-02 
373	 2.26833362785833E-02 
374	 2.12249864361795E-02 
375	 0.020360126090196 
376	 2.18991891160552E-02 
377	 2.23178767696589E-02 
378	 2.13667491625437E-02 
379	 2.12962738381976E-02 
380	 2.12142586706897E-02 
381	 2.08270692670196E-02 
382	 2.11176485578969E-02 
383	 2.14083608613151E-02 
384	 2.07356243732085E-02 
385	 0.020406636677611 
386	 2.08615329128473E-02 
387	 2.24860845612684E-02 
388	 2.34123718183249E-02 
389	 2.28566373522907E-02 
390	 2.19484614661543E-02 
391	 2.13743267527255E-02 
392	 0.021731082545424 
393	 2.15170707622254E-02 
394	 2.08838561165182E-02 
395	 2.12528185911079E-02 
396	 2.14227387056459E-02 
397	 2.11053311354925E-02 
398	 2.18144979637082E-02 
399	 2.23830617206465E-02 
400	 2.15928769695332E-02 
401	 2.10705849681428E-02 
402	 2.10794809270131E-02 
403	 0.021509058517041 
404	 0.021867067362739 
405	 2.18850026428461E-02 
406	 2.13099361950053E-02 
407	 2.08479713207929E-02 
408	 2.13501159632996E-02 
409	 2.13017309367905E-02 
410	 2.07387649760774E-02 
411	 2.07602596886976E-02 
412	 2.09899957346092E-02 
413	 2.11958996858489E-02 
414	 2.10713593490136E-02 
415	 2.09444909832665E-02 
416	 2.12703649768573E-02 
417	 2.12123257845323E-02 
418	 2.08851049942064E-02 
419	 2.13228116177819E-02 
420	 2.15311747272014E-02 
421	 2.10511620876852E-02 
422	 0.020654694136449 
423	 2.06245101274366E-02 
424	 2.12292977532082E-02 
425	 2.15205457888606E-02 
426	 2.12333117233962E-02 
427	 2.03071195399429E-02 
428	 1.99974656779565E-02 
429	 2.09415461251907E-02 
430	 2.11050058015202E-02 
431	 2.08767519938742E-02 
432	 2.14112537544875E-02 
433	 2.13293679249256E-02 
434	 2.06452323555176E-02 
435	 2.07206936679479E-02 
436	 2.10137127115702E-02 
437	 2.11550678165598E-02 
438	 2.13952222725246E-02 
439	 2.15653386256242E-02 
440	 2.12860339354433E-02 
441	 2.12375903764192E-02 
442	 2.15246936635703E-02 
443	 2.16348916191444E-02 
444	 2.16433187106918E-02 
445	 2.16245312929745E-02 
446	 2.15219373731602E-02 
447	 2.14301968780312E-02 
448	 2.15744364068788E-02 
449	 2.16775706816436E-02 
450	 2.16474140596897E-02 
451	 2.15175890408728E-02 
452	 2.15277866722401E-02 
453	 2.18853593853594E-02 
454	 2.20711807151709E-02 
455	 2.20209149064735E-02 
456	 2.18305093630341E-02 
457	 0.021848634168807 
458	 2.21649601722295E-02 
459	 2.23376439499296E-02 
460	 2.22368923311171E-02 
461	 2.17783121554742E-02 
462	 2.16644548052838E-02 
463	 2.18623071416989E-02 
464	 2.16797953111413E-02 
465	 2.16172037775173E-02 
466	 2.18796716507122E-02 
467	 2.20349425081174E-02 
468	 2.20128986375319E-02 
469	 2.17845242773309E-02 
470	 2.19718176064922E-02 
471	 2.24313788543304E-02 
472	 2.20067790838606E-02 
473	 0.021684101634911 
474	 2.20541439154716E-02 
475	 0.022406542508085 
476	 2.26327655122844E-02 
477	 0.022733781953272 
478	 2.26969046301271E-02 
479	 2.25810037238174E-02 
480	 2.26329438109701E-02 
481	 2.25950773006492E-02 
482	 2.22909952650275E-02 
483	 0.022213715808232 
484	 2.24068183654798E-02 
485	 0.022779436924819 
486	 2.30772078766255E-02 
487	 2.32060559730048E-02 
488	 2.33637602385222E-02 
489	 2.34899966352425E-02 
490	 2.35053323454611E-02 
491	 2.31826970953089E-02 
492	 2.27862682577732E-02 
493	 2.31388323389287E-02 
494	 2.33866826293019E-02 
495	 2.32069248555121E-02 
496	 2.31252546254021E-02 
497	 2.30897063754271E-02 
498	 0.022968720902798 
499	 2.30506044647459E-02 
500	 2.34026620738471E-02 
501	 2.40749383892044E-02 
502	 2.43692763434804E-02 
503	 2.39467518071157E-02 
504	 2.37891822521853E-02 
505	 2.38610860371867E-02 
506	 2.38624642644526E-02 
507	 2.39034953731645E-02 
508	 2.40108615780288E-02 
509	 2.42237106412162E-02 
510	 2.43360015467418E-02 
511	 2.42236535915188E-02 
512	 0.024450834320998 
513	 2.48357467908224E-02 
514	 2.47251285722919E-02 
515	 2.46506278915615E-02 
516	 2.48123670248253E-02 
517	 2.52177166959837E-02 
518	 2.54778768420025E-02 
519	 2.52050327072033E-02 
520	 2.51277593062396E-02 
521	 2.53012327274179E-02 
522	 2.53842791577827E-02 
523	 2.56942957744871E-02 
524	 2.62413879176246E-02 
525	 0.026118535334998 
526	 2.58021109112856E-02 
527	 2.60876250296265E-02 
528	 2.64860339073488E-02 
529	 2.68149297957373E-02 
530	 0.026936278530708 
531	 2.69478310747785E-02 
532	 0.026959023144615 
533	 2.73296227131672E-02 
534	 2.77957043137474E-02 
535	 2.77660278818645E-02 
536	 2.74830484928347E-02 
537	 2.71743872726992E-02 
538	 2.74888198231512E-02 
539	 2.78984386420089E-02 
540	 2.78806239365165E-02 
541	 2.79551509475124E-02 
542	 2.81457089417256E-02 
543	 2.82449507863844E-02 
544	 2.83494184826813E-02 
545	 2.84908080174406E-02 
546	 2.86409672171634E-02 
547	 2.87183531801238E-02 
548	 2.86227694316726E-02 
549	 2.86440009240389E-02 
550	 2.88155780224003E-02 
551	 2.89764818120039E-02 
552	 2.91237738733032E-02 
553	 2.92338213478145E-02 
554	 2.91374596453391E-02 
555	 0.029048837670615 
556	 2.94090702553157E-02 
557	 2.97222957362582E-02 
558	 2.97976998117392E-02 
559	 2.96003487194561E-02 
560	 2.93615662825864E-02 
561	 2.93149585687227E-02 
562	 2.96170665299425E-02 
563	 3.00429695997491E-02 
564	 2.99116458282598E-02 
565	 2.99522579035577E-02 
566	 3.03648256220925E-02 
567	 3.04687039414858E-02 
568	 3.02867294914206E-02 
569	 2.99342563460016E-02 
570	 2.98270434547569E-02 
571	 2.99943891901114E-02 
572	 3.00773661483022E-02 
573	 3.02376504435642E-02 
574	 3.05184286949564E-02 
575	 3.04710887559497E-02 
576	 3.02886915875372E-02 
577	 3.04536512835275E-02 
578	 3.03463434285881E-02 
579	 2.99460050011698E-02 
580	 2.99754796351662E-02 
581	 3.03010934346431E-02 
582	 3.07451894658256E-02 
583	 3.09492824608067E-02 
584	 3.09159895527334E-02 
585	 0.030846154116523 
586	 3.08108916897129E-02 
587	 3.08365664612385E-02 
588	 3.07756947719918E-02 
589	 0.030690571862008 
590	 3.06829481935526E-02 
591	 3.09631681044244E-02 
592	 3.14168540458697E-02 
593	 3.15686997594881E-02 
594	 3.15614637010329E-02 
595	 0.031484086040439 
596	 3.13389165902418E-02 
597	 3.12742937967555E-02 
598	 3.15431096379949E-02 
599	 3.16747150639188E-02 
600	 0.031610825376277 
601	 0.031811670211091 
602	 3.19910475005766E-02 
603	 3.19179459169001E-02 
604	 3.22140887570387E-02 
605	 3.26375055002679E-02 
606	 3.22473875981305E-02 
607	 3.20856406366828E-02 
608	 3.25043561109699E-02 
609	 3.29109682820078E-02 
610	 0.033048322739744 
611	 3.26792174542077E-02 
612	 3.26853863874806E-02 
613	 3.30902216594258E-02 
614	 3.31898534467453E-02 
615	 3.31124265259915E-02 
616	 3.29643747035686E-02 
617	 3.30036348723644E-02 
618	 3.31335474842893E-02 
619	 3.30992839010781E-02 
620	 3.32817484071847E-02 
621	 3.36761254730772E-02 
622	 3.38543846958877E-02 
623	 0.033586159324592 
624	 3.27784283953372E-02 
625	 3.28722163060918E-02 
626	 3.36811871250509E-02 
627	 3.40447435719557E-02 
628	 3.39988098391335E-02 
629	 3.36400129543723E-02 
630	 3.37615272881255E-02 
631	 3.40380549711423E-02 
632	 3.39772534281458E-02 
633	 0.034177542541089 
634	 3.45828076669895E-02 
635	 3.45106101492805E-02 
636	 3.46817821062968E-02 
637	 3.53609240111219E-02 
638	 3.50172079785025E-02 
639	 3.42842466494608E-02 
640	 3.46257107232709E-02 
641	 3.50784547622914E-02 
642	 3.53185984565194E-02 
643	 3.53109848289522E-02 
644	 3.52006256057148E-02 
645	 3.51327182681295E-02 
646	 3.52001728120401E-02 
647	 3.53934905076733E-02 
648	 0.035679309502177 
649	 3.56715151228027E-02 
650	 3.53183650844817E-02 
651	 3.53568240571243E-02 
652	 0.035498424732309 
653	 3.53292053696454E-02 
654	 3.51126317578552E-02 
655	 3.50535537133675E-02 
656	 3.56940826136445E-02 
657	 3.61017950637978E-02 
658	 3.57892472684974E-02 
659	 3.56838994989462E-02 
660	 3.58096512589597E-02 
661	 3.60422190422528E-02 
662	 3.60634857685433E-02 
663	 3.58705207967334E-02 
664	 3.59198617158238E-02 
665	 3.60025607744475E-02 
666	 3.59364337222354E-02 
667	 3.58409812844496E-02 
668	 3.57462277487666E-02 
669	 3.56074400419966E-02 
670	 3.58301637541703E-02 
671	 3.64287443753558E-02 
672	 3.66012280791331E-02 
673	 3.64684902566832E-02 
674	 3.62575427091835E-02 
675	 3.60958437435404E-02 
676	 3.60837389767363E-02 
677	 3.63429024265904E-02 
678	 3.67348379340927E-02 
679	 3.71506767592598E-02 
680	 3.74745246119083E-02 
681	 3.76842064305805E-02 
682	 3.77799386923568E-02 
683	 3.77662462437999E-02 
684	 3.78282730968638E-02 
685	 3.86458147863829E-02 
686	 3.96189003412093E-02 
687	 4.01751601086643E-02 
688	 4.04043016576865E-02 
689	 4.05914211919701E-02 
690	 4.13931841794861E-02 
691	 4.21092107414134E-02 
692	 4.26038515428657E-02 
693	 4.32603996901562E-02 
694	 0.04403596376218 
695	 4.48294408256678E-02 
696	 4.57421723463184E-02 
697	 4.67373074225504E-02 
698	 4.77555020547005E-02 
699	 4.87005274515299E-02 
700	 4.95059702153454E-02 
701	 5.02346275908132E-02 
702	 5.09661998615069E-02 
703	 5.17943255291589E-02 
704	 0.052920178529293 
705	 5.41871497686405E-02 
706	 5.49082483312106E-02 
707	 5.54543489254323E-02 
708	 5.60829734716696E-02 
709	 5.68043412243601E-02 
710	 5.75843338138293E-02 
711	 5.83421737624989E-02 
712	 5.91592840384622E-02 
713	 6.00331331057547E-02 
714	 6.09350488713007E-02 
715	 6.15793616997205E-02 
716	 6.17354826380896E-02 
717	 6.17865066674972E-02 
718	 6.21232486761028E-02 
719	 0.063470714621248 
720	 6.50028992066125E-02 
721	 6.60930856128398E-02 
722	 6.63043437703685E-02 
723	 6.63742793228047E-02 
724	 6.70736081824822E-02 
725	 6.76192333661604E-02 
726	 0.067940592190622 
727	 0.068518911010062 
728	 6.92474015969475E-02 
729	 7.00187883391849E-02 
730	 7.04485215865328E-02 
731	 7.08065708116277E-02 
732	 7.15197973492769E-02 
733	 0.071779690969544 
734	 7.17391098800177E-02 
735	 7.24341347682807E-02 
736	 7.33455637034875E-02 
737	 7.40864720763872E-02 
738	 7.47474360012497E-02 
739	 7.52313183574941E-02 
740	 7.53331312661016E-02 
741	 7.56149346853349E-02 
742	 0.076217214297047 
743	 7.68650904712041E-02 
744	 7.75349402426519E-02 
745	 7.81913012828294E-02 
746	 7.85272850929488E-02 
747	 7.86354236999443E-02 
748	 7.88514154701672E-02 
749	 7.91020414797441E-02 
750	 7.94172699343164E-02 
751	 8.00051281580737E-02 
752	 8.05614320687294E-02 
753	 8.07626940719211E-02 
754	 8.08362786290334E-02 
755	 8.10284244383741E-02 
756	 8.19546697254617E-02 
757	 8.25190677696633E-02 
758	 8.23014113611484E-02 
759	 8.22312845460494E-02 
760	 8.25864886760018E-02 
761	 8.35078689343048E-02 
762	 8.41199743161472E-02 
763	 8.42799857918705E-02 
764	 8.45789041041794E-02 
765	 8.47778810775688E-02 
766	 8.49227141683812E-02 
767	 8.57150771786215E-02 
768	 8.65483643539027E-02 
769	 8.66816261387698E-02 
770	 8.71227082884541E-02 
771	 8.79067856356266E-02 
772	 0.088274789968753 
773	 8.85818159519195E-02 
774	 8.90593042592235E-02 
775	 8.95573357509217E-02 
776	 9.00112902446576E-02 
777	 9.03492610484962E-02 
778	 0.090692039925085 
779	 0.090994927278693 
780	 0.090861701945432 
781	 9.09123757214699E-02 
782	 9.16194236054867E-02 
783	 9.24932375437617E-02 
784	 9.31658040114475E-02 
785	 9.30493526194654E-02 
786	 9.29753008951835E-02 
787	 9.32789452298865E-02 
788	 9.39976852058477E-02 
789	 9.46493061550748E-02 
790	 9.48263321047621E-02 
791	 9.55617059116901E-02 
792	 0.096474272755986 
793	 9.61273412937774E-02 
794	 9.61436407673884E-02 
795	 9.69320961530752E-02 
796	 9.73589087195924E-02 
797	 0.097574686667974 
798	 9.78052872549897E-02 
799	 0.098097888089837 
800	 9.84629800694264E-02 
801	 9.88787281410269E-02 
802	 0.099225435812954 
803	 9.94988869161516E-02 
804	 9.99834347896458E-02 
805	 0.100538212149134 
806	 0.100991918460946 
807	 0.101356150777371 
808	 0.101595863400319 
809	 0.101565963226969 
810	 0.101722146787243 
811	 0.102220206690296 
812	 0.102570197217607 
813	 0.102768887790102 
814	 0.102852091493992 
815	 0.102356277995103 
816	 0.101896844311322 
817	 0.103706917182492 
818	 0.10520616713209 
819	 0.105406875881432 
820	 0.105962003626168 
821	 0.106425264675748 
822	 0.106161818450737 
823	 0.106763079107227 
824	 0.108094180832456 
825	 0.108863136242134 
826	 0.109100902078205 
827	 0.108939543891437 
828	 0.109174315954453 
829	 0.109720820519394 
830	 0.110335740731505 
831	 0.110267913353534 
832	 0.110004810311453 
833	 0.111483409799489 
834	 0.112561843757973 
835	 0.112495037241356 
836	 0.112774345708864 
837	 0.113279602459272 
838	 0.113749547202232 
839	 0.114669229435609 
840	 0.115737312299387 
841	 0.115894957457105 
842	 0.11578623448268 
843	 0.115807837388688 
844	 0.116482439494069 
845	 0.117321601065723 
846	 0.117719704431711 
847	 0.117559258895105 
848	 0.117252321491541 
849	 0.118076886890066 
850	 0.11871161676233 
851	 0.118656028630215 
852	 0.11843004757653 
853	 0.118535995940301 
854	 0.119378986145442 
855	 0.119217922925496 
856	 0.118858467809596 
857	 0.121376249624417 
858	 0.122795447868913 
859	 0.122199954587349 
860	 0.122440897017186 
861	 0.123086364408155 
862	 0.123541258882931 
863	 0.123291604414521 
864	 0.122761653494495 
865	 0.123192778911153 
866	 0.123627450205326 
867	 0.123852493549571 
868	 0.124410634251244 
869	 0.125174427666585 
870	 0.125988293540223 
871	 0.126578283855888 
872	 0.127051747961966 
873	 0.127717894988762 
874	 0.128255347930591 
875	 0.128461757637989 
876	 0.127775867030204 
877	 0.127878814585087 
878	 0.129796213617142 
879	 0.131603152694509 
880	 0.132528683094838 
881	 0.131846650148117 
882	 0.131856422283023 
883	 0.132893001755726 
884	 0.133613556727961 
885	 0.134067273637184 
886	 0.134347165594373 
887	 0.135059425571614 
888	 0.135935684484861 
889	 0.136525740149049 
890	 0.136310067429996 
891	 0.135564057284803 
892	 0.135602599882195 
893	 0.135586286983167 
894	 0.135156902587329 
895	 0.134562243606812 
896	 0.134327378741024 
897	 0.135058715390522 
898	 0.13666101747811 
899	 0.138410794434299 
900	 0.138692289248017 
901	 0.139670560272862 
902	 0.141100320217942 
903	 0.138426256728285 
904	 0.136508379133191 
905	 0.13887933163886 
906	 0.140335518068041 
907	 0.140397891660319 
908	 0.139610310482763 
909	 0.140151179333058 
910	 0.141615537796773 
911	 0.139233348152507 
912	 0.138710014548702 
913	 0.142540677399835 
914	 0.14352611838934 
915	 0.142923177007047 
916	 0.143181646789987 
917	 0.143803610711466 
918	 0.143821187927901 
919	 0.140207377877005 
920	 0.140057836182449 
921	 0.144593639533381 
922	 0.146332275289662 
923	 0.145933865075769 
924	 0.144335262668151 
925	 0.142065963657649 
926	 0.139672779531315 
927	 0.137807966695484 
928	 0.13943182567645 
929	 0.143597095738513 
930	 0.139498010538838 
931	 0.132955453603947 
932	 0.129777404496641 
933	 0.13155963705347 
934	 0.135230057554276 
935	 0.135176041964568 
936	 0.135671619971485 
937	 0.136004324126039 
938	 0.131971674653991 
939	 0.128029141104294 
940	 0.125539868106589 
941	 0.121697855177377 
942	 0.125214434651517 
943	 0.139373158202312 
944	 0.136740560550831 
945	 0.12458230192479 
946	 0.120391538368613 
947	 0.120774176269384 
948	 0.124900607999049 
949	 0.132300279744263 
950	 0.133748259583775 
951	 0.127154939138182 
952	 0.124204685045376 
953	 0.125108779329129 
954	 0.128428987816081 
955	 0.126560874655617 
956	 0.1225934828261 
957	 0.124073225340967 
958	 0.127721941716791 
959	 0.130907035426511 
960	 0.128667668579585 
961	 0.125260524611435 
962	 0.123169878583374 
963	 0.12304554689465 
964	 0.122891797509119 
965	 0.121087585795761 
966	 0.12266496533127 
967	 0.127489506185201 
968	 0.134587985255734 
969	 0.132344090988665 
970	 0.122676079716814 
971	 0.125935823599804 
972	 0.129209878975587 
973	 0.127065794169706 
974	 0.133927768442371 
975	 0.138422095141452 
976	 0.128182689979369 
977	 0.126362737754932 
978	 0.131386940056338 
979	 0.1296605955773 
980	 0.13120389160455 
981	 0.135770174197256 
982	 0.131609332289232 
983	 0.130203439379714 
984	 0.136020915844883 
985	 0.135748194308972 
986	 0.132811422335006 
987	 0.132306599734546 
988	 0.135855116221797 
989	 0.140686246757405 
990	 0.140876825078024 
991	 0.139081867677938 
992	 0.137350540859645 
993	 0.140343211117998 
994	 0.14166845378087 
995	 0.138884809970508 
996	 0.138533779682733 
997	 0.139503080052438 
998	 0.140321347758801 
999	 0.142946412501199 
1000	 0.143830899354769 
1001	 0.136519817685666 
1002	 0.138224811165516 
1003	 0.147669683845901 
1004	 0.145459579187049 
1005	 0.142394170596915 
1006	 0.142734329026548 
1007	 0.144370560671315 
1008	 0.147673162030891 
1009	 0.152100686811308 
1010	 0.154080819415636 
1011	 0.150285356120504 
1012	 0.137583019544284 
1013	 0.138244446183882 
1014	 0.14969686017788 
1015	 0.152991155529244 
1016	 0.151815588944522 
1017	 0.147818917135406 
1018	 0.144567779777782 
1019	 0.144603365745193 
1020	 0.149111825531939 
1021	 0.156708763678449 
1022	 0.158934925557687 
1023	 0.149658814146415 
1024	 0.151691588019225 
1025	 0.158583089816168 
1026	 0.153410820775277 
1027	 0.145866201092103 
1028	 0.143006661784908 
1029	 0.160508124432135 
1030	 0.165661360465049 
1031	 0.151567558386557 
1032	 0.143667083638126 
1033	 0.14338569700944 
1034	 0.14982336248335 
1035	 0.15346422252393 
1036	 0.154186187641249 
1037	 0.153426830141975 
1038	 0.155853097611373 
1039	 0.158163186091925 
1040	 0.153947049230081 
1041	 0.142858887089702 
1042	 0.133075603361226 
1043	 0.145980136634175 
1044	 0.159103347862311 
1045	 0.161745723550598 
1046	 0.148738943002828 
1047	 0.138090089999383 
1048	 0.141124230412687 
1049	 0.148057364832588 
1050	 0.15797362448671 
1051	 0.168263530351504 
1052	 0.157159810790108 
1053	 0.153650419572508 
1054	 0.201311921223565 
1055	 0.188323057967618 
1056	 0.130466718579206 
1057	 0.138140186202593 
1058	 0.166567592531778 
1059	 0.190313652103745 
1060	 0.160407406883979 
1061	 0.133394003278714 
1062	 0.134968117326745 
1063	 0.146863680586107 
1064	 0.161093349734042 
1065	 0.169890504855489 
1066	 0.16578953292301 
1067	 0.161751951893649 
1068	 0.170854166449202 
1069	 0.165325748545703 
1070	 0.152129284690461 
1071	 0.152227574555758 
1072	 0.152229667692112 
1073	 0.14918528925599 
1074	 0.142754471538565 
1075	 0.152875914803428 
