Wavelength	AVEI200091.asd
325	 2.73619222783863E-02 
326	 2.86643794284669E-02 
327	 3.18907505079697E-02 
328	 3.00671089942631E-02 
329	 2.72397426817919E-02 
330	 2.55201746510794E-02 
331	 2.66213926107748E-02 
332	 2.83659726186632E-02 
333	 0.02867108159956 
334	 2.87026577808959E-02 
335	 0.028618169800121 
336	 2.85676821682196E-02 
337	 2.70825906457583E-02 
338	 2.46256719565019E-02 
339	 0.024832966666026 
340	 2.68460008653085E-02 
341	 2.94805185876119E-02 
342	 2.98863981772593E-02 
343	 2.86451107973047E-02 
344	 2.76612913143801E-02 
345	 2.74218454080145E-02 
346	 2.75745813053961E-02 
347	 2.60574022321548E-02 
348	 2.41911873353499E-02 
349	 2.30909238138756E-02 
350	 2.37929117830281E-02 
351	 2.53023963495973E-02 
352	 2.59890140042001E-02 
353	 2.63859808391192E-02 
354	 2.62292115977501E-02 
355	 2.40953690649376E-02 
356	 2.27357963412301E-02 
357	 2.36127975561987E-02 
358	 2.43059548748762E-02 
359	 2.42127952799016E-02 
360	 2.29245368779969E-02 
361	 2.26340798035094E-02 
362	 2.33050385802397E-02 
363	 2.28475559055645E-02 
364	 2.21823177941799E-02 
365	 2.18008423120488E-02 
366	 2.13495396855433E-02 
367	 0.020932937151211 
368	 2.07167545701394E-02 
369	 2.09216283510529E-02 
370	 2.15838981327865E-02 
371	 2.27166546740878E-02 
372	 2.37433402479445E-02 
373	 2.40778710680536E-02 
374	 2.21796191151578E-02 
375	 2.02647614876002E-02 
376	 2.14528498168859E-02 
377	 2.29062703586097E-02 
378	 2.35524230973546E-02 
379	 2.24373805717371E-02 
380	 2.11897827436362E-02 
381	 2.07816734162529E-02 
382	 2.10426964356383E-02 
383	 2.16875481158427E-02 
384	 0.022356839180667 
385	 2.22929680817549E-02 
386	 2.19114263428794E-02 
387	 2.34006451813375E-02 
388	 2.33664404801089E-02 
389	 2.09958423513584E-02 
390	 2.13015891913104E-02 
391	 2.25719640783914E-02 
392	 2.23464339949482E-02 
393	 2.20666501836413E-02 
394	 2.19806956246568E-02 
395	 2.20199271556696E-02 
396	 2.17843500655912E-02 
397	 2.13043671478515E-02 
398	 2.18398522474406E-02 
399	 2.22073797821845E-02 
400	 2.11888913985216E-02 
401	 2.03537424823236E-02 
402	 2.01559371380182E-02 
403	 2.10063275127511E-02 
404	 2.16243069466967E-02 
405	 2.15597726642204E-02 
406	 2.16579371774727E-02 
407	 2.17481287879658E-02 
408	 2.15381506795357E-02 
409	 2.12178637507098E-02 
410	 2.09785125393961E-02 
411	 2.12384359081865E-02 
412	 2.13393501946029E-02 
413	 0.02106967332044 
414	 2.12590267208838E-02 
415	 2.15666082825064E-02 
416	 2.14639031260101E-02 
417	 2.13154827355869E-02 
418	 2.12917524737116E-02 
419	 2.17363932436024E-02 
420	 2.17504476621576E-02 
421	 2.09942817796479E-02 
422	 2.07360841617869E-02 
423	 2.09462619927611E-02 
424	 2.13587118030095E-02 
425	 2.15203947968207E-02 
426	 2.14151274218667E-02 
427	 2.15074209022681E-02 
428	 2.16679586739829E-02 
429	 2.17614799971078E-02 
430	 2.13819715696306E-02 
431	 2.09941947469268E-02 
432	 2.14630483806658E-02 
433	 2.15901566410572E-02 
434	 2.12508252034411E-02 
435	 2.12529606820043E-02 
436	 2.13658143821854E-02 
437	 2.14316210522842E-02 
438	 2.15768636179081E-02 
439	 2.16417158763076E-02 
440	 2.12751598945337E-02 
441	 2.12490914056373E-02 
442	 2.16622472977221E-02 
443	 2.18461857430163E-02 
444	 2.19342080463622E-02 
445	 2.20356148006623E-02 
446	 2.18729364810228E-02 
447	 2.16318071669207E-02 
448	 2.18299698119706E-02 
449	 2.18672361461525E-02 
450	 2.16423243616172E-02 
451	 2.17345723481382E-02 
452	 0.021846271088851 
453	 2.16757280819781E-02 
454	 2.17285787421096E-02 
455	 2.19638729464771E-02 
456	 2.19730578755822E-02 
457	 2.20957418685321E-02 
458	 0.022404744770547 
459	 2.25517390632995E-02 
460	 2.24522223430642E-02 
461	 0.022060973340437 
462	 2.19811793358699E-02 
463	 2.22018715247079E-02 
464	 0.022207575743896 
465	 2.21737244210536E-02 
466	 2.21879061141518E-02 
467	 2.23003866781554E-02 
468	 2.22977243450368E-02 
469	 2.18605989848045E-02 
470	 2.18731606971277E-02 
471	 2.23333277050743E-02 
472	 2.23501295189054E-02 
473	 2.22900410690403E-02 
474	 0.022396052423328 
475	 0.022664650916841 
476	 2.28917885993593E-02 
477	 2.27233835632709E-02 
478	 2.25535945630627E-02 
479	 2.25507135587276E-02 
480	 0.02289739862594 
481	 2.30319578699658E-02 
482	 2.25743162168229E-02 
483	 2.26725505588488E-02 
484	 2.31211461720999E-02 
485	 2.29232665328986E-02 
486	 2.28797421047691E-02 
487	 2.32280350856082E-02 
488	 2.36745398726073E-02 
489	 2.38530825749033E-02 
490	 2.34631953515219E-02 
491	 2.33974448838329E-02 
492	 2.36012785431285E-02 
493	 2.33963353486677E-02 
494	 2.32296615733794E-02 
495	 2.32839482746385E-02 
496	 2.34333801924449E-02 
497	 2.35641005286308E-02 
498	 2.35480603919395E-02 
499	 2.35977163502416E-02 
500	 2.37515920289776E-02 
501	 2.39712001727379E-02 
502	 0.024058915546291 
503	 2.39377211662422E-02 
504	 2.40593152530953E-02 
505	 2.42091828711957E-02 
506	 2.39093276726692E-02 
507	 2.39646309981338E-02 
508	 2.43869510500019E-02 
509	 2.42119719284026E-02 
510	 2.41135692391621E-02 
511	 2.46041194267273E-02 
512	 2.49850667684243E-02 
513	 2.51285373835181E-02 
514	 2.50237902195131E-02 
515	 2.48727970822752E-02 
516	 2.48261103199653E-02 
517	 2.51338794188793E-02 
518	 2.55222768115527E-02 
519	 2.56690145588712E-02 
520	 2.55151020811128E-02 
521	 2.52927389693711E-02 
522	 2.56208145713365E-02 
523	 2.60723687203054E-02 
524	 2.63994937575962E-02 
525	 2.63786150510392E-02 
526	 2.62209554012439E-02 
527	 2.62492677591239E-02 
528	 2.65903922766548E-02 
529	 2.70764084636167E-02 
530	 2.70266705782403E-02 
531	 2.68982499455952E-02 
532	 2.70191622070177E-02 
533	 2.74212829680763E-02 
534	 2.78561135256118E-02 
535	 2.78538813228289E-02 
536	 2.76295450823621E-02 
537	 2.74095422928082E-02 
538	 2.78780443364806E-02 
539	 0.028387768748526 
540	 2.83084830490276E-02 
541	 2.83720215445976E-02 
542	 2.85410623365205E-02 
543	 2.82747385059005E-02 
544	 2.82629319146113E-02 
545	 2.86956107241351E-02 
546	 2.88250276950856E-02 
547	 2.87282816933308E-02 
548	 2.85998257590343E-02 
549	 2.86455428579118E-02 
550	 2.88525156544224E-02 
551	 2.89511937389382E-02 
552	 2.90265666167345E-02 
553	 2.91475037568926E-02 
554	 2.94455512584908E-02 
555	 2.97722668813611E-02 
556	 2.98236218896745E-02 
557	 2.98900591218574E-02 
558	 2.99880946495159E-02 
559	 2.97737616652718E-02 
560	 2.94527178898813E-02 
561	 2.92531376444104E-02 
562	 2.94238623241068E-02 
563	 2.98208380021559E-02 
564	 2.99553150997865E-02 
565	 3.00653978424663E-02 
566	 3.02394871261545E-02 
567	 3.05161360201605E-02 
568	 3.06304702091039E-02 
569	 3.02505614842755E-02 
570	 0.029972848559602 
571	 2.99612491354314E-02 
572	 3.01687836694019E-02 
573	 3.03963751600034E-02 
574	 3.04918595967519E-02 
575	 3.03538801733981E-02 
576	 3.01744120691059E-02 
577	 0.030321326674503 
578	 3.05101436990471E-02 
579	 3.06274099903776E-02 
580	 3.05787409692538E-02 
581	 3.06438820938733E-02 
582	 3.10274403638657E-02 
583	 3.10174692464333E-02 
584	 3.07368395737528E-02 
585	 3.08234747688197E-02 
586	 3.10139844551115E-02 
587	 3.11864032117254E-02 
588	 3.12080983791978E-02 
589	 3.11331864312393E-02 
590	 0.031056926349543 
591	 0.030923597124316 
592	 3.08733915833733E-02 
593	 3.13770855098039E-02 
594	 3.18291919562321E-02 
595	 3.18576341973141E-02 
596	 3.15987459237969E-02 
597	 3.13406183940534E-02 
598	 3.15464129872524E-02 
599	 3.16753429293171E-02 
600	 3.16847861703657E-02 
601	 3.21675367917414E-02 
602	 3.26263198223542E-02 
603	 3.26226437952605E-02 
604	 3.26081317909289E-02 
605	 3.26161814767273E-02 
606	 3.25010047699498E-02 
607	 3.23915525390991E-02 
608	 3.23769478231443E-02 
609	 3.26410418735821E-02 
610	 0.032864900388415 
611	 3.26397847205658E-02 
612	 3.26129098803523E-02 
613	 3.28213501300016E-02 
614	 3.27919981457127E-02 
615	 3.28789282366207E-02 
616	 3.32361840906388E-02 
617	 3.32768308967653E-02 
618	 0.03316612690605 
619	 3.33190684416778E-02 
620	 3.36731035461819E-02 
621	 3.40253072508936E-02 
622	 3.35588011983912E-02 
623	 3.31078472198088E-02 
624	 3.34235369969069E-02 
625	 3.38351430744273E-02 
626	 3.40945294995162E-02 
627	 3.38975319386365E-02 
628	 3.37755444468886E-02 
629	 3.39207183179034E-02 
630	 3.40083837125805E-02 
631	 3.40318503063795E-02 
632	 3.40201771157808E-02 
633	 3.44106181764378E-02 
634	 3.50136745073999E-02 
635	 3.48404877743544E-02 
636	 3.48194083859078E-02 
637	 0.035384365991294 
638	 3.53013225327586E-02 
639	 3.48529320261226E-02 
640	 3.48174014944604E-02 
641	 3.48043371821433E-02 
642	 3.47912207990716E-02 
643	 0.035138794405902 
644	 3.54675916318366E-02 
645	 3.54481771026895E-02 
646	 3.53969387856965E-02 
647	 3.54531327616878E-02 
648	 3.58586860517771E-02 
649	 3.60280065233674E-02 
650	 3.58218017218227E-02 
651	 3.60379674356661E-02 
652	 3.61370366260275E-02 
653	 3.54203877819768E-02 
654	 3.52694120211951E-02 
655	 3.58000921291077E-02 
656	 3.61436719882669E-02 
657	 3.63369922735267E-02 
658	 3.63746873943697E-02 
659	 3.62434149264983E-02 
660	 3.60029033036207E-02 
661	 3.56958698090346E-02 
662	 3.58256415011807E-02 
663	 3.63526275849329E-02 
664	 3.64824712103101E-02 
665	 3.63139179046437E-02 
666	 3.59910711925956E-02 
667	 3.59734559826073E-02 
668	 3.61501328830494E-02 
669	 3.60099061832402E-02 
670	 3.59181027404617E-02 
671	 3.60128559826691E-02 
672	 3.63129557739691E-02 
673	 3.65497291988277E-02 
674	 0.036429322281951 
675	 3.63914814548527E-02 
676	 3.65346027926349E-02 
677	 3.67903128728887E-02 
678	 3.72080256139636E-02 
679	 3.77260083837466E-02 
680	 3.77784133840152E-02 
681	 0.037620410214758 
682	 3.77602438744858E-02 
683	 3.78937142242013E-02 
684	 3.80565965866389E-02 
685	 3.87321037130873E-02 
686	 0.039400676322821 
687	 0.039604364509981 
688	 3.99165867442337E-02 
689	 4.04607302913073E-02 
690	 4.13309470490546E-02 
691	 4.20380892445418E-02 
692	 4.25325636271659E-02 
693	 4.33306679706428E-02 
694	 4.42836450700282E-02 
695	 4.51557303910223E-02 
696	 4.58784479021399E-02 
697	 0.046568630596789 
698	 4.76421274638819E-02 
699	 4.86659076749145E-02 
700	 4.94275800970482E-02 
701	 5.01182270206124E-02 
702	 5.09046357604039E-02 
703	 5.19828627040289E-02 
704	 5.29249881093274E-02 
705	 5.37213792017151E-02 
706	 5.47375427183998E-02 
707	 5.55786642074487E-02 
708	 5.60713488192678E-02 
709	 5.70729645397584E-02 
710	 5.83084461783348E-02 
711	 0.059070860572958 
712	 5.96540763152346E-02 
713	 6.01768018886693E-02 
714	 6.07600464390635E-02 
715	 6.15237121167323E-02 
716	 6.25841714247826E-02 
717	 6.30134183410382E-02 
718	 6.30067629213655E-02 
719	 6.39385341854695E-02 
720	 6.49874642923762E-02 
721	 6.57605108908366E-02 
722	 6.64379981928914E-02 
723	 6.70486711498118E-02 
724	 6.75512901342819E-02 
725	 6.80845627452593E-02 
726	 6.85477975218966E-02 
727	 6.86206142724319E-02 
728	 6.88749468884771E-02 
729	 6.95881155895977E-02 
730	 0.070389192842326 
731	 0.071250939059373 
732	 7.22103314751897E-02 
733	 7.23905023735573E-02 
734	 7.20915947337988E-02 
735	 7.29016193396834E-02 
736	 7.37689001974684E-02 
737	 0.07404528509073 
738	 7.48149873898283E-02 
739	 7.57069879048396E-02 
740	 7.57559579524231E-02 
741	 0.075979459255596 
742	 7.65769513611855E-02 
743	 7.69701274802391E-02 
744	 0.077338784592265 
745	 7.78380749428969E-02 
746	 7.82504784316099E-02 
747	 7.85499257441632E-02 
748	 7.87301714523855E-02 
749	 7.91063926510457E-02 
750	 7.97614060869281E-02 
751	 0.080426159338113 
752	 8.09381472933292E-02 
753	 8.11654122055784E-02 
754	 0.081413813602071 
755	 8.17564400473154E-02 
756	 8.22194869156984E-02 
757	 0.082543033498318 
758	 8.25947613148732E-02 
759	 8.21848559511828E-02 
760	 8.16053789220975E-02 
761	 0.082463313941318 
762	 8.38372295935658E-02 
763	 8.49381808160484E-02 
764	 8.57201721358922E-02 
765	 8.58997530663542E-02 
766	 8.56504744551876E-02 
767	 8.60569503217315E-02 
768	 8.66925821417642E-02 
769	 8.70135596452336E-02 
770	 8.74492591086241E-02 
771	 8.79700486116771E-02 
772	 8.80969776535927E-02 
773	 8.84015910569429E-02 
774	 8.92085312442994E-02 
775	 8.98201918668534E-02 
776	 9.01939404597814E-02 
777	 9.04535397205939E-02 
778	 9.07030183859615E-02 
779	 9.09813282795297E-02 
780	 9.11822396215338E-02 
781	 9.16385382447264E-02 
782	 0.092540888345391 
783	 9.29992880790502E-02 
784	 9.31040502111977E-02 
785	 9.33505289247425E-02 
786	 9.38162475096199E-02 
787	 9.45006665413892E-02 
788	 9.52002373693562E-02 
789	 9.55464927348008E-02 
790	 9.52823737808726E-02 
791	 9.56263633813909E-02 
792	 9.63295159750588E-02 
793	 9.61404673401108E-02 
794	 9.63144296101953E-02 
795	 9.71435342388945E-02 
796	 9.77410465572327E-02 
797	 9.80401435968023E-02 
798	 9.80472456950694E-02 
799	 9.79285276060379E-02 
800	 9.80379008680374E-02 
801	 9.93232436176294E-02 
802	 9.97894133838276E-02 
803	 9.90384110285131E-02 
804	 9.97075167910022E-02 
805	 0.100902852305005 
806	 0.101468753889163 
807	 0.101886152035485 
808	 0.102174037939837 
809	 0.102133978849626 
810	 0.102171314519702 
811	 0.102423754661299 
812	 0.10235947568378 
813	 0.102494035662168 
814	 0.103513238321178 
815	 0.102937279259288 
816	 0.101512032849762 
817	 0.103787161110172 
818	 0.105591370082771 
819	 0.105420930644838 
820	 0.106019212322826 
821	 0.106972848380556 
822	 0.107559458644526 
823	 0.107794156782588 
824	 0.107955312231889 
825	 0.108954713742164 
826	 0.109464940596929 
827	 0.109176960316483 
828	 0.109756522411442 
829	 0.110746012758848 
830	 0.111366606786866 
831	 0.111434255319372 
832	 0.111257056089391 
833	 0.11176584880892 
834	 0.112714834187651 
835	 0.113754892832723 
836	 0.113491962956585 
837	 0.11336109736854 
838	 0.115016626521672 
839	 0.116111178700977 
840	 0.116336855911763 
841	 0.116392804650108 
842	 0.1160428460869 
843	 0.115494179636833 
844	 0.116153227357942 
845	 0.117311593132267 
846	 0.118036277799007 
847	 0.118418505016712 
848	 0.118546449421473 
849	 0.118754807791975 
850	 0.11849599413141 
851	 0.117834543067934 
852	 0.118374634252492 
853	 0.11930241284293 
854	 0.119597933124553 
855	 0.119509194593236 
856	 0.119603810413175 
857	 0.121228715206576 
858	 0.122643816252473 
859	 0.123231175620812 
860	 0.123351137279475 
861	 0.123160957799148 
862	 0.122843479592727 
863	 0.122937922857965 
864	 0.123334234108986 
865	 0.123407853333918 
866	 0.124218381064856 
867	 0.125619338145212 
868	 0.125176989913818 
869	 0.125142017120429 
870	 0.127147760118536 
871	 0.127577411690684 
872	 0.127139395737158 
873	 0.128311206633605 
874	 0.129163146126657 
875	 0.129191284386407 
876	 0.12858970044201 
877	 0.128961227327746 
878	 0.131136562015501 
879	 0.131973363615502 
880	 0.132074247186501 
881	 0.133176825958159 
882	 0.133534216634892 
883	 0.133244802882482 
884	 0.134362000162207 
885	 0.134962652163116 
886	 0.134283592615293 
887	 0.135021475787332 
888	 0.136585506079214 
889	 0.137785275502904 
890	 0.137552667387949 
891	 0.136275737680007 
892	 0.136125272655046 
893	 0.136183039097833 
894	 0.136095320383923 
895	 0.136060133554196 
896	 0.136526900190937 
897	 0.137908103146639 
898	 0.138386846843669 
899	 0.138436448320662 
900	 0.140411335904014 
901	 0.141493632776347 
902	 0.140986738640263 
903	 0.14021745647379 
904	 0.139952900720894 
905	 0.140672711864943 
906	 0.141122260825853 
907	 0.141444341056321 
908	 0.142282362283209 
909	 0.142360923974866 
910	 0.141716736069963 
911	 0.141980792522197 
912	 0.142628453938101 
913	 0.143097405338488 
914	 0.141826092299852 
915	 0.141047009854532 
916	 0.143439732514193 
917	 0.1443589589797 
918	 0.143644161884436 
919	 0.143577454944836 
920	 0.1438053051855 
921	 0.144339533217503 
922	 0.145772529862545 
923	 0.145702096983951 
924	 0.142401695556586 
925	 0.142585130219625 
926	 0.144774002884436 
927	 0.142880054008332 
928	 0.141318294294918 
929	 0.14141716883544 
930	 0.141650174759531 
931	 0.140838560346333 
932	 0.138227031991793 
933	 0.137172843174056 
934	 0.137893437382381 
935	 0.139442641660035 
936	 0.139683140871373 
937	 0.138291859054612 
938	 0.136375474467972 
939	 0.133300435280394 
940	 0.129516618514072 
941	 0.126548554682297 
942	 0.126930172911697 
943	 0.131580388273529 
944	 0.13235778996078 
945	 0.131720593067263 
946	 0.135407981100925 
947	 0.13052500417115 
948	 0.121909113436423 
949	 0.13692447068465 
950	 0.141378038325612 
951	 0.125888151757756 
952	 0.122887032759991 
953	 0.129192813138642 
954	 0.138487222430089 
955	 0.13839283771256 
956	 0.132909521049465 
957	 0.133209129771948 
958	 0.131187370968385 
959	 0.126908161889903 
960	 0.126164201535364 
961	 0.128630951433527 
962	 0.132719458604796 
963	 0.132125650206711 
964	 0.129693180635822 
965	 0.128441992023744 
966	 0.124569626784629 
967	 0.12289410513803 
968	 0.133819808395482 
969	 0.136942835119249 
970	 0.130165270646331 
971	 0.12800290539274 
972	 0.128903058301436 
973	 0.131960907933092 
974	 0.13753291985177 
975	 0.140362722346017 
976	 0.135442851658021 
977	 0.131505229530888 
978	 0.130286039576911 
979	 0.131104449535984 
980	 0.133085374119512 
981	 0.135126613863429 
982	 0.134318505734359 
983	 0.136471855004486 
984	 0.142903401628156 
985	 0.141336480643627 
986	 0.136928200450362 
987	 0.136321090789677 
988	 0.137302577314879 
989	 0.139731775340966 
990	 0.144194232418233 
991	 0.143895106419069 
992	 0.139848759493681 
993	 0.143315478923228 
994	 0.146600294928299 
995	 0.145983158766711 
996	 0.14506541097572 
997	 0.144373519503555 
998	 0.144055112929631 
999	 0.141643395947823 
1000	 0.140368998800106 
1001	 0.146257718558484 
1002	 0.151433778084317 
1003	 0.153565667272454 
1004	 0.15291766378075 
1005	 0.150124933160789 
1006	 0.146442256989552 
1007	 0.144535715608001 
1008	 0.148692583561053 
1009	 0.159587327672317 
1010	 0.161036572769861 
1011	 0.154357329619666 
1012	 0.144953464072831 
1013	 0.1505148546076 
1014	 0.163514366166568 
1015	 0.155355666183096 
1016	 0.150209991900536 
1017	 0.152895894951207 
1018	 0.150851853359833 
1019	 0.148718208436976 
1020	 0.149706873490515 
1021	 0.157397326863402 
1022	 0.157770157889608 
1023	 0.140364924383837 
1024	 0.146757017703245 
1025	 0.165632102835042 
1026	 0.167037564585745 
1027	 0.152842713009006 
1028	 0.134818113943112 
1029	 0.149357652179708 
1030	 0.164132960236276 
1031	 0.168152344893571 
1032	 0.166784544065515 
1033	 0.166190190397851 
1034	 0.169383852016137 
1035	 0.168705195664634 
1036	 0.164112046534441 
1037	 0.157787351991522 
1038	 0.168910954664958 
1039	 0.182179878025876 
1040	 0.168994153803178 
1041	 0.157149306927254 
1042	 0.156794083607801 
1043	 0.174003812161118 
1044	 0.178370899127216 
1045	 0.166984397931315 
1046	 0.182075909004393 
1047	 0.184092536633437 
1048	 0.156543945492799 
1049	 0.158146313591796 
1050	 0.168010069966428 
1051	 0.163045121279821 
1052	 0.172649483642626 
1053	 0.185600618774278 
1054	 0.181013652886484 
1055	 0.17698605010038 
1056	 0.173487817704337 
1057	 0.159215420261888 
1058	 0.158209199677753 
1059	 0.17238163230683 
1060	 0.184368750750793 
1061	 0.17475888679559 
1062	 0.145252775388106 
1063	 0.152406624548067 
1064	 0.170480310476911 
1065	 0.177824627654784 
1066	 0.18441167647978 
1067	 0.190014539860874 
1068	 0.191771484640035 
1069	 0.169434415325478 
1070	 0.151849970171968 
1071	 0.195158250403169 
1072	 0.198799250342132 
1073	 0.16149250123689 
1074	 0.145691681812938 
1075	 0.145232672355378 
