Wavelength	AVEI200233.asd
325	 6.68357191166165E-02 
326	 6.45408766076987E-02 
327	 6.21653118828615E-02 
328	 6.11889660531907E-02 
329	 0.060143400544389 
330	 5.93254574060684E-02 
331	 6.35908432165525E-02 
332	 6.70461298004764E-02 
333	 6.42334533821182E-02 
334	 6.10506418419733E-02 
335	 5.97218283678282E-02 
336	 6.27426790137268E-02 
337	 6.54970260809779E-02 
338	 6.61397689603897E-02 
339	 6.43898553018687E-02 
340	 6.13416842967927E-02 
341	 5.83006185394575E-02 
342	 5.93668648764661E-02 
343	 6.21750651704514E-02 
344	 6.10906951546897E-02 
345	 0.061525378615434 
346	 6.39784136682858E-02 
347	 6.49052629152655E-02 
348	 6.49364568185386E-02 
349	 0.064716648133751 
350	 6.54203494812035E-02 
351	 6.62810148573605E-02 
352	 6.58579573459438E-02 
353	 6.54127020955453E-02 
354	 6.52043358079759E-02 
355	 6.49557410986349E-02 
356	 6.46647754890747E-02 
357	 6.43550264447364E-02 
358	 0.064115916144021 
359	 6.42412148258622E-02 
360	 6.51786231722649E-02 
361	 6.47390881827288E-02 
362	 6.32705622605946E-02 
363	 6.36754456775593E-02 
364	 6.49344883549142E-02 
365	 6.61089208156214E-02 
366	 6.50409650954017E-02 
367	 6.35939344080504E-02 
368	 6.44772063188446E-02 
369	 6.51931556664643E-02 
370	 6.53273819051827E-02 
371	 6.54884838474445E-02 
372	 6.59302245841332E-02 
373	 6.66511583551776E-02 
374	 6.66158828795103E-02 
375	 6.61230028229361E-02 
376	 6.57428210387477E-02 
377	 6.48761879001112E-02 
378	 6.41452606861172E-02 
379	 6.62162349208557E-02 
380	 0.066550373672413 
381	 6.37417490017656E-02 
382	 6.46321492771943E-02 
383	 6.70206355225717E-02 
384	 6.72410644895127E-02 
385	 6.55542236814129E-02 
386	 6.32902211785658E-02 
387	 6.42310089187505E-02 
388	 6.58723565492116E-02 
389	 6.67419398401321E-02 
390	 6.55354847975775E-02 
391	 6.51069052912145E-02 
392	 6.86927370523872E-02 
393	 6.95054009653415E-02 
394	 6.76176723296194E-02 
395	 6.76220488245893E-02 
396	 6.72660459392366E-02 
397	 6.59923525263523E-02 
398	 6.59067246219432E-02 
399	 6.62280308715961E-02 
400	 6.59984993520696E-02 
401	 0.066095957524454 
402	 6.66071699069159E-02 
403	 0.067472452404947 
404	 6.80703811858076E-02 
405	 6.81776709565664E-02 
406	 0.068233625001768 
407	 6.80864727654109E-02 
408	 6.75125633664692E-02 
409	 6.72985508238427E-02 
410	 6.74641087506748E-02 
411	 6.74701943147749E-02 
412	 6.76271600619511E-02 
413	 6.79825606807468E-02 
414	 6.79049731072265E-02 
415	 6.77760175585927E-02 
416	 6.81492302148884E-02 
417	 6.86454056111179E-02 
418	 6.89805191287371E-02 
419	 6.84840564760714E-02 
420	 6.84751840106342E-02 
421	 6.94330768711587E-02 
422	 6.91673081584072E-02 
423	 0.068721899006446 
424	 6.99618527801739E-02 
425	 7.04985618309926E-02 
426	 7.01371285809641E-02 
427	 7.04559656743251E-02 
428	 0.070979900625162 
429	 0.071349779555044 
430	 7.13704877392336E-02 
431	 7.11085691482004E-02 
432	 7.07016797548531E-02 
433	 7.07790678287835E-02 
434	 7.13293829634678E-02 
435	 7.16086727037014E-02 
436	 7.18543999644702E-02 
437	 7.22089689508034E-02 
438	 7.23850803926296E-02 
439	 7.24715575251667E-02 
440	 7.26887943813075E-02 
441	 7.30057459469441E-02 
442	 7.33663869795626E-02 
443	 7.35530226608837E-02 
444	 7.37841020063839E-02 
445	 7.42021200240582E-02 
446	 0.074233195476002 
447	 7.40696905207794E-02 
448	 7.43214688097435E-02 
449	 7.47167081004645E-02 
450	 7.51127627069158E-02 
451	 7.52536338861463E-02 
452	 7.53768390633111E-02 
453	 7.57185491681716E-02 
454	 7.58995526350945E-02 
455	 7.60215957086834E-02 
456	 0.076623837329475 
457	 0.076887580486348 
458	 7.66305453765738E-02 
459	 7.69707834189496E-02 
460	 7.73761110529703E-02 
461	 7.71324122876986E-02 
462	 7.72857547812526E-02 
463	 7.77805059050008E-02 
464	 7.76993418197583E-02 
465	 7.75551152183126E-02 
466	 7.76118802999735E-02 
467	 7.77344328649255E-02 
468	 0.077958348609045 
469	 7.83507028721005E-02 
470	 7.85295029650388E-02 
471	 7.85112035435505E-02 
472	 7.87425538407277E-02 
473	 7.90292453990496E-02 
474	 7.92480293370842E-02 
475	 0.079474212946516 
476	 0.079700328705998 
477	 7.99147797589817E-02 
478	 7.99328766853354E-02 
479	 7.98084568645211E-02 
480	 7.99562314477222E-02 
481	 8.02729577548248E-02 
482	 8.06432347497128E-02 
483	 0.080834857446068 
484	 8.09191700535543E-02 
485	 8.12200223132447E-02 
486	 8.11934151121909E-02 
487	 8.08067496262463E-02 
488	 8.09787513312694E-02 
489	 8.12815695535339E-02 
490	 0.081235236864884 
491	 0.081337222124885 
492	 8.16251784750999E-02 
493	 8.19692748350855E-02 
494	 8.21995499291217E-02 
495	 8.22711878175093E-02 
496	 8.25004999836027E-02 
497	 8.26891569080153E-02 
498	 8.25437939484259E-02 
499	 0.082968112502495 
500	 8.38038152667411E-02 
501	 8.37694404393822E-02 
502	 8.34813645615504E-02 
503	 8.34072371704039E-02 
504	 8.40803805180636E-02 
505	 8.48316827631491E-02 
506	 8.44176629107384E-02 
507	 8.45005702238056E-02 
508	 8.52134014046754E-02 
509	 8.50424772611329E-02 
510	 8.48584445922855E-02 
511	 8.53507327190968E-02 
512	 8.58593066746969E-02 
513	 8.61738361927151E-02 
514	 8.60453797976409E-02 
515	 8.60531001511908E-02 
516	 8.63623568726204E-02 
517	 8.65272719999188E-02 
518	 8.66740356177412E-02 
519	 8.69639481596945E-02 
520	 8.72574338318392E-02 
521	 8.74903656496837E-02 
522	 8.75264325862263E-02 
523	 8.78189809900962E-02 
524	 8.84823978091156E-02 
525	 8.88082935754869E-02 
526	 8.87849337925734E-02 
527	 8.84974863795478E-02 
528	 8.86381199251571E-02 
529	 8.92323727229307E-02 
530	 8.97087028538947E-02 
531	 0.089895995340714 
532	 8.97423974864645E-02 
533	 8.98800186138874E-02 
534	 9.02676560196168E-02 
535	 9.06506405015854E-02 
536	 9.07952880301745E-02 
537	 9.07364160391725E-02 
538	 9.10667550194016E-02 
539	 9.14964200619663E-02 
540	 9.17093943684694E-02 
541	 0.091655297500296 
542	 9.15352451881506E-02 
543	 9.19246448830763E-02 
544	 9.22308818300325E-02 
545	 9.22498633876745E-02 
546	 9.23794330248158E-02 
547	 9.25983667941461E-02 
548	 0.092830198022142 
549	 9.30682900471742E-02 
550	 9.32530604212729E-02 
551	 9.31736828567346E-02 
552	 9.32754503263166E-02 
553	 9.37785489496423E-02 
554	 9.40016797911153E-02 
555	 9.39639758773713E-02 
556	 9.38551475122779E-02 
557	 9.40881097286167E-02 
558	 9.46215934655573E-02 
559	 9.45355707183073E-02 
560	 9.43736962769298E-02 
561	 0.094652188423059 
562	 9.48644329430452E-02 
563	 9.50077500972014E-02 
564	 0.095331972048521 
565	 9.56364192837542E-02 
566	 9.58054848248723E-02 
567	 9.57014067331562E-02 
568	 9.55575839534952E-02 
569	 9.56829054380632E-02 
570	 9.59256284810246E-02 
571	 9.61907149623968E-02 
572	 9.63021102925518E-02 
573	 9.63929285876452E-02 
574	 9.65349424669725E-02 
575	 9.65763748769062E-02 
576	 9.66286068927834E-02 
577	 9.69451814828042E-02 
578	 9.70242562868697E-02 
579	 0.096819176111517 
580	 9.68789770785743E-02 
581	 9.69972799241513E-02 
582	 9.69909464146574E-02 
583	 9.71560045721987E-02 
584	 9.74271021311122E-02 
585	 9.75210834169779E-02 
586	 9.75482397074827E-02 
587	 9.75588574090971E-02 
588	 9.75953907306776E-02 
589	 9.77081422778351E-02 
590	 0.097946422270356 
591	 0.098045087756304 
592	 9.80318686162602E-02 
593	 9.82505409329524E-02 
594	 9.83944762820042E-02 
595	 0.09830969369278 
596	 9.83043639797664E-02 
597	 9.83441301459549E-02 
598	 9.82848718769553E-02 
599	 0.098366253547518 
600	 9.85394406480395E-02 
601	 9.82427841053792E-02 
602	 0.098012404628034 
603	 9.83076081359991E-02 
604	 9.85328208551777E-02 
605	 9.86248072768061E-02 
606	 9.87388152250887E-02 
607	 9.87339354550879E-02 
608	 9.85922989815378E-02 
609	 9.85385647053025E-02 
610	 9.85541222383027E-02 
611	 0.098586385573336 
612	 9.87807708169579E-02 
613	 9.89741442174707E-02 
614	 9.85294729338582E-02 
615	 9.80698167768106E-02 
616	 9.80003511820066E-02 
617	 9.82168697608059E-02 
618	 9.84406787576095E-02 
619	 9.82080282312708E-02 
620	 9.81423024955125E-02 
621	 9.83725804461474E-02 
622	 0.098587351454491 
623	 0.0987277679203 
624	 9.87503576332271E-02 
625	 9.86936855008935E-02 
626	 9.86631134076293E-02 
627	 9.89041771559011E-02 
628	 9.91142328682674E-02 
629	 9.91850695656815E-02 
630	 9.93281777332052E-02 
631	 9.93692463939532E-02 
632	 9.90826120530631E-02 
633	 0.099023788335384 
634	 9.92545365283839E-02 
635	 9.95561827929917E-02 
636	 9.95462598909602E-02 
637	 9.90835892076771E-02 
638	 9.90228142961417E-02 
639	 9.93178481013773E-02 
640	 9.96782158005296E-02 
641	 0.09997714045829 
642	 0.100150736498313 
643	 0.100267355859126 
644	 0.100265961132762 
645	 0.10011523536407 
646	 0.100150513754075 
647	 0.100330667920703 
648	 0.100364281187698 
649	 0.100390074476447 
650	 0.100430180639799 
651	 0.100340140454195 
652	 0.100193599001017 
653	 0.100089713084195 
654	 0.100140239733993 
655	 0.100252990074861 
656	 0.100028711738381 
657	 0.0996800893587 
658	 9.93189163142544E-02 
659	 9.85628281144469E-02 
660	 9.78825087680633E-02 
661	 9.80883794150086E-02 
662	 9.81875019485639E-02 
663	 9.79580543171874E-02 
664	 9.78376244496518E-02 
665	 9.76107658934976E-02 
666	 9.71201005353816E-02 
667	 9.67885585267313E-02 
668	 9.66323677675012E-02 
669	 9.64850734540833E-02 
670	 0.096402739889267 
671	 9.63548444120389E-02 
672	 9.60750389023231E-02 
673	 9.59443998218504E-02 
674	 0.096391084433652 
675	 9.62844512102378E-02 
676	 9.58023509626521E-02 
677	 9.63358147917281E-02 
678	 0.096781227034816 
679	 9.66504679733784E-02 
680	 9.70164594138995E-02 
681	 0.097568639658726 
682	 9.76214878731645E-02 
683	 9.77810228148546E-02 
684	 0.098160625285238 
685	 9.84942566861928E-02 
686	 0.098938583071791 
687	 9.96304403036548E-02 
688	 0.10052421825062 
689	 0.101251088304711 
690	 0.101235648629423 
691	 0.101281580974371 
692	 0.101736522893778 
693	 0.102881755804461 
694	 0.103783276329101 
695	 0.103482851128934 
696	 0.103542562426071 
697	 0.104032112344763 
698	 0.104215426694716 
699	 0.104534239661481 
700	 0.105083051385068 
701	 0.105103866915188 
702	 0.105010677276183 
703	 0.105478690095248 
704	 0.105819669816764 
705	 0.105964361016839 
706	 0.106255157145276 
707	 0.106621326543149 
708	 0.106976460856851 
709	 0.107047841893459 
710	 0.106852294062817 
711	 0.10646174564461 
712	 0.106314641445981 
713	 0.106562423870088 
714	 0.107145303897482 
715	 0.107551673094442 
716	 0.107359023646253 
717	 0.107801915264756 
718	 0.108673999975239 
719	 0.108160278851221 
720	 0.107998663605273 
721	 0.108576604761718 
722	 0.108437131685743 
723	 0.108401939028971 
724	 0.109455703735011 
725	 0.109640226708118 
726	 0.109039216348278 
727	 0.109594821403609 
728	 0.109817250498726 
729	 0.109162935098281 
730	 0.109249690598249 
731	 0.109742238987921 
732	 0.109949159966918 
733	 0.109551435532119 
734	 0.108806336701009 
735	 0.108719181846711 
736	 0.10914241708289 
737	 0.109868783176874 
738	 0.110003008589983 
739	 0.109770944154722 
740	 0.10986757850764 
741	 0.109749579571479 
742	 0.109461154120499 
743	 0.109858008074686 
744	 0.110175763705554 
745	 0.109805145372391 
746	 0.109695889124309 
747	 0.10988505903643 
748	 0.110064811546964 
749	 0.110156401536122 
750	 0.110175654139978 
751	 0.110514712475551 
752	 0.110731202732913 
753	 0.110373671195773 
754	 0.110464792684503 
755	 0.110945055602713 
756	 0.111063168540772 
757	 0.110885999273553 
758	 0.110536824381167 
759	 0.1111786527503 
760	 0.112774417966756 
761	 0.112961420652703 
762	 0.112717429291778 
763	 0.112527595069938 
764	 0.112270188050906 
765	 0.112202490575394 
766	 0.112334430706005 
767	 0.112287207901558 
768	 0.112209137989835 
769	 0.112308537562941 
770	 0.112106978037015 
771	 0.111736066093838 
772	 0.112095018146428 
773	 0.11247176043676 
774	 0.112420130048975 
775	 0.112495923175375 
776	 0.112729833594416 
777	 0.113068855494389 
778	 0.112973176610271 
779	 0.112556121380562 
780	 0.113040007994112 
781	 0.113593076949065 
782	 0.113538082108986 
783	 0.113284861697062 
784	 0.11307811926781 
785	 0.113282322741682 
786	 0.113534065639462 
787	 0.113702931516086 
788	 0.113813571404154 
789	 0.113911881630838 
790	 0.114052821689486 
791	 0.11446794219734 
792	 0.114791754463195 
793	 0.113953299635955 
794	 0.113709443970747 
795	 0.114431245988476 
796	 0.114379707957931 
797	 0.114294628158165 
798	 0.114963356799691 
799	 0.115254586057432 
800	 0.115173985794007 
801	 0.115379410566445 
802	 0.115377131572977 
803	 0.115078536986704 
804	 0.115006327011545 
805	 0.115150422404243 
806	 0.115435158520417 
807	 0.115484557256456 
808	 0.115338590892927 
809	 0.115390844359052 
810	 0.115302302703095 
811	 0.115029097900915 
812	 0.115212383398563 
813	 0.115669605281079 
814	 0.116062770279125 
815	 0.116000651883304 
816	 0.115797229440938 
817	 0.116834701478566 
818	 0.117726953854567 
819	 0.117827461888203 
820	 0.117355771571739 
821	 0.116673462502076 
822	 0.116201489905307 
823	 0.116865238869679 
824	 0.118031578198301 
825	 0.117398700618869 
826	 0.116802239133299 
827	 0.11691674645659 
828	 0.116865726822678 
829	 0.116853986670725 
830	 0.117192850268763 
831	 0.117310215859029 
832	 0.117125024698887 
833	 0.116804269224631 
834	 0.116446040518001 
835	 0.116162376051218 
836	 0.116075223125376 
837	 0.116529373049049 
838	 0.117824335779387 
839	 0.118015419767465 
840	 0.117253688819662 
841	 0.11723664674649 
842	 0.117306650426905 
843	 0.11716578485534 
844	 0.116517378263766 
845	 0.116100857125919 
846	 0.116717228363289 
847	 0.117057809665387 
848	 0.117052927908983 
849	 0.117431994637668 
850	 0.117361054275535 
851	 0.116760376068254 
852	 0.11727269678032 
853	 0.117828809225998 
854	 0.11721524322411 
855	 0.116923885986352 
856	 0.11690160327813 
857	 0.116133135108181 
858	 0.116026691739087 
859	 0.116757759292453 
860	 0.116591357243525 
861	 0.116393377131774 
862	 0.117022101772996 
863	 0.117503458121618 
864	 0.117586031651604 
865	 0.117011668416149 
866	 0.117382397414709 
867	 0.118719261864395 
868	 0.118205754990747 
869	 0.117812733198789 
870	 0.119028901889905 
871	 0.119170309025664 
872	 0.118462294351018 
873	 0.118108225933735 
874	 0.118204668312298 
875	 0.118790854440735 
876	 0.119826846215915 
877	 0.120103052558258 
878	 0.118910433484456 
879	 0.117823095524555 
880	 0.117304568250648 
881	 0.117671848936552 
882	 0.117697256731911 
883	 0.117407468474863 
884	 0.118296206783411 
885	 0.118872777795499 
886	 0.118495491696304 
887	 0.119119492003153 
888	 0.119855031077816 
889	 0.119269113712619 
890	 0.117886977239296 
891	 0.116513600645683 
892	 0.117188530372698 
893	 0.11837247162361 
894	 0.119200418814813 
895	 0.119263967495219 
896	 0.119392196607545 
897	 0.120534697393391 
898	 0.120541860236072 
899	 0.11974410032279 
900	 0.120280827585825 
901	 0.119893829611515 
902	 0.118397420921652 
903	 0.11826633668125 
904	 0.11837773459942 
905	 0.117985884537812 
906	 0.119444948599121 
907	 0.120953711506335 
908	 0.118688881271892 
909	 0.11897069424123 
910	 0.122255168018696 
911	 0.12286912089358 
912	 0.121857862853173 
913	 0.120249036367199 
914	 0.120387091663102 
915	 0.121517873656522 
916	 0.122339780318446 
917	 0.1225324855395 
918	 0.121999721557413 
919	 0.120612615129703 
920	 0.120432934244627 
921	 0.121365269539931 
922	 0.118831793107545 
923	 0.11613717793723 
924	 0.116496942906527 
925	 0.118155065020238 
926	 0.120285556475185 
927	 0.121651191213679 
928	 0.123563488163454 
929	 0.125784246390893 
930	 0.124924883119668 
931	 0.123257355419333 
932	 0.123075277280993 
933	 0.124570626445643 
934	 0.128053205968491 
935	 0.133033566262151 
936	 0.128731009500861 
937	 0.119596573870221 
938	 0.124805481782034 
939	 0.125863938483441 
940	 0.119952529580127 
941	 0.121260991972845 
942	 0.122171587260812 
943	 0.117982922210695 
944	 0.121086054996705 
945	 0.127609746100567 
946	 0.129078598492769 
947	 0.125064990886701 
948	 0.120411049344671 
949	 0.131863823877424 
950	 0.13495257833181 
951	 0.123264266243599 
952	 0.122806825675508 
953	 0.124240956249923 
954	 0.118927253447471 
955	 0.125647943340915 
956	 0.136519413217772 
957	 0.13339070526168 
958	 0.125229717553323 
959	 0.117751666294971 
960	 0.120668088169373 
961	 0.123467234853475 
962	 0.121488786499501 
963	 0.119220884659431 
964	 0.117995528145168 
965	 0.118837002410978 
966	 0.123992471493006 
967	 0.130105969010695 
968	 0.130426449972222 
969	 0.127898010816206 
970	 0.124297163607359 
971	 0.122720896364143 
972	 0.1217521025721 
973	 0.121225055671403 
974	 0.12595969948501 
975	 0.128686717022118 
976	 0.121803985213236 
977	 0.118803307718257 
978	 0.119835712007038 
979	 0.119101372681805 
980	 0.121430131940402 
981	 0.12629354920266 
982	 0.127393773723881 
983	 0.126634861873774 
984	 0.125190161277675 
985	 0.122686270388746 
986	 0.121911130033696 
987	 0.125310720633583 
988	 0.126693013544108 
989	 0.126292745054835 
990	 0.127144092452852 
991	 0.12485923361424 
992	 0.120536105255219 
993	 0.121983011363495 
994	 0.125885694366067 
995	 0.129479021238558 
996	 0.127517716615175 
997	 0.124634220782629 
998	 0.125608033436041 
999	 0.12729460066247 
1000	 0.127769086542173 
1001	 0.124645951638597 
1002	 0.123975233405978 
1003	 0.125395546960785 
1004	 0.121914390025623 
1005	 0.121176697976065 
1006	 0.124862671072175 
1007	 0.125186753434077 
1008	 0.122938993891344 
1009	 0.119280519866087 
1010	 0.114955426144996 
1011	 0.113778852621 
1012	 0.120173557769983 
1013	 0.125371293753999 
1014	 0.12633879250109 
1015	 0.120491010226663 
1016	 0.122942477342314 
1017	 0.133720432113454 
1018	 0.132792811654566 
1019	 0.126192153770571 
1020	 0.119831684942289 
1021	 0.123777693981393 
1022	 0.129586941675779 
1023	 0.128161465315106 
1024	 0.125706695234195 
1025	 0.121939192641799 
1026	 0.115160326914711 
1027	 0.122764864488506 
1028	 0.137334835955009 
1029	 0.126912818731404 
1030	 0.120217268763048 
1031	 0.125626293271712 
1032	 0.131129571781513 
1033	 0.127433419837091 
1034	 0.111633723041962 
1035	 0.107089402929244 
1036	 0.109611693796667 
1037	 0.111814681643173 
1038	 0.119381279357558 
1039	 0.127000878263398 
1040	 0.124415262153711 
1041	 0.120870087727315 
1042	 0.1190767288113 
1043	 0.119943786789559 
1044	 0.118011496892091 
1045	 0.112792496845914 
1046	 0.109523300953543 
1047	 0.117054215699737 
1048	 0.136710285862953 
1049	 0.147771902430749 
1050	 0.147186327608494 
1051	 0.134352690722114 
1052	 0.112363248227233 
1053	 0.10406764968138 
1054	 0.139071308730465 
1055	 0.134405432754347 
1056	 0.101406442814204 
1057	 0.118841970437669 
1058	 0.134926652964315 
1059	 0.136844159157882 
1060	 0.132654309580762 
1061	 0.120617992805157 
1062	 0.102659379330166 
1063	 0.086993404950507 
1064	 0.103435752017977 
1065	 0.157217462231754 
1066	 0.144704136300014 
1067	 0.106683463216643 
1068	 9.67973471445832E-02 
1069	 0.100884635322666 
1070	 0.102716359402991 
1071	 8.08657452795539E-02 
1072	 7.67243864980715E-02 
1073	 9.67691025667006E-02 
1074	 0.129250119677206 
1075	 0.121850991832047 
