Wavelength	AVEI200362.asd
325	 9.19379354827344E-02 
326	 8.34752439662461E-02 
327	 6.82538507305697E-02 
328	 7.49898817279573E-02 
329	 8.05150572540501E-02 
330	 0.07777023125335 
331	 7.79616871167395E-02 
332	 7.91040866329168E-02 
333	 7.85049582979854E-02 
334	 0.072776830701241 
335	 0.066355374743923 
336	 7.03746281298851E-02 
337	 7.45881762055975E-02 
338	 7.56087317121362E-02 
339	 7.44812780093344E-02 
340	 7.33055093168369E-02 
341	 7.38436030543179E-02 
342	 7.62775087311884E-02 
343	 7.93645004245602E-02 
344	 0.081343377516792 
345	 7.96413672807433E-02 
346	 7.52675618283194E-02 
347	 7.41890028414734E-02 
348	 7.46220044489787E-02 
349	 7.51289804005617E-02 
350	 7.53768224796735E-02 
351	 7.58143589981735E-02 
352	 0.07756997162686 
353	 7.51700986797639E-02 
354	 6.97941890556744E-02 
355	 7.04687824026102E-02 
356	 7.23899416691557E-02 
357	 7.26827772430022E-02 
358	 7.34758725400999E-02 
359	 7.46948970528167E-02 
360	 7.60161114318601E-02 
361	 7.49940329078972E-02 
362	 7.27085003227167E-02 
363	 7.47165415414426E-02 
364	 7.62796949853132E-02 
365	 7.50355059879232E-02 
366	 7.32067105674879E-02 
367	 0.071494350679037 
368	 7.04745537209476E-02 
369	 7.03831715066859E-02 
370	 7.10922742007613E-02 
371	 7.20123969013479E-02 
372	 7.31305404803428E-02 
373	 7.42345234947248E-02 
374	 7.45988454154958E-02 
375	 7.38839126274114E-02 
376	 7.18027268011495E-02 
377	 7.04698488455575E-02 
378	 7.01572183430895E-02 
379	 6.97421763323125E-02 
380	 6.92838989684543E-02 
381	 6.90330483142145E-02 
382	 7.06429304687528E-02 
383	 7.22665389739754E-02 
384	 7.13700049294269E-02 
385	 7.20127109073704E-02 
386	 7.36313540351203E-02 
387	 7.14760991149409E-02 
388	 6.98859131989862E-02 
389	 7.03426752491157E-02 
390	 6.90748181057535E-02 
391	 6.77712688298152E-02 
392	 6.86725375651001E-02 
393	 0.07008067158949 
394	 7.15292236359246E-02 
395	 7.32543935271442E-02 
396	 7.31096745400492E-02 
397	 7.08743526165767E-02 
398	 7.03611382027473E-02 
399	 7.05097339780954E-02 
400	 6.99201381503291E-02 
401	 0.06919022327629 
402	 6.87794001748903E-02 
403	 6.96565888577639E-02 
404	 7.02153491699384E-02 
405	 6.99021694535556E-02 
406	 6.97694667981685E-02 
407	 0.069944006220715 
408	 7.04431474151649E-02 
409	 7.05104765711917E-02 
410	 7.00982961095275E-02 
411	 6.95454813432349E-02 
412	 6.92727337549462E-02 
413	 6.94232942483752E-02 
414	 6.94089547714407E-02 
415	 6.94648274471204E-02 
416	 6.99647276759094E-02 
417	 7.01050179982209E-02 
418	 0.069933829890183 
419	 7.02891014461618E-02 
420	 7.02997443538684E-02 
421	 6.96520191998396E-02 
422	 6.96184248339549E-02 
423	 6.99766221978078E-02 
424	 7.01977705530002E-02 
425	 7.02098039138728E-02 
426	 7.01645019233262E-02 
427	 7.07601732514247E-02 
428	 7.12213146636892E-02 
429	 7.11182012121596E-02 
430	 7.13934355194839E-02 
431	 7.17743196271638E-02 
432	 7.16162499397665E-02 
433	 7.13077026593619E-02 
434	 7.10882625501461E-02 
435	 7.13760894944428E-02 
436	 7.16135096283897E-02 
437	 0.071462560203717 
438	 7.14114338351794E-02 
439	 0.071515464761163 
440	 7.17530872124155E-02 
441	 7.19246002656283E-02 
442	 7.20016834880653E-02 
443	 7.22041338326893E-02 
444	 0.072322836451892 
445	 7.22197377956083E-02 
446	 7.22983072560274E-02 
447	 7.26285939071608E-02 
448	 7.32783780805124E-02 
449	 0.073516339735408 
450	 7.31946937464046E-02 
451	 7.30077112601738E-02 
452	 0.072941537816514 
453	 7.29570026309481E-02 
454	 7.33724590409496E-02 
455	 7.39416648065573E-02 
456	 0.073869567836317 
457	 7.36618540620354E-02 
458	 7.36186421911563E-02 
459	 7.42036228998539E-02 
460	 7.47191134648954E-02 
461	 7.43291052240977E-02 
462	 7.41577677223934E-02 
463	 0.074291092239307 
464	 7.40856883414158E-02 
465	 7.41519252420455E-02 
466	 7.47035025138303E-02 
467	 7.49325103302008E-02 
468	 7.48722420348309E-02 
469	 7.47086686904184E-02 
470	 0.075001264565085 
471	 7.56686307611636E-02 
472	 7.59238664936361E-02 
473	 7.57695212648774E-02 
474	 7.52844084615811E-02 
475	 7.50446522516979E-02 
476	 0.075089559090012 
477	 7.53108451867097E-02 
478	 7.57023759600046E-02 
479	 7.60942228007817E-02 
480	 7.59611543916218E-02 
481	 7.55956709753599E-02 
482	 7.52913403609435E-02 
483	 7.53849875506422E-02 
484	 7.58567295502493E-02 
485	 7.65504093819212E-02 
486	 7.70139402600425E-02 
487	 7.70047568811586E-02 
488	 7.64460423607216E-02 
489	 7.60526674882114E-02 
490	 7.64943166055223E-02 
491	 7.67769981887985E-02 
492	 7.68035829720197E-02 
493	 0.076879439364517 
494	 7.69761838030338E-02 
495	 7.70708526163743E-02 
496	 7.70224428323651E-02 
497	 7.70152396717214E-02 
498	 7.72981319458397E-02 
499	 7.74241254378062E-02 
500	 7.74460881322727E-02 
501	 0.078019218612462 
502	 7.82083989351804E-02 
503	 7.76111356830632E-02 
504	 7.77976017359997E-02 
505	 7.83910981058923E-02 
506	 7.84396125038652E-02 
507	 7.83682521099155E-02 
508	 7.83549167787156E-02 
509	 7.86584804346171E-02 
510	 7.89818531451977E-02 
511	 7.90800628895364E-02 
512	 7.90528226624993E-02 
513	 7.89852862394795E-02 
514	 7.90102704368442E-02 
515	 7.91460605941139E-02 
516	 7.93885245372696E-02 
517	 7.96649053998593E-02 
518	 7.98205526845619E-02 
519	 7.97191976538021E-02 
520	 7.98162635411981E-02 
521	 8.00989395434823E-02 
522	 8.03127495460343E-02 
523	 8.02875459758666E-02 
524	 8.00246257258953E-02 
525	 8.01350508226576E-02 
526	 0.080400266649915 
527	 8.04089169512125E-02 
528	 8.06915951102243E-02 
529	 8.11926840333177E-02 
530	 8.12737049934456E-02 
531	 8.13432843210079E-02 
532	 8.16440308178753E-02 
533	 8.17345695588728E-02 
534	 8.17264829990731E-02 
535	 8.19804879466439E-02 
536	 8.20350508963507E-02 
537	 8.18489005266494E-02 
538	 8.19169837251383E-02 
539	 8.21268902118969E-02 
540	 0.082335060064192 
541	 0.082379871767673 
542	 8.23447171170176E-02 
543	 8.25880309996804E-02 
544	 8.26355396448163E-02 
545	 8.23869027189602E-02 
546	 8.25127365539224E-02 
547	 8.28088524200011E-02 
548	 8.29300051876276E-02 
549	 8.30135859574391E-02 
550	 8.30700497280473E-02 
551	 8.30269326777452E-02 
552	 8.30510250006384E-02 
553	 8.32488388117187E-02 
554	 8.35543458181397E-02 
555	 8.38474353238926E-02 
556	 8.39308310916672E-02 
557	 8.40543414996319E-02 
558	 8.42269730987595E-02 
559	 8.40913642885025E-02 
560	 8.39774243990857E-02 
561	 8.41844757727931E-02 
562	 8.43654937925315E-02 
563	 8.44758815837678E-02 
564	 8.45751488414898E-02 
565	 8.47016140320865E-02 
566	 8.48493240050758E-02 
567	 8.48858152757269E-02 
568	 8.48162495142983E-02 
569	 8.46659556986518E-02 
570	 8.48276935445245E-02 
571	 8.52187202119549E-02 
572	 0.08519827745565 
573	 0.08518451877432 
574	 8.54021491935697E-02 
575	 8.55114021449917E-02 
576	 8.54345881617102E-02 
577	 8.50829793195995E-02 
578	 8.51181886208095E-02 
579	 0.085588219083981 
580	 8.56794180102104E-02 
581	 8.56209492117928E-02 
582	 8.56475153851732E-02 
583	 8.57648346837454E-02 
584	 0.085914973032561 
585	 8.59078032119185E-02 
586	 8.60212742451054E-02 
587	 0.086325081948849 
588	 0.086511314652086 
589	 8.65709124272541E-02 
590	 8.65323970924987E-02 
591	 8.63341900343255E-02 
592	 8.61728053679147E-02 
593	 8.67274518013393E-02 
594	 8.70006498606541E-02 
595	 0.086519645779222 
596	 8.66041872078657E-02 
597	 8.69379196727317E-02 
598	 8.66383797146276E-02 
599	 8.65505211780455E-02 
600	 8.68227266700666E-02 
601	 8.69366550343115E-02 
602	 8.69649152496096E-02 
603	 8.69806906081219E-02 
604	 8.68577793929548E-02 
605	 8.67015328238573E-02 
606	 8.68196233201918E-02 
607	 8.69527155199235E-02 
608	 8.69851646928749E-02 
609	 8.68768110301321E-02 
610	 8.68446142829895E-02 
611	 8.71566020588234E-02 
612	 8.72110379809514E-02 
613	 8.69961720139168E-02 
614	 8.70046354283833E-02 
615	 0.087023633071835 
616	 8.69564644379878E-02 
617	 8.70849663283387E-02 
618	 8.72904508799675E-02 
619	 8.73246821711139E-02 
620	 8.71546614180117E-02 
621	 8.68980648224424E-02 
622	 0.087148598930636 
623	 8.72924933064832E-02 
624	 8.68328230342778E-02 
625	 8.70415326019373E-02 
626	 8.77093778798815E-02 
627	 0.087724982539523 
628	 8.74825931320304E-02 
629	 8.72007539833127E-02 
630	 0.08729701639978 
631	 8.75454356097687E-02 
632	 8.76154095002957E-02 
633	 8.78605416253301E-02 
634	 0.088158381189522 
635	 8.78362769788802E-02 
636	 8.76568035408213E-02 
637	 0.087998633679352 
638	 8.79433774343571E-02 
639	 8.77249932175713E-02 
640	 8.79902054511753E-02 
641	 8.79846276274551E-02 
642	 8.76960345770733E-02 
643	 8.81170957796424E-02 
644	 8.85970769676577E-02 
645	 8.85399900208088E-02 
646	 0.088228554909115 
647	 8.79229051179735E-02 
648	 8.81960917443264E-02 
649	 8.82631665023456E-02 
650	 8.79275862921382E-02 
651	 8.80056563887451E-02 
652	 8.82611046048684E-02 
653	 8.83355042666345E-02 
654	 8.82033917382052E-02 
655	 8.79908155862897E-02 
656	 8.82365322848128E-02 
657	 8.83777639908892E-02 
658	 8.81191073482728E-02 
659	 8.79651389456152E-02 
660	 8.77962595041169E-02 
661	 8.73037019322856E-02 
662	 8.70861862755367E-02 
663	 8.72088316000126E-02 
664	 8.71622384601279E-02 
665	 8.69924199940211E-02 
666	 8.67668680711595E-02 
667	 8.66798457960853E-02 
668	 8.66909522599254E-02 
669	 8.66237786875336E-02 
670	 8.64219957955307E-02 
671	 8.61966232551757E-02 
672	 8.67173501126441E-02 
673	 8.72677489943086E-02 
674	 8.69953357265649E-02 
675	 8.71513660620375E-02 
676	 8.76393545523713E-02 
677	 8.72483702665336E-02 
678	 8.69524936890071E-02 
679	 8.72409027306484E-02 
680	 8.75500644948195E-02 
681	 8.78493765792079E-02 
682	 8.82175098357959E-02 
683	 8.82606838651877E-02 
684	 8.80697842709779E-02 
685	 8.84644471639044E-02 
686	 8.90132956985243E-02 
687	 8.93094677228128E-02 
688	 8.94644438987454E-02 
689	 8.95572959015023E-02 
690	 8.97411856708203E-02 
691	 9.00748942806154E-02 
692	 9.05162659930536E-02 
693	 9.07061526168598E-02 
694	 9.08805279092316E-02 
695	 9.12765274599157E-02 
696	 9.13270526744393E-02 
697	 9.12251624384252E-02 
698	 9.18713470311558E-02 
699	 9.21901250673057E-02 
700	 0.09176434743791 
701	 9.16145680669194E-02 
702	 9.16893050116001E-02 
703	 9.17450231446103E-02 
704	 9.20309679385803E-02 
705	 9.24875419697142E-02 
706	 9.27893456079351E-02 
707	 9.28444060547955E-02 
708	 9.26567312909015E-02 
709	 9.28289878750951E-02 
710	 0.093174457143983 
711	 9.31832360057503E-02 
712	 9.31859099736251E-02 
713	 9.32611514254157E-02 
714	 9.33037700646434E-02 
715	 9.33444223938815E-02 
716	 0.093426072730086 
717	 9.36231115998686E-02 
718	 9.40192055946323E-02 
719	 9.48295883743928E-02 
720	 9.49378376049904E-02 
721	 9.42741077073402E-02 
722	 0.094413097498923 
723	 9.47059940809223E-02 
724	 9.43518094312842E-02 
725	 9.44479950062714E-02 
726	 9.50270221225108E-02 
727	 9.54455348615514E-02 
728	 9.55537735855722E-02 
729	 9.53379088977144E-02 
730	 9.54335661561814E-02 
731	 9.56162365653127E-02 
732	 9.54747561380919E-02 
733	 9.55355088655535E-02 
734	 0.095720530099039 
735	 9.53080800436961E-02 
736	 9.50247862171535E-02 
737	 9.53161056905928E-02 
738	 9.54509446869893E-02 
739	 9.54271268349204E-02 
740	 9.54214463213297E-02 
741	 9.56467923993966E-02 
742	 9.60802382034164E-02 
743	 9.63312610603828E-02 
744	 9.64354644313302E-02 
745	 9.64313279435533E-02 
746	 9.62092252928645E-02 
747	 9.59967625739299E-02 
748	 9.63841024436373E-02 
749	 9.66146907602971E-02 
750	 9.64856362576985E-02 
751	 9.65383063054958E-02 
752	 9.66677394361554E-02 
753	 9.67285903781941E-02 
754	 9.68803205389175E-02 
755	 9.70460334385469E-02 
756	 0.096943794154915 
757	 9.67189167159181E-02 
758	 9.64815256927793E-02 
759	 9.66416895758985E-02 
760	 9.74965635280858E-02 
761	 9.87659433590346E-02 
762	 9.87537681478747E-02 
763	 9.80228864030739E-02 
764	 9.87646276207392E-02 
765	 9.92991276093623E-02 
766	 9.90770819054815E-02 
767	 9.85047786441211E-02 
768	 9.79883092573126E-02 
769	 9.79514168891093E-02 
770	 0.097943233847357 
771	 9.79174724162979E-02 
772	 9.81160116159697E-02 
773	 9.82842793457447E-02 
774	 9.83064047891456E-02 
775	 9.88425019790819E-02 
776	 9.93544669195224E-02 
777	 0.098720525489338 
778	 9.81828551888839E-02 
779	 9.81485893427809E-02 
780	 9.85359663418203E-02 
781	 9.88852489474072E-02 
782	 9.88478174936007E-02 
783	 9.88402614620942E-02 
784	 9.88662938524724E-02 
785	 9.87775899979704E-02 
786	 9.87365032082508E-02 
787	 0.098798209699246 
788	 0.098899829812897 
789	 9.91508806847585E-02 
790	 9.96018236081014E-02 
791	 9.95307364231913E-02 
792	 9.92048109984985E-02 
793	 9.96705993587311E-02 
794	 9.97182775430155E-02 
795	 9.91786435102521E-02 
796	 9.94914846674946E-02 
797	 0.100019316684694 
798	 0.100051522030939 
799	 9.99948550315017E-02 
800	 0.099966821899803 
801	 0.100066695565516 
802	 0.100285664279664 
803	 0.100518189727329 
804	 0.100179665579608 
805	 9.99947509809733E-02 
806	 0.10072897710227 
807	 0.101097086514939 
808	 0.100977804466458 
809	 0.100794240977236 
810	 0.100755329012349 
811	 0.101009989225187 
812	 0.101731537108676 
813	 0.102065478412282 
814	 0.100918521175982 
815	 0.100177240735382 
816	 0.100218382971615 
817	 0.100456761218608 
818	 0.100499663041877 
819	 0.100286503357735 
820	 0.100748367836221 
821	 0.101350655807553 
822	 0.101394127958845 
823	 0.101241121691708 
824	 0.101153693730838 
825	 0.10162816190931 
826	 0.102024660245906 
827	 0.102082736681232 
828	 0.102034308896593 
829	 0.101830314785411 
830	 0.101414852977051 
831	 0.101325352191593 
832	 0.101633541654047 
833	 0.102315538121106 
834	 0.102119292989574 
835	 0.100911544116571 
836	 0.10135028440477 
837	 0.102259740324623 
838	 0.102088350237666 
839	 0.101841223095177 
840	 0.101764582476218 
841	 0.101991852356828 
842	 0.102103551703196 
843	 0.101948283423112 
844	 0.101790779991371 
845	 0.101873577934707 
846	 0.102426449413499 
847	 0.10331894144577 
848	 0.103946296284746 
849	 0.102618250487803 
850	 0.101944182260707 
851	 0.102770275863244 
852	 0.103020696213528 
853	 0.102606620084698 
854	 0.101715689319713 
855	 0.101968817518334 
856	 0.102963552401972 
857	 0.102854330379125 
858	 0.102666721490096 
859	 0.102677474050765 
860	 0.102646715648867 
861	 0.102269883171264 
862	 0.101388294514375 
863	 0.101765703494887 
864	 0.102815598308675 
865	 0.102311729056004 
866	 0.102232747859637 
867	 0.102951649899728 
868	 0.102979343148671 
869	 0.102793974793226 
870	 0.102825650970881 
871	 0.102876943734163 
872	 0.102823342739625 
873	 0.10244904358454 
874	 0.10237838151676 
875	 0.102678880959658 
876	 0.102757515986206 
877	 0.102751508710392 
878	 0.102835860103458 
879	 0.103695415347426 
880	 0.104340235087672 
881	 0.103055047941459 
882	 0.102820771607301 
883	 0.103909531027555 
884	 0.104347259435386 
885	 0.103927736591377 
886	 0.102710938919387 
887	 0.101962782311011 
888	 0.102186519812037 
889	 0.103757896207928 
890	 0.10483246623586 
891	 0.104971026975889 
892	 0.104458890786944 
893	 0.103774346493856 
894	 0.103165406945984 
895	 0.102167773574406 
896	 0.101633986960904 
897	 0.102561779702188 
898	 0.104133673682865 
899	 0.105411690635122 
900	 0.104804652682603 
901	 0.103810998104919 
902	 0.103092478311813 
903	 0.102761193559227 
904	 0.103233256756503 
905	 0.104650629038423 
906	 0.105583196274236 
907	 0.105522283064027 
908	 0.103978401238208 
909	 0.103486180588723 
910	 0.104626392457468 
911	 0.106358904819565 
912	 0.107113452461227 
913	 0.106165656609637 
914	 0.10559863636829 
915	 0.1056103670486 
916	 0.10606183272736 
917	 0.104736064165886 
918	 0.102687813863253 
919	 0.104088521112832 
920	 0.105060085340071 
921	 0.104553203890123 
922	 0.104872475409066 
923	 0.104591213080775 
924	 0.102659534337944 
925	 0.103366129381499 
926	 0.105566057293878 
927	 0.10516294989268 
928	 0.103993708355884 
929	 0.102669098652844 
930	 0.101201633995205 
931	 0.100929719724911 
932	 0.102824593240977 
933	 0.104346345712992 
934	 0.10578959223815 
935	 0.108097065354461 
936	 0.109665263723333 
937	 0.110056452836608 
938	 0.109506859614369 
939	 0.106294504479582 
940	 0.102150043281662 
941	 0.106527462007898 
942	 0.109921329449979 
943	 0.10594731417324 
944	 0.10405147145912 
945	 0.103683201984231 
946	 0.101875558965941 
947	 0.103015979727189 
948	 0.105884708332557 
949	 0.102992171018577 
950	 0.100440884747728 
951	 0.100691986782087 
952	 0.101768861021315 
953	 0.102357778737853 
954	 0.101614692604373 
955	 0.102518012817194 
956	 0.104649925930154 
957	 0.106527329993959 
958	 0.105875206567781 
959	 0.103754169813489 
960	 0.105715718858681 
961	 0.107646287849526 
962	 0.107161202132564 
963	 0.102950882824432 
964	 9.89241723491003E-02 
965	 9.88362306354796E-02 
966	 0.101350259775994 
967	 0.105416333567065 
968	 0.110125495310371 
969	 0.109065166239424 
970	 0.103350645598326 
971	 0.10370055533158 
972	 0.106591122371546 
973	 0.109258885030993 
974	 0.108130651461811 
975	 0.105607690006735 
976	 0.104648600680729 
977	 0.101464810962445 
978	 9.93095953274805E-02 
979	 0.106622427512106 
980	 0.109449336774945 
981	 0.105483731446313 
982	 0.102570057510622 
983	 0.100868840241207 
984	 0.100791159204908 
985	 0.103345520432265 
986	 0.105266424754894 
987	 0.103417097886635 
988	 0.103410255857836 
989	 0.105980211573774 
990	 0.110817309240401 
991	 0.109581283257062 
992	 0.102564444706488 
993	 9.93052698909805E-02 
994	 0.102453693208658 
995	 0.110743395538003 
996	 0.108669386478088 
997	 0.103763508669165 
998	 0.104670412829679 
999	 0.108222935150826 
1000	 0.110377712202867 
1001	 0.105003665811823 
1002	 0.102434141454027 
1003	 0.10446394149948 
1004	 0.107650129487832 
1005	 0.109529683426179 
1006	 0.108790441579737 
1007	 0.106061923113488 
1008	 0.102483498565933 
1009	 9.94617175543722E-02 
1010	 0.100641359688627 
1011	 0.103241489370382 
1012	 0.102874917281648 
1013	 0.101192978063155 
1014	 0.10052245549388 
1015	 0.105881153880281 
1016	 0.109389043817964 
1017	 0.108164721409295 
1018	 0.102163215909065 
1019	 0.098065298801724 
1020	 9.94538541288335E-02 
1021	 0.101526785264162 
1022	 0.104938868050015 
1023	 0.110221195352994 
1024	 0.112143259832681 
1025	 0.113449571332242 
1026	 0.120077944424702 
1027	 0.116505678602422 
1028	 0.104422163712857 
1029	 0.100153070999075 
1030	 0.101243474749086 
1031	 0.106240888453669 
1032	 0.110836019539961 
1033	 0.11197738879213 
1034	 0.108838725595936 
1035	 0.108929816569554 
1036	 0.108562749339844 
1037	 0.103022538687599 
1038	 9.25447469002964E-02 
1039	 8.45068334734394E-02 
1040	 0.091001555814858 
1041	 0.103566806308061 
1042	 0.113957784495032 
1043	 0.10350043250392 
1044	 0.100511534040205 
1045	 0.110087484212721 
1046	 0.107343435653509 
1047	 0.103896890447543 
1048	 0.105235165687906 
1049	 9.60359642056241E-02 
1050	 9.32186050741111E-02 
1051	 0.109662225806908 
1052	 0.106309443031924 
1053	 0.101011412033545 
1054	 0.128205606494578 
1055	 0.118522909659366 
1056	 8.47669593786262E-02 
1057	 9.99861357363792E-02 
1058	 0.107189991677629 
1059	 9.69755404445347E-02 
1060	 0.100553076576523 
1061	 0.105469845938802 
1062	 0.10649092847968 
1063	 0.108850363664831 
1064	 0.107241624804883 
1065	 9.78863407434154E-02 
1066	 8.39654576731356E-02 
1067	 8.14352408736249E-02 
1068	 0.102212246797769 
1069	 0.102009558389797 
1070	 9.14608662237699E-02 
1071	 0.100890286958699 
1072	 0.108406770961168 
1073	 0.107834194685487 
1074	 9.48035163375571E-02 
1075	 9.95038909909302E-02 
