Wavelength	AVEI200351.asd
325	 5.43267185074654E-02 
326	 4.36935484738453E-02 
327	 3.42734507734955E-02 
328	 0.044738984145606 
329	 4.99452152055172E-02 
330	 4.36005933495085E-02 
331	 0.044277817938959 
332	 4.78498715118722E-02 
333	 4.86287534597107E-02 
334	 3.75074567207691E-02 
335	 2.40942306909583E-02 
336	 3.61923163780466E-02 
337	 4.38141337472119E-02 
338	 3.94239309859906E-02 
339	 3.27618855367208E-02 
340	 2.75394519916077E-02 
341	 2.68321998831053E-02 
342	 3.38730620975836E-02 
343	 4.32248755932257E-02 
344	 0.045226719907947 
345	 4.24190491022129E-02 
346	 3.70740624475902E-02 
347	 3.37060780345831E-02 
348	 3.43955457454372E-02 
349	 3.92285617203843E-02 
350	 3.85263156870027E-02 
351	 3.47943230374015E-02 
352	 3.38778205458301E-02 
353	 3.22367030100057E-02 
354	 0.030536532473873 
355	 3.43866196681341E-02 
356	 3.65017879887553E-02 
357	 3.30580430529754E-02 
358	 3.13723708538108E-02 
359	 3.14487146308944E-02 
360	 3.18992266819387E-02 
361	 0.030476098268166 
362	 2.87241263789612E-02 
363	 3.40409938666716E-02 
364	 3.66936851238483E-02 
365	 3.26955934887749E-02 
366	 3.12197837279893E-02 
367	 3.24609355951139E-02 
368	 3.53358556282872E-02 
369	 3.61151604195987E-02 
370	 3.49098941216071E-02 
371	 3.51182056905089E-02 
372	 3.81883657514386E-02 
373	 4.35043577264563E-02 
374	 4.10384875096628E-02 
375	 3.56582772846165E-02 
376	 3.53863835458244E-02 
377	 3.36961781346365E-02 
378	 3.08599994266226E-02 
379	 3.23066097520873E-02 
380	 3.33920118190506E-02 
381	 3.22231332187411E-02 
382	 3.30056011090478E-02 
383	 3.43835480975956E-02 
384	 3.40260709654788E-02 
385	 3.47304092829916E-02 
386	 3.59253164636808E-02 
387	 3.41182803038226E-02 
388	 3.24262808471774E-02 
389	 3.23378140870633E-02 
390	 3.42622795565897E-02 
391	 3.52640262344524E-02 
392	 3.20908878641731E-02 
393	 3.16356979852732E-02 
394	 3.32955660926712E-02 
395	 3.08321108698783E-02 
396	 2.83273703248323E-02 
397	 0.027786611833821 
398	 3.01340136975288E-02 
399	 3.13151170020478E-02 
400	 2.76922585207118E-02 
401	 2.62588970919293E-02 
402	 2.72181526249409E-02 
403	 0.027775769373718 
404	 2.85397783347146E-02 
405	 2.94050394214351E-02 
406	 2.86200830761608E-02 
407	 2.72039367660924E-02 
408	 2.65935186585294E-02 
409	 2.81525118853324E-02 
410	 3.09402536440333E-02 
411	 3.18032308279754E-02 
412	 3.13431230402067E-02 
413	 3.00083687469353E-02 
414	 2.84979628136664E-02 
415	 2.80483152804107E-02 
416	 3.00500880391705E-02 
417	 3.11997750407663E-02 
418	 3.10270449472444E-02 
419	 3.08851829679352E-02 
420	 0.030484156476732 
421	 2.97081242406137E-02 
422	 0.028449184905198 
423	 2.78619720557101E-02 
424	 2.96049959098407E-02 
425	 3.02727425314304E-02 
426	 0.029535700786633 
427	 2.97145048579381E-02 
428	 3.01342355745291E-02 
429	 3.03176913806139E-02 
430	 3.01925730657842E-02 
431	 2.98807544807734E-02 
432	 2.96089067332499E-02 
433	 2.95138673750874E-02 
434	 2.94348837830191E-02 
435	 2.85814988106289E-02 
436	 2.79720874623503E-02 
437	 2.82586744323215E-02 
438	 2.86832703507168E-02 
439	 2.90148734793359E-02 
440	 2.90906577487057E-02 
441	 2.88025847724604E-02 
442	 2.84207611474533E-02 
443	 2.91268352179478E-02 
444	 3.00286843026632E-02 
445	 3.03332438745296E-02 
446	 2.98215913702127E-02 
447	 2.91180794701832E-02 
448	 2.96836270392181E-02 
449	 0.030248525795428 
450	 3.03676973658658E-02 
451	 3.01517809137077E-02 
452	 2.98204660144148E-02 
453	 2.96271226218668E-02 
454	 3.01791908677964E-02 
455	 3.10497109712685E-02 
456	 3.07906498479167E-02 
457	 3.02482417825367E-02 
458	 0.029882273190689 
459	 3.01864957616349E-02 
460	 3.06870543429453E-02 
461	 3.07700535421772E-02 
462	 3.05932894231549E-02 
463	 3.03585205730301E-02 
464	 3.06065644473641E-02 
465	 3.07762285295285E-02 
466	 3.05725113467043E-02 
467	 3.00968681978483E-02 
468	 2.98690836796449E-02 
469	 3.05996861643417E-02 
470	 3.11293658915246E-02 
471	 3.12378949269986E-02 
472	 3.13350198872169E-02 
473	 3.16787180733542E-02 
474	 3.22756982842552E-02 
475	 3.17195319703666E-02 
476	 3.07341888677384E-02 
477	 3.09021230242356E-02 
478	 3.11067621845621E-02 
479	 3.10594367591004E-02 
480	 3.09325432367284E-02 
481	 3.09254005560181E-02 
482	 3.12054598776477E-02 
483	 3.18532361651172E-02 
484	 3.23957244324728E-02 
485	 3.17115740441445E-02 
486	 0.030861323634885 
487	 3.03477674665116E-02 
488	 3.02921970755317E-02 
489	 3.06836248325901E-02 
490	 3.14187965528571E-02 
491	 3.12547458805277E-02 
492	 3.05190269746459E-02 
493	 3.07486316602371E-02 
494	 3.12955142323364E-02 
495	 3.17950613618332E-02 
496	 3.17641564311494E-02 
497	 3.16469686930212E-02 
498	 3.20793049912096E-02 
499	 3.22757825854907E-02 
500	 3.21396143532056E-02 
501	 0.031934645762472 
502	 3.22203462303049E-02 
503	 3.31906066952522E-02 
504	 3.36392996667963E-02 
505	 3.35113760810457E-02 
506	 3.29971085220922E-02 
507	 3.24239053110613E-02 
508	 3.21073405717164E-02 
509	 3.26914997587024E-02 
510	 3.33753152188459E-02 
511	 3.35058564152113E-02 
512	 3.34002944257181E-02 
513	 3.33360657885253E-02 
514	 3.37938215161206E-02 
515	 3.45266333368786E-02 
516	 3.53599180814071E-02 
517	 3.60622587080385E-02 
518	 3.60633671213876E-02 
519	 3.49062376082019E-02 
520	 3.49253254401731E-02 
521	 3.58787009071941E-02 
522	 3.57258757402023E-02 
523	 3.56990577385314E-02 
524	 3.62492309906426E-02 
525	 3.64951710300571E-02 
526	 3.66349444572989E-02 
527	 3.70756584657959E-02 
528	 3.73972470282587E-02 
529	 3.75112455882692E-02 
530	 0.037462242013492 
531	 3.76478626704623E-02 
532	 3.82537085355716E-02 
533	 3.83612992390404E-02 
534	 3.81597219992054E-02 
535	 3.82653546344832E-02 
536	 3.86136994286498E-02 
537	 0.039134454176348 
538	 0.039637498741224 
539	 3.95953223737963E-02 
540	 3.86117031547862E-02 
541	 3.85334644599769E-02 
542	 3.92325071578941E-02 
543	 0.039296938539476 
544	 3.93913165561428E-02 
545	 3.97429032032148E-02 
546	 4.01674117899751E-02 
547	 4.04195598438741E-02 
548	 4.02103019769207E-02 
549	 4.01203290257311E-02 
550	 4.02227989298781E-02 
551	 4.01243889430371E-02 
552	 4.03421326851127E-02 
553	 4.11073495805897E-02 
554	 4.14669706005018E-02 
555	 4.15373993142456E-02 
556	 4.17836586572581E-02 
557	 4.22627810227533E-02 
558	 4.27540718261562E-02 
559	 4.21490447682768E-02 
560	 4.14190173101187E-02 
561	 4.14687577511826E-02 
562	 4.13412926770786E-02 
563	 4.11947391164265E-02 
564	 4.19683340672039E-02 
565	 4.24357249479054E-02 
566	 4.22073880607317E-02 
567	 4.23411129162763E-02 
568	 4.26843160660154E-02 
569	 4.29179971458853E-02 
570	 4.28320802728951E-02 
571	 4.25333662884215E-02 
572	 4.25767101094385E-02 
573	 4.26968981743455E-02 
574	 4.27290181817891E-02 
575	 4.27409651773972E-02 
576	 4.26679706145128E-02 
577	 4.23454869025043E-02 
578	 4.25144509927785E-02 
579	 0.043123269150266 
580	 4.29525122289346E-02 
581	 4.21837024173421E-02 
582	 4.11718521045748E-02 
583	 4.19623088994602E-02 
584	 4.36474193741444E-02 
585	 4.29268109667014E-02 
586	 4.20360534219876E-02 
587	 4.19097519489045E-02 
588	 4.25765922326595E-02 
589	 4.30878069738118E-02 
590	 4.22059722058232E-02 
591	 4.22036027242731E-02 
592	 4.31352556233329E-02 
593	 4.33112039512281E-02 
594	 4.34397807533265E-02 
595	 4.37674699275779E-02 
596	 0.042747448023041 
597	 4.18361118759939E-02 
598	 4.40234337826943E-02 
599	 4.47219194777044E-02 
600	 4.32036773495695E-02 
601	 4.30520952293889E-02 
602	 4.31532388732107E-02 
603	 4.25209279790694E-02 
604	 4.28822299652355E-02 
605	 4.39369954950315E-02 
606	 4.42496810128468E-02 
607	 0.044258770476179 
608	 4.41813338652572E-02 
609	 4.45212132774462E-02 
610	 4.48313243679696E-02 
611	 4.44982606683699E-02 
612	 4.40327504411007E-02 
613	 4.37769287987595E-02 
614	 4.45191657167637E-02 
615	 4.45797290064707E-02 
616	 0.043212709416916 
617	 4.33886904352621E-02 
618	 4.43800414352811E-02 
619	 4.42708367704375E-02 
620	 4.35975643927935E-02 
621	 4.26263597431193E-02 
622	 4.18121912817661E-02 
623	 4.16393332342117E-02 
624	 4.25043203905363E-02 
625	 4.40623587802978E-02 
626	 4.54782304768409E-02 
627	 4.49416139324528E-02 
628	 0.044272688598979 
629	 4.42115623612384E-02 
630	 0.044287294287628 
631	 4.42421848163455E-02 
632	 4.38112933856918E-02 
633	 4.44448412902505E-02 
634	 4.58103755131523E-02 
635	 4.58252333760115E-02 
636	 4.50579989629886E-02 
637	 4.40907033340922E-02 
638	 4.46970305804437E-02 
639	 4.60458739529345E-02 
640	 0.046296362872172 
641	 4.55572852655663E-02 
642	 4.44038910541601E-02 
643	 4.53761223595123E-02 
644	 4.61176847925208E-02 
645	 4.46653504220844E-02 
646	 0.044724578074051 
647	 4.58562815124871E-02 
648	 4.50317859140821E-02 
649	 0.044116141749805 
650	 4.38741453056462E-02 
651	 4.42936070462607E-02 
652	 4.46069201715787E-02 
653	 4.39208878728349E-02 
654	 4.38257514368822E-02 
655	 0.044342446293409 
656	 4.40925077069308E-02 
657	 4.36980617491837E-02 
658	 4.35452873464573E-02 
659	 0.04345507284747 
660	 4.33138358371881E-02 
661	 4.29324326543988E-02 
662	 4.31098668746447E-02 
663	 4.37910289840153E-02 
664	 4.37533432866803E-02 
665	 4.33885285495177E-02 
666	 4.30855283146921E-02 
667	 4.31758187570928E-02 
668	 4.31922310440399E-02 
669	 4.15103316349585E-02 
670	 4.14963273135896E-02 
671	 4.37055733746528E-02 
672	 4.36504430598538E-02 
673	 4.24214061188749E-02 
674	 4.17072072483515E-02 
675	 4.19382160859269E-02 
676	 4.27370309447164E-02 
677	 4.24040638755159E-02 
678	 4.25307213101311E-02 
679	 4.36859412813207E-02 
680	 4.34267896098707E-02 
681	 4.25928210107796E-02 
682	 4.29330456886542E-02 
683	 4.37174725221276E-02 
684	 4.48706525708895E-02 
685	 4.70165569012116E-02 
686	 4.89163962629785E-02 
687	 4.94090957338812E-02 
688	 4.97995549172178E-02 
689	 5.03679135585917E-02 
690	 5.11528528905938E-02 
691	 5.23351966024049E-02 
692	 5.38747353281845E-02 
693	 5.50779365628283E-02 
694	 0.056571515108984 
695	 5.88696679638468E-02 
696	 5.94220847515604E-02 
697	 5.91609358194998E-02 
698	 6.20399800177753E-02 
699	 6.47552568796106E-02 
700	 6.58304273366061E-02 
701	 6.70864116091762E-02 
702	 6.83859856846371E-02 
703	 6.92943139478418E-02 
704	 7.05422484219789E-02 
705	 7.21504153943247E-02 
706	 7.35275287092991E-02 
707	 7.45981501599871E-02 
708	 7.53645521957805E-02 
709	 7.62164606100651E-02 
710	 7.74814800282943E-02 
711	 7.97013696099211E-02 
712	 0.081265677942594 
713	 8.19060290604244E-02 
714	 8.30515670883516E-02 
715	 8.40527749639867E-02 
716	 8.43625581972025E-02 
717	 8.52900225508105E-02 
718	 8.68571595637895E-02 
719	 8.78403304530819E-02 
720	 8.87224048228068E-02 
721	 8.94820927441272E-02 
722	 8.93057148455692E-02 
723	 8.95831574599777E-02 
724	 9.18905628837292E-02 
725	 9.28460341647388E-02 
726	 9.22405658542441E-02 
727	 9.24008410938022E-02 
728	 9.25751379568548E-02 
729	 9.27038233368096E-02 
730	 9.47312826910605E-02 
731	 9.67527336670319E-02 
732	 9.59802007353926E-02 
733	 9.61447674253977E-02 
734	 9.77945083612194E-02 
735	 9.99492052634909E-02 
736	 0.101052481472667 
737	 0.100283058692631 
738	 0.101039576154541 
739	 0.102454782788661 
740	 0.101933700757953 
741	 0.101986454290713 
742	 0.1031127543951 
743	 0.10404103400663 
744	 0.104734087913792 
745	 0.105189966480771 
746	 0.10537503107202 
747	 0.105473502171224 
748	 0.105855923212697 
749	 0.10650720724056 
750	 0.107365859370844 
751	 0.108106730923952 
752	 0.108730432431203 
753	 0.109261000834176 
754	 0.109522872699865 
755	 0.109612922665031 
756	 0.10995143697756 
757	 0.109858528281754 
758	 0.109148507644393 
759	 0.109103812574909 
760	 0.110062935604699 
761	 0.111519850128161 
762	 0.113233483250494 
763	 0.114568926196723 
764	 0.115005772129953 
765	 0.11536680347571 
766	 0.115885327019689 
767	 0.116074734055856 
768	 0.116392691747586 
769	 0.117403221354063 
770	 0.118385050860722 
771	 0.119102738169563 
772	 0.119365660517785 
773	 0.119974128771447 
774	 0.121303147166718 
775	 0.12169721331119 
776	 0.121474953908505 
777	 0.121649466215603 
778	 0.121718949357342 
779	 0.121747416561783 
780	 0.122439581560117 
781	 0.123327657043868 
782	 0.124062491457254 
783	 0.125267952996938 
784	 0.1265650848051 
785	 0.127024365738743 
786	 0.126903846270679 
787	 0.12658278375445 
788	 0.12741062731875 
789	 0.128296820018097 
790	 0.128202268910001 
791	 0.12816903864683 
792	 0.12864163630207 
793	 0.130387126934395 
794	 0.130959418421656 
795	 0.130023973065873 
796	 0.13086715255673 
797	 0.132415172724107 
798	 0.133367893526153 
799	 0.1338440259036 
800	 0.134022848226572 
801	 0.134288836789554 
802	 0.135052876615233 
803	 0.136250820038382 
804	 0.136334451103272 
805	 0.13666006379971 
806	 0.138671554277931 
807	 0.139405373538119 
808	 0.138881903399257 
809	 0.138920891253118 
810	 0.139200210073655 
811	 0.139438774210041 
812	 0.138303257903741 
813	 0.137210931430805 
814	 0.138195576558991 
815	 0.140099352288401 
816	 0.142260952290251 
817	 0.143881309458578 
818	 0.144558408678527 
819	 0.144212986501811 
820	 0.143142597342779 
821	 0.143014463281055 
822	 0.145666401268842 
823	 0.148500029554913 
824	 0.149904319867923 
825	 0.147680907317425 
826	 0.146384928859848 
827	 0.147823224312675 
828	 0.149918075235496 
829	 0.151545274980003 
830	 0.151562834901157 
831	 0.15051731433558 
832	 0.150037297566227 
833	 0.15451659499377 
834	 0.157151612328523 
835	 0.155667216762686 
836	 0.155524098598022 
837	 0.156284080550156 
838	 0.156931371701232 
839	 0.157496744055234 
840	 0.157931852342867 
841	 0.158110865104105 
842	 0.158815816922725 
843	 0.160026738063543 
844	 0.159555601033339 
845	 0.158632696731446 
846	 0.158787856978742 
847	 0.158489738969883 
848	 0.158512189864537 
849	 0.162114485869427 
850	 0.164701363155436 
851	 0.164356583227103 
852	 0.16232117316116 
853	 0.161368430030901 
854	 0.16417852279518 
855	 0.166757345064024 
856	 0.167616352009714 
857	 0.165049743733533 
858	 0.164277032512054 
859	 0.166460497139119 
860	 0.167172922038697 
861	 0.167130526148787 
862	 0.167249745644217 
863	 0.167150694694184 
864	 0.167710979215946 
865	 0.171395807602984 
866	 0.172084999361213 
867	 0.169137088277429 
868	 0.170338619210935 
869	 0.17312217701545 
870	 0.174927172192282 
871	 0.174823708310506 
872	 0.173695057566742 
873	 0.173523615895098 
874	 0.173841209152073 
875	 0.17508819178427 
876	 0.179663651162659 
877	 0.182158424816339 
878	 0.179538946321267 
879	 0.180934420918723 
880	 0.183716844341244 
881	 0.181639823401554 
882	 0.180375120586393 
883	 0.181313255845659 
884	 0.183783384244431 
885	 0.18527490276285 
886	 0.184730675010113 
887	 0.186143956356734 
888	 0.187079973913732 
889	 0.183929139544863 
890	 0.184852922971482 
891	 0.188845943360434 
892	 0.186161884058327 
893	 0.185721638556872 
894	 0.190283352798447 
895	 0.188935339258428 
896	 0.184635458625888 
897	 0.182654111418088 
898	 0.189652805399239 
899	 0.199908106812099 
900	 0.195183840320981 
901	 0.192736590527797 
902	 0.195817434033284 
903	 0.191929144808081 
904	 0.187537392789842 
905	 0.187893922719962 
906	 0.190191769966095 
907	 0.19346429409151 
908	 0.196638316482585 
909	 0.197973500357997 
910	 0.196919835085373 
911	 0.192958514931813 
912	 0.194228358081711 
913	 0.202900370567468 
914	 0.198665255851813 
915	 0.192140696069933 
916	 0.198478103102252 
917	 0.205310107246579 
918	 0.208772985824781 
919	 0.206001815072203 
920	 0.20231157387848 
921	 0.199630607760309 
922	 0.195509707596204 
923	 0.195337109118609 
924	 0.203094582620689 
925	 0.207700953699981 
926	 0.207951997717948 
927	 0.205655831636882 
928	 0.204950046112826 
929	 0.206842305162763 
930	 0.205851456538824 
931	 0.207480758454823 
932	 0.214484177735352 
933	 0.20907816355294 
934	 0.196114975391302 
935	 0.18912283129781 
936	 0.193684292491396 
937	 0.204699838939698 
938	 0.208513788239123 
939	 0.20794581543042 
940	 0.20470503312972 
941	 0.204712766288859 
942	 0.20176461433543 
943	 0.193151003596873 
944	 0.197026286289195 
945	 0.206866806479611 
946	 0.207062679302302 
947	 0.199457733499571 
948	 0.187810258293689 
949	 0.183930962100461 
950	 0.184082665963046 
951	 0.185300429184549 
952	 0.180392321600492 
953	 0.180046076146475 
954	 0.193189130423863 
955	 0.204963102222217 
956	 0.210650032241743 
957	 0.207374579267594 
958	 0.198197331594107 
959	 0.191165552121992 
960	 0.2065391121109 
961	 0.221165384597579 
962	 0.222999244819219 
963	 0.214196422815217 
964	 0.205246117713471 
965	 0.205366975069301 
966	 0.211824205878747 
967	 0.21609175491972 
968	 0.202801116734157 
969	 0.19879448827103 
970	 0.208064908204941 
971	 0.218017970582069 
972	 0.213424382147275 
973	 0.191723203666227 
974	 0.19421469039756 
975	 0.205516357023828 
976	 0.20431748046494 
977	 0.212153886095568 
978	 0.223688725127546 
979	 0.221254260081148 
980	 0.212867193580495 
981	 0.203388290055453 
982	 0.201249672806989 
983	 0.203849231160249 
984	 0.208621978306399 
985	 0.211097950926915 
986	 0.211786137865774 
987	 0.211977627639972 
988	 0.214025213197901 
989	 0.21635570107885 
990	 0.214978060404214 
991	 0.212454931564407 
992	 0.211443762770724 
993	 0.218875892031156 
994	 0.223178818472027 
995	 0.220617919207784 
996	 0.2270327276368 
997	 0.226256497221658 
998	 0.204860874481772 
999	 0.206359402295477 
1000	 0.221826671158649 
1001	 0.223050961132806 
1002	 0.223701527949299 
1003	 0.224481630805941 
1004	 0.21788665234958 
1005	 0.212287403142714 
1006	 0.210174113687012 
1007	 0.202222803905466 
1008	 0.203427365002404 
1009	 0.223343281922834 
1010	 0.244232181709635 
1011	 0.250587127143457 
1012	 0.223959484597789 
1013	 0.212142149482601 
1014	 0.218312122229632 
1015	 0.220510707064016 
1016	 0.223931168460593 
1017	 0.226163270196832 
1018	 0.211358977295162 
1019	 0.219311662819148 
1020	 0.25924427867673 
1021	 0.246597418690477 
1022	 0.219257534610503 
1023	 0.220125297267596 
1024	 0.21486726878754 
1025	 0.207122900103089 
1026	 0.212162618069756 
1027	 0.226830130966157 
1028	 0.24189816307202 
1029	 0.232571210674203 
1030	 0.234334143196084 
1031	 0.250016310641606 
1032	 0.231360694752551 
1033	 0.213312846835286 
1034	 0.217224620400278 
1035	 0.226640480065197 
1036	 0.238562620411898 
1037	 0.249427811921649 
1038	 0.24838182475905 
1039	 0.244685786539979 
1040	 0.25769351012804 
1041	 0.263730327388119 
1042	 0.259042270775613 
1043	 0.250791646883163 
1044	 0.235463268745431 
1045	 0.218793232300361 
1046	 0.225029331140912 
1047	 0.232117651729742 
1048	 0.229511111346111 
1049	 0.244236982051456 
1050	 0.259635222665488 
1051	 0.252500189178963 
1052	 0.241734728492028 
1053	 0.2435649364482 
1054	 0.277961807763584 
1055	 0.271292976276559 
1056	 0.236203092470082 
1057	 0.244971323584634 
1058	 0.265077081573745 
1059	 0.275938334231902 
1060	 0.240654830490922 
1061	 0.213399790247571 
1062	 0.22211599073221 
1063	 0.234679774790824 
1064	 0.222021126562841 
1065	 0.172942878537158 
1066	 0.177966213406545 
1067	 0.206642405078781 
1068	 0.210169405911212 
1069	 0.195983759881135 
1070	 0.184485809979715 
1071	 0.202464429833502 
1072	 0.245852622880936 
1073	 0.274715861433893 
1074	 0.195730082438063 
1075	 0.176135967898522 
