Wavelength	AVEI200333.asd
325	 6.89987883040709E-02 
326	 0.070812718233173 
327	 6.01432718138392E-02 
328	 6.25040084672696E-02 
329	 6.34746968748221E-02 
330	 5.99329277357125E-02 
331	 6.48795107696196E-02 
332	 6.89418186281968E-02 
333	 6.32162496226562E-02 
334	 0.063294406833101 
335	 6.66560970113705E-02 
336	 6.05201933608615E-02 
337	 5.75128557092444E-02 
338	 6.06524966719405E-02 
339	 6.43388571837819E-02 
340	 6.81918553599719E-02 
341	 7.16094236509396E-02 
342	 6.87619835784379E-02 
343	 6.32233466483051E-02 
344	 6.34609768954702E-02 
345	 0.059781537569523 
346	 5.34367201068709E-02 
347	 5.88733505399801E-02 
348	 6.36159547365996E-02 
349	 5.98679602266441E-02 
350	 5.76217724821852E-02 
351	 5.79020888572722E-02 
352	 6.03092505384745E-02 
353	 6.13118741608082E-02 
354	 6.06384023119803E-02 
355	 6.14163850071895E-02 
356	 6.07026206641676E-02 
357	 5.74695182799515E-02 
358	 5.80340843145142E-02 
359	 6.08909260905173E-02 
360	 6.27315336075804E-02 
361	 6.14778644872911E-02 
362	 5.79316719060817E-02 
363	 5.63373036153751E-02 
364	 5.63158220599684E-02 
365	 5.74084721778121E-02 
366	 5.83975282751446E-02 
367	 5.85263157741648E-02 
368	 5.70430157913677E-02 
369	 5.65926778849589E-02 
370	 5.73358963132236E-02 
371	 5.76204924561494E-02 
372	 5.72144365564067E-02 
373	 5.60900141219341E-02 
374	 5.52841350859714E-02 
375	 5.46764996321427E-02 
376	 5.39107502250472E-02 
377	 5.52987428664774E-02 
378	 5.77031570303147E-02 
379	 5.59250472114004E-02 
380	 5.43174099205075E-02 
381	 5.49010078842785E-02 
382	 5.51874297160684E-02 
383	 5.54392785882611E-02 
384	 5.62832426906288E-02 
385	 5.59513101567755E-02 
386	 5.47381286462286E-02 
387	 5.46870367420591E-02 
388	 5.53053072793712E-02 
389	 5.59232810196969E-02 
390	 5.40349527111006E-02 
391	 5.17785727882371E-02 
392	 5.18163946686202E-02 
393	 5.18573503519479E-02 
394	 0.05181025854099 
395	 5.31568248954403E-02 
396	 5.28814625593083E-02 
397	 5.04628959848173E-02 
398	 4.99829223104889E-02 
399	 5.01268957194885E-02 
400	 4.92870947143729E-02 
401	 4.91741231973857E-02 
402	 4.97016874804937E-02 
403	 5.00348610830352E-02 
404	 5.01056607954881E-02 
405	 4.99615655768821E-02 
406	 5.02133470988665E-02 
407	 5.05459861797389E-02 
408	 5.05119263270173E-02 
409	 5.05254231987399E-02 
410	 5.05028312926429E-02 
411	 4.98290440382557E-02 
412	 4.97215739236817E-02 
413	 0.050485475097882 
414	 5.01257108615176E-02 
415	 4.94903542694434E-02 
416	 4.98983311004831E-02 
417	 4.99952237038892E-02 
418	 0.049688234296725 
419	 4.97098194098868E-02 
420	 4.96461443407899E-02 
421	 0.04932880936912 
422	 4.92022247273588E-02 
423	 4.91970483501278E-02 
424	 4.91370039680534E-02 
425	 4.90985670575535E-02 
426	 4.91231722384432E-02 
427	 4.93139930149872E-02 
428	 4.94731243113876E-02 
429	 4.94623376459983E-02 
430	 4.92927379899131E-02 
431	 4.91679306901727E-02 
432	 4.94302366260487E-02 
433	 4.92903714145842E-02 
434	 4.87726548912537E-02 
435	 4.87101278337332E-02 
436	 0.048769241188647 
437	 4.87602744059238E-02 
438	 4.91858603775848E-02 
439	 4.96610376130692E-02 
440	 4.93584734183714E-02 
441	 4.91561754179898E-02 
442	 4.92463472388393E-02 
443	 4.92302479891693E-02 
444	 0.049159926972082 
445	 4.90937467178303E-02 
446	 4.90671543363277E-02 
447	 0.049165042896656 
448	 4.96108625281299E-02 
449	 4.97171582087117E-02 
450	 0.049392937103874 
451	 0.049437080543679 
452	 4.97751817172796E-02 
453	 5.02503332918977E-02 
454	 5.02262324945918E-02 
455	 4.98570331837769E-02 
456	 4.99393823512827E-02 
457	 0.050048335159318 
458	 5.00756636629221E-02 
459	 5.04282247285132E-02 
460	 5.06092267475484E-02 
461	 5.00278977313299E-02 
462	 4.96179910613365E-02 
463	 4.95743311093101E-02 
464	 4.97237195793982E-02 
465	 5.00367333361609E-02 
466	 5.03939956104102E-02 
467	 5.02370032856866E-02 
468	 4.98898638469569E-02 
469	 4.99099996497362E-02 
470	 5.01923216640636E-02 
471	 5.05630205864021E-02 
472	 5.05182607167913E-02 
473	 5.03876752880509E-02 
474	 5.04044533434382E-02 
475	 5.06968338180866E-02 
476	 5.08147262596896E-02 
477	 4.99137435769312E-02 
478	 4.95386148256109E-02 
479	 4.99109620548778E-02 
480	 4.98169961476671E-02 
481	 4.97571117385634E-02 
482	 5.01181768696062E-02 
483	 5.02229720036662E-02 
484	 5.02242489668272E-02 
485	 0.050824885147175 
486	 5.10711711178081E-02 
487	 5.06953190659933E-02 
488	 5.02823926775736E-02 
489	 5.01339664808404E-02 
490	 0.050468227731353 
491	 5.06276592678303E-02 
492	 5.05750962418942E-02 
493	 5.06457993044953E-02 
494	 5.04604758129388E-02 
495	 5.00394806761308E-02 
496	 5.04909852474018E-02 
497	 5.12325571502468E-02 
498	 5.13905986334873E-02 
499	 5.16210174494314E-02 
500	 5.20082350201801E-02 
501	 5.23711374258096E-02 
502	 5.24270969431701E-02 
503	 5.21103426228333E-02 
504	 5.22588695341935E-02 
505	 0.052812328881157 
506	 5.35136869516184E-02 
507	 5.37451392114497E-02 
508	 5.35855467170868E-02 
509	 5.41510084816366E-02 
510	 5.49252832002257E-02 
511	 5.54816324439793E-02 
512	 5.61615729604593E-02 
513	 5.68688386463989E-02 
514	 5.72391964499529E-02 
515	 5.77806692207484E-02 
516	 5.86030569816096E-02 
517	 5.92150250484335E-02 
518	 5.97154257782142E-02 
519	 6.02494685561904E-02 
520	 6.08726664415748E-02 
521	 6.14923212256136E-02 
522	 6.17611254638657E-02 
523	 6.23674971054446E-02 
524	 6.35085701048012E-02 
525	 6.42091211738051E-02 
526	 6.46096062686378E-02 
527	 6.50582641941641E-02 
528	 6.54081106242868E-02 
529	 6.57067541896173E-02 
530	 6.62322980831935E-02 
531	 6.66073511708118E-02 
532	 6.66523394122411E-02 
533	 6.71474662728694E-02 
534	 6.78752723081172E-02 
535	 6.81839451140016E-02 
536	 6.85176381262466E-02 
537	 6.89953081554167E-02 
538	 6.95748706115786E-02 
539	 6.98700747250153E-02 
540	 6.95643141855518E-02 
541	 6.96878847335253E-02 
542	 7.02315758591172E-02 
543	 7.06020307015935E-02 
544	 0.070851590039205 
545	 7.10275265782341E-02 
546	 7.14179785414541E-02 
547	 7.18254575149079E-02 
548	 0.071961006833075 
549	 7.19305413687436E-02 
550	 0.071900749062065 
551	 7.23465682414805E-02 
552	 7.26755922866194E-02 
553	 7.25692440538509E-02 
554	 7.27517569380667E-02 
555	 7.31112288074306E-02 
556	 7.32652077354095E-02 
557	 7.32799311752723E-02 
558	 7.31799819257748E-02 
559	 7.30270279646097E-02 
560	 7.29125279107179E-02 
561	 7.29166470686627E-02 
562	 7.30216240018378E-02 
563	 7.31397689911936E-02 
564	 7.30904347547386E-02 
565	 7.29165020969586E-02 
566	 7.26369093181221E-02 
567	 7.22660577730714E-02 
568	 7.19408920523248E-02 
569	 7.18247810607098E-02 
570	 7.16078414933521E-02 
571	 7.13311508725258E-02 
572	 7.14748639576338E-02 
573	 7.13049765246118E-02 
574	 7.04916493960295E-02 
575	 7.02650949688231E-02 
576	 7.04771990173623E-02 
577	 7.05444923929152E-02 
578	 0.070574202968365 
579	 7.04916483217257E-02 
580	 0.069993977799482 
581	 6.93821037958128E-02 
582	 6.89614525091685E-02 
583	 6.90138184911097E-02 
584	 6.92956972884881E-02 
585	 6.90635146625836E-02 
586	 6.87810398314181E-02 
587	 6.86384889065323E-02 
588	 6.86560375353281E-02 
589	 6.86670002645565E-02 
590	 6.84533058343648E-02 
591	 0.06801792780541 
592	 6.76323842172121E-02 
593	 6.81721316247464E-02 
594	 6.83989629213149E-02 
595	 6.77127501543567E-02 
596	 6.76188793052408E-02 
597	 6.78984679445651E-02 
598	 6.78123469714053E-02 
599	 6.77057799173446E-02 
600	 6.76490079137244E-02 
601	 6.75648590409304E-02 
602	 6.74013596053898E-02 
603	 6.71356561128261E-02 
604	 6.70293314971155E-02 
605	 6.70653455937316E-02 
606	 6.70975185099541E-02 
607	 0.067052638472533 
608	 0.066844807546462 
609	 0.06621410951993 
610	 6.57126869055894E-02 
611	 6.60358444932386E-02 
612	 6.59819184005072E-02 
613	 6.54690083108613E-02 
614	 6.52505273165502E-02 
615	 6.52638253978112E-02 
616	 0.065401105766177 
617	 6.50118359219096E-02 
618	 6.45130079233495E-02 
619	 0.064791551939477 
620	 6.48658716662669E-02 
621	 6.45818528491067E-02 
622	 6.46946241996128E-02 
623	 6.46086752286634E-02 
624	 6.38457036985151E-02 
625	 6.36769771477738E-02 
626	 6.39787109464289E-02 
627	 6.37287163514136E-02 
628	 6.37952445077689E-02 
629	 6.42959321079514E-02 
630	 0.063849006465569 
631	 6.32585137015472E-02 
632	 6.36410288923191E-02 
633	 6.38908650007746E-02 
634	 6.38181624220961E-02 
635	 6.37648038331532E-02 
636	 6.35071114671183E-02 
637	 6.29487809883532E-02 
638	 6.23628223589039E-02 
639	 6.19091333494815E-02 
640	 6.18141782230067E-02 
641	 6.14969434131014E-02 
642	 6.08790848015579E-02 
643	 6.04998143916303E-02 
644	 6.01565973607783E-02 
645	 5.96552419265378E-02 
646	 5.90978960426594E-02 
647	 5.85173266106956E-02 
648	 5.79083496164131E-02 
649	 5.75620154306754E-02 
650	 5.75251987074608E-02 
651	 5.72454143462435E-02 
652	 5.70863139004433E-02 
653	 0.05751908707017 
654	 5.71998179868948E-02 
655	 5.61735899565334E-02 
656	 5.58561183091879E-02 
657	 5.59652715399052E-02 
658	 5.62308617185633E-02 
659	 5.61799048917939E-02 
660	 5.57944186827439E-02 
661	 5.51275573677695E-02 
662	 5.45621592275177E-02 
663	 5.42578023567385E-02 
664	 5.42806315703647E-02 
665	 5.42134060846299E-02 
666	 5.37084756793137E-02 
667	 5.28906660552098E-02 
668	 5.22068403708228E-02 
669	 5.27014796116923E-02 
670	 0.053030189876244 
671	 5.27403750900569E-02 
672	 5.24139805177608E-02 
673	 5.22430608455884E-02 
674	 5.23859541779441E-02 
675	 5.25870441834834E-02 
676	 5.27861808258222E-02 
677	 5.30440384046307E-02 
678	 5.31605858113023E-02 
679	 5.31229763745503E-02 
680	 5.36493419507141E-02 
681	 5.44363009258764E-02 
682	 5.48654234555262E-02 
683	 5.54545343877584E-02 
684	 5.63567003420624E-02 
685	 5.76407602241458E-02 
686	 5.90138449896279E-02 
687	 0.060238507306681 
688	 6.21460306763684E-02 
689	 6.43685891520561E-02 
690	 6.61803378944746E-02 
691	 6.79272653151581E-02 
692	 6.98314601610199E-02 
693	 7.21138279195214E-02 
694	 7.48032365915835E-02 
695	 7.77635582493825E-02 
696	 8.01805426651832E-02 
697	 8.22648971883588E-02 
698	 8.50891691695567E-02 
699	 0.088234239725957 
700	 9.14183934566567E-02 
701	 9.43800318287947E-02 
702	 9.70893617662011E-02 
703	 9.95923676460449E-02 
704	 0.102214901071018 
705	 0.104978609082513 
706	 0.10757770312438 
707	 0.10986429117317 
708	 0.11180037491853 
709	 0.114096450432845 
710	 0.116421360433316 
711	 0.117950789614686 
712	 0.119712638115788 
713	 0.121898919382624 
714	 0.123906574195333 
715	 0.12566094652674 
716	 0.127217112775988 
717	 0.129057894219444 
718	 0.131105127644713 
719	 0.132372350895337 
720	 0.133729365305117 
721	 0.13526737888065 
722	 0.136199319117657 
723	 0.136940595464004 
724	 0.137883430552938 
725	 0.138775935300084 
726	 0.139697231743482 
727	 0.141323633062199 
728	 0.142547361873593 
729	 0.142932977169548 
730	 0.143813331602746 
731	 0.144794890740665 
732	 0.145137587107579 
733	 0.145559591177823 
734	 0.146087322536902 
735	 0.146094239832149 
736	 0.146392478063814 
737	 0.1474411295218 
738	 0.148299529632185 
739	 0.148728259639475 
740	 0.148496652069189 
741	 0.148963082127645 
742	 0.150190493040097 
743	 0.150508750219817 
744	 0.150398318478287 
745	 0.150342872437329 
746	 0.15045400309794 
747	 0.150856178537648 
748	 0.151854456598313 
749	 0.152314431790554 
750	 0.151985290565585 
751	 0.152013361571748 
752	 0.152547183314962 
753	 0.15358975070197 
754	 0.15387734841878 
755	 0.15349380591556 
756	 0.153496806803733 
757	 0.153412819642008 
758	 0.153201385905977 
759	 0.154241210600412 
760	 0.156733576912458 
761	 0.157912065065006 
762	 0.157823124174783 
763	 0.157293941933207 
764	 0.157449403761389 
765	 0.157584040910502 
766	 0.157465666182739 
767	 0.157231583920627 
768	 0.15700631593906 
769	 0.156901642844948 
770	 0.157223021493729 
771	 0.157853517102359 
772	 0.158081491913064 
773	 0.158280088589388 
774	 0.158682944685343 
775	 0.159067653682298 
776	 0.159311923264211 
777	 0.159239491882332 
778	 0.159386797042546 
779	 0.159827781205697 
780	 0.160106180883131 
781	 0.160265695498607 
782	 0.160386149814912 
783	 0.160902143202972 
784	 0.161406446872667 
785	 0.160851509854401 
786	 0.160570318951168 
787	 0.160917489437543 
788	 0.161185406507746 
789	 0.161471498117027 
790	 0.161882024903692 
791	 0.162298578527377 
792	 0.162699939193134 
793	 0.163183771055004 
794	 0.16310605127053 
795	 0.162502066957295 
796	 0.162820127611754 
797	 0.163314498285784 
798	 0.163180703246304 
799	 0.163075887392328 
800	 0.163172666449327 
801	 0.163602682977925 
802	 0.163994683017514 
803	 0.164200926271615 
804	 0.164394312665786 
805	 0.164558151793354 
806	 0.164683729708593 
807	 0.165297016687437 
808	 0.166057638943713 
809	 0.165623567742171 
810	 0.165433704726185 
811	 0.166065683437018 
812	 0.166770371637981 
813	 0.167411709443669 
814	 0.167871405839505 
815	 0.16793382283049 
816	 0.167888046469455 
817	 0.168890801179757 
818	 0.169406217990019 
819	 0.168926374232287 
820	 0.168724094805403 
821	 0.168659375807223 
822	 0.168483178712732 
823	 0.169481366717647 
824	 0.171013441731302 
825	 0.170638250102456 
826	 0.170220384870789 
827	 0.170486547357453 
828	 0.170765280433947 
829	 0.170979742928248 
830	 0.171093738508353 
831	 0.171041492574812 
832	 0.171003198368575 
833	 0.171596253589162 
834	 0.17169060200553 
835	 0.171056301087945 
836	 0.17138556037895 
837	 0.172054037281132 
838	 0.172212358315279 
839	 0.17228365411038 
840	 0.172521825128355 
841	 0.173571466486386 
842	 0.173795758164887 
843	 0.172749695397262 
844	 0.172381098670275 
845	 0.172441652029167 
846	 0.172470252882198 
847	 0.172998023203446 
848	 0.173596790983136 
849	 0.172651221185863 
850	 0.172538741379275 
851	 0.173976599475863 
852	 0.174854717254375 
853	 0.175122032244932 
854	 0.174956205524452 
855	 0.175241919064547 
856	 0.175639735895746 
857	 0.174728223393823 
858	 0.1742810811795 
859	 0.174655078840728 
860	 0.174367766482877 
861	 0.173692322680149 
862	 0.173067444404655 
863	 0.173841174483568 
864	 0.175282859131851 
865	 0.17497487507297 
866	 0.175621879000913 
867	 0.177400299423225 
868	 0.176734166447079 
869	 0.175880302605687 
870	 0.176699707365725 
871	 0.177539681810244 
872	 0.178109478843606 
873	 0.178348331652923 
874	 0.17874523972161 
875	 0.179216157581348 
876	 0.178685339165189 
877	 0.178461711295184 
878	 0.179318048176093 
879	 0.179346677190129 
880	 0.179104192131243 
881	 0.179924766688385 
882	 0.179990774281908 
883	 0.179368079797437 
884	 0.179993061900107 
885	 0.181012916536885 
886	 0.181782020258261 
887	 0.181465875237774 
888	 0.180932351537062 
889	 0.181425809364736 
890	 0.180927007005471 
891	 0.179735991232572 
892	 0.180126174098741 
893	 0.181442239683566 
894	 0.183120116737857 
895	 0.183538854410129 
896	 0.183205974867397 
897	 0.183016643181981 
898	 0.184294596073096 
899	 0.185904762152083 
900	 0.184244490265358 
901	 0.182943437797087 
902	 0.183127857446237 
903	 0.183672569944863 
904	 0.184667241274443 
905	 0.186038481824452 
906	 0.186463012615894 
907	 0.186035648180796 
908	 0.185321606437791 
909	 0.184214455375201 
910	 0.183433495190912 
911	 0.185535656474835 
912	 0.186939132531036 
913	 0.185816767174896 
914	 0.185233686880109 
915	 0.185519823463789 
916	 0.18655648943915 
917	 0.185875742112665 
918	 0.184138813229017 
919	 0.184371007085608 
920	 0.18582967790116 
921	 0.187579164542012 
922	 0.186401354963936 
923	 0.184884601044641 
924	 0.185369712626851 
925	 0.185599088763179 
926	 0.185012384165371 
927	 0.183116165157105 
928	 0.182857298650034 
929	 0.184676007132758 
930	 0.184731004352376 
931	 0.182516164803419 
932	 0.178507382562098 
933	 0.180578378227098 
934	 0.185640290055739 
935	 0.186789870977035 
936	 0.186940729281618 
937	 0.186216645354 
938	 0.183716129339492 
939	 0.179427346748994 
940	 0.17542107147969 
941	 0.179491562325835 
942	 0.185380429190042 
943	 0.187937193280615 
944	 0.184370960887285 
945	 0.178880012292463 
946	 0.179062934444157 
947	 0.175042894904823 
948	 0.168120187719875 
949	 0.169468205230392 
950	 0.176735343717943 
951	 0.185105960528509 
952	 0.177179436936504 
953	 0.167585541339805 
954	 0.169892977922734 
955	 0.170247757290213 
956	 0.168919778854479 
957	 0.1704330645332 
958	 0.170240323324382 
959	 0.168579119008277 
960	 0.169769219328441 
961	 0.172775084695687 
962	 0.17606443438333 
963	 0.17541684364335 
964	 0.170977919424502 
965	 0.163758795055845 
966	 0.157749774592022 
967	 0.157188385069484 
968	 0.168973934987222 
969	 0.173975935488812 
970	 0.169846989482462 
971	 0.169195647197922 
972	 0.170074818328749 
973	 0.170941355362427 
974	 0.168891773448888 
975	 0.16642802469748 
976	 0.166600867242314 
977	 0.166594503983997 
978	 0.167168316874358 
979	 0.171415661197193 
980	 0.170870035302606 
981	 0.165466312187101 
982	 0.164260202543989 
983	 0.165678266696449 
984	 0.168165974888137 
985	 0.168402432711893 
986	 0.166934753106013 
987	 0.165048891397263 
988	 0.167415663283288 
989	 0.171375706049689 
990	 0.169799581365421 
991	 0.170578433168434 
992	 0.174138179790141 
993	 0.173599953262946 
994	 0.172630355332745 
995	 0.172657262396211 
996	 0.170147573166302 
997	 0.169063842142068 
998	 0.173040646836399 
999	 0.177418545941634 
1000	 0.179204259529939 
1001	 0.175009135808877 
1002	 0.167907950198447 
1003	 0.162313440371022 
1004	 0.168904055219875 
1005	 0.177908832342153 
1006	 0.183411882212656 
1007	 0.180791931372271 
1008	 0.177617961346835 
1009	 0.179600892037363 
1010	 0.178137128512485 
1011	 0.178830621436859 
1012	 0.189787924944053 
1013	 0.19073470685987 
1014	 0.184047087477167 
1015	 0.186949879207716 
1016	 0.18796436906958 
1017	 0.184540676786487 
1018	 0.180603969055364 
1019	 0.178852257178303 
1020	 0.180195279720895 
1021	 0.180346109818318 
1022	 0.178820594951903 
1023	 0.176339930721146 
1024	 0.182510394667516 
1025	 0.18975774955922 
1026	 0.183642606660114 
1027	 0.179183148953318 
1028	 0.179247322023956 
1029	 0.180711965732293 
1030	 0.182665344495958 
1031	 0.18470110800033 
1032	 0.188540623121359 
1033	 0.189229245230878 
1034	 0.183739972890696 
1035	 0.172010656945957 
1036	 0.171108963950019 
1037	 0.194989472399378 
1038	 0.203181215817132 
1039	 0.196237681716305 
1040	 0.188013635724483 
1041	 0.20111573707621 
1042	 0.221839669603347 
1043	 0.18776139551197 
1044	 0.1731620724639 
1045	 0.192286848630145 
1046	 0.182326708924191 
1047	 0.182148673369226 
1048	 0.206662505678038 
1049	 0.189012061089428 
1050	 0.172270785303606 
1051	 0.198009371783848 
1052	 0.200035844533852 
1053	 0.183736322531664 
1054	 0.174740352809789 
1055	 0.192870536968289 
1056	 0.220177390345624 
1057	 0.212338451083242 
1058	 0.184794578240309 
1059	 0.156987340358382 
1060	 0.18173714075381 
1061	 0.203798480680763 
1062	 0.199945435796892 
1063	 0.207763936855405 
1064	 0.205452534780201 
1065	 0.181956676446592 
1066	 0.187876782923652 
1067	 0.199393366867711 
1068	 0.186205010323556 
1069	 0.188292387411539 
1070	 0.205829672547536 
1071	 0.226104886926176 
1072	 0.215968193193495 
1073	 0.183117877467651 
1074	 0.172857101416008 
1075	 0.18944568896487 
