Wavelength	AVEI200204.asd
325	 4.24431897635137E-02 
326	 5.07966749548911E-02 
327	 5.21494757294061E-02 
328	 3.66584245770311E-02 
329	 2.86895791431011E-02 
330	 3.57824384184507E-02 
331	 4.51443722515524E-02 
332	 5.03020850175658E-02 
333	 4.64845551516714E-02 
334	 4.29708061538049E-02 
335	 4.17019333696939E-02 
336	 4.28247022426062E-02 
337	 4.32021054441072E-02 
338	 4.23402919155067E-02 
339	 4.35346995319934E-02 
340	 4.37533207801275E-02 
341	 4.08317098061045E-02 
342	 4.01804550254581E-02 
343	 4.12810181362701E-02 
344	 4.14457796980685E-02 
345	 4.28007502131955E-02 
346	 4.50116129603668E-02 
347	 4.53468794257671E-02 
348	 4.42932067932068E-02 
349	 4.24372951659729E-02 
350	 0.04056745060511 
351	 0.039804713851871 
352	 4.17776187505626E-02 
353	 4.18245766606048E-02 
354	 4.04987141001334E-02 
355	 4.49865835211979E-02 
356	 4.61954779648487E-02 
357	 4.00409828440236E-02 
358	 4.00449797092418E-02 
359	 4.36387930007887E-02 
360	 4.45281960563402E-02 
361	 4.50552158244381E-02 
362	 4.52100535692916E-02 
363	 4.34410000812887E-02 
364	 0.042057037005356 
365	 4.23321143595625E-02 
366	 4.36300846176374E-02 
367	 4.48540490346582E-02 
368	 4.47065073987461E-02 
369	 4.39423876388353E-02 
370	 4.35197715874013E-02 
371	 4.62486403797309E-02 
372	 4.70245925472327E-02 
373	 0.043841563775276 
374	 4.37743417743481E-02 
375	 4.50006162592927E-02 
376	 4.40268010497459E-02 
377	 4.26834443897165E-02 
378	 4.20252817283739E-02 
379	 4.40450548921397E-02 
380	 4.54547784037913E-02 
381	 4.48732052757446E-02 
382	 4.56759141288785E-02 
383	 4.61203440463379E-02 
384	 4.36082381231437E-02 
385	 4.27111773922933E-02 
386	 4.39186135033925E-02 
387	 4.51530242712504E-02 
388	 4.53177668837879E-02 
389	 4.40803421489983E-02 
390	 4.30672411988571E-02 
391	 4.22173949482908E-02 
392	 4.12772308697653E-02 
393	 4.25032014830829E-02 
394	 0.044985475042135 
395	 4.53669892132546E-02 
396	 4.35372306207313E-02 
397	 4.03500087421446E-02 
398	 4.02293920904345E-02 
399	 0.041645232503519 
400	 4.26087690242308E-02 
401	 4.23108627625546E-02 
402	 4.14903468451697E-02 
403	 0.042357552739439 
404	 0.043426565435395 
405	 4.40830900017981E-02 
406	 4.46368802583812E-02 
407	 4.46246472101638E-02 
408	 0.04350092314665 
409	 4.30803977396883E-02 
410	 4.34419044480254E-02 
411	 4.34818976158141E-02 
412	 4.35765820137091E-02 
413	 4.38030106948043E-02 
414	 4.34881061742806E-02 
415	 4.33853562290015E-02 
416	 4.45119669354885E-02 
417	 4.48591570585779E-02 
418	 4.44302480880961E-02 
419	 4.48767455477886E-02 
420	 4.49325348843463E-02 
421	 4.41351811060139E-02 
422	 4.42876847330768E-02 
423	 4.48754039957296E-02 
424	 4.48556108248427E-02 
425	 4.50916022096541E-02 
426	 0.045580114330013 
427	 4.55200722970507E-02 
428	 0.045614463475681 
429	 4.62072108901367E-02 
430	 4.62258443118297E-02 
431	 4.58300117699637E-02 
432	 4.55219233156764E-02 
433	 0.045335826192616 
434	 4.53202308867782E-02 
435	 4.55045912093834E-02 
436	 0.045726960062284 
437	 0.045890615479438 
438	 4.61825726692098E-02 
439	 4.64352172834243E-02 
440	 4.62823181206877E-02 
441	 4.62839615871158E-02 
442	 4.65947288256204E-02 
443	 4.70957837655629E-02 
444	 4.74282879735231E-02 
445	 4.73450419706063E-02 
446	 4.74215526895053E-02 
447	 4.75553220836591E-02 
448	 4.72232953741086E-02 
449	 4.73083333721392E-02 
450	 4.79439483214006E-02 
451	 4.81962179650002E-02 
452	 4.82788659710621E-02 
453	 4.84518575181262E-02 
454	 4.85500971269686E-02 
455	 4.85830219169267E-02 
456	 4.86378237504546E-02 
457	 0.048739082606746 
458	 4.88494048089188E-02 
459	 4.86050979426663E-02 
460	 0.048586530440449 
461	 4.94662387041305E-02 
462	 4.95506117930817E-02 
463	 4.88884526180585E-02 
464	 4.88703876362392E-02 
465	 4.90609676261674E-02 
466	 4.92565122283298E-02 
467	 4.95107339809928E-02 
468	 4.97551050031475E-02 
469	 4.99014503644901E-02 
470	 4.98194876918107E-02 
471	 4.95643100239568E-02 
472	 4.93980919108296E-02 
473	 4.94463254012962E-02 
474	 4.97322706879115E-02 
475	 4.97339709502978E-02 
476	 4.95936496274806E-02 
477	 4.96726162116616E-02 
478	 5.00170454070143E-02 
479	 5.04863626991841E-02 
480	 5.04372238970496E-02 
481	 5.03749499680147E-02 
482	 5.07043041564624E-02 
483	 5.10522545056433E-02 
484	 5.12303893242217E-02 
485	 5.09147002473418E-02 
486	 5.07545987670424E-02 
487	 0.050953653695417 
488	 5.11628849657119E-02 
489	 5.11049280808728E-02 
490	 5.05769579445706E-02 
491	 5.04812991769685E-02 
492	 5.08427929752353E-02 
493	 5.12347741742121E-02 
494	 5.15594527543326E-02 
495	 5.17031586482643E-02 
496	 5.14085953093533E-02 
497	 5.11850216180395E-02 
498	 5.17003126971275E-02 
499	 5.22529933079185E-02 
500	 5.26190435439007E-02 
501	 5.28062425799827E-02 
502	 5.25338076552567E-02 
503	 5.18150978051223E-02 
504	 5.20442914674315E-02 
505	 0.052744765706425 
506	 5.28097245581131E-02 
507	 5.30674915408414E-02 
508	 5.34922977564456E-02 
509	 5.30681784830928E-02 
510	 5.26947938006432E-02 
511	 5.30657186228325E-02 
512	 5.33485736827217E-02 
513	 5.34394721142813E-02 
514	 0.053351574421453 
515	 5.37800295220908E-02 
516	 5.47111813070315E-02 
517	 5.45791328061944E-02 
518	 5.40910854566717E-02 
519	 5.41320500384017E-02 
520	 5.42380177509836E-02 
521	 5.42964799059479E-02 
522	 5.41950111932238E-02 
523	 5.43078104836232E-02 
524	 5.47372581307781E-02 
525	 5.49092468916871E-02 
526	 5.49863818970669E-02 
527	 5.52962600167283E-02 
528	 5.51444689655585E-02 
529	 5.46873217199976E-02 
530	 0.055044191902621 
531	 5.55810003769758E-02 
532	 5.58316754352271E-02 
533	 5.56037361884553E-02 
534	 0.055299333859475 
535	 5.57861295358918E-02 
536	 5.60612839613768E-02 
537	 5.59082009608703E-02 
538	 5.58951311592715E-02 
539	 5.60538641086164E-02 
540	 5.63691352603309E-02 
541	 5.64880879681341E-02 
542	 5.64331146150944E-02 
543	 0.056454110845254 
544	 5.65806333291958E-02 
545	 5.68270257420586E-02 
546	 0.057147816501611 
547	 5.73779758569025E-02 
548	 5.73177427645859E-02 
549	 5.73278696160172E-02 
550	 0.057489370104049 
551	 5.77795784844801E-02 
552	 5.78101151086697E-02 
553	 5.74217515083388E-02 
554	 5.74826405933866E-02 
555	 0.057889703950095 
556	 5.82290984303776E-02 
557	 5.84557603470193E-02 
558	 5.85345333639014E-02 
559	 5.85038479015721E-02 
560	 5.84801200083238E-02 
561	 5.85794726740958E-02 
562	 5.89422990483605E-02 
563	 5.93603504846645E-02 
564	 5.92414922513344E-02 
565	 5.90982306977546E-02 
566	 5.91218339875064E-02 
567	 5.90870550681723E-02 
568	 5.90239794052062E-02 
569	 5.89928607007695E-02 
570	 5.91726507373767E-02 
571	 5.95019403223066E-02 
572	 5.96604576507938E-02 
573	 0.059607101201795 
574	 0.059384822275857 
575	 5.96090098346921E-02 
576	 5.99559445373477E-02 
577	 5.96735903460837E-02 
578	 5.94170004553663E-02 
579	 5.94040072219632E-02 
580	 5.95701848390246E-02 
581	 5.98857960784337E-02 
582	 6.02729905870649E-02 
583	 6.00623982494306E-02 
584	 5.95329032171471E-02 
585	 5.97098949966932E-02 
586	 5.99417155753257E-02 
587	 5.99823848423052E-02 
588	 0.059946705981595 
589	 0.059937222636609 
590	 6.00769219425374E-02 
591	 6.02714056395831E-02 
592	 6.04515697846379E-02 
593	 0.060529365921496 
594	 6.04605606317565E-02 
595	 6.02725804729408E-02 
596	 6.03970594628909E-02 
597	 0.060652143740513 
598	 6.06186577444192E-02 
599	 6.05780576986662E-02 
600	 6.05999969810422E-02 
601	 6.06216616441509E-02 
602	 6.06030580159932E-02 
603	 6.05271086175312E-02 
604	 6.06474968121659E-02 
605	 6.08390291525919E-02 
606	 6.06285321029719E-02 
607	 6.06411968419476E-02 
608	 6.10131240484893E-02 
609	 6.09405914165604E-02 
610	 6.06903681613385E-02 
611	 6.06876943575183E-02 
612	 6.07978234726981E-02 
613	 6.09939537263867E-02 
614	 6.13359837149933E-02 
615	 6.14049263495701E-02 
616	 6.09884063596855E-02 
617	 6.06202581676228E-02 
618	 6.04663912492377E-02 
619	 6.06569576010701E-02 
620	 6.08655801995666E-02 
621	 6.10020188443609E-02 
622	 0.061200720886485 
623	 6.14286322751438E-02 
624	 0.061622340968024 
625	 6.13622258576394E-02 
626	 6.09191423197948E-02 
627	 6.12133894376461E-02 
628	 6.13632397522923E-02 
629	 6.11179334393644E-02 
630	 6.12305408297761E-02 
631	 6.14780006945087E-02 
632	 6.15099439956094E-02 
633	 6.16715870924344E-02 
634	 6.19148776548908E-02 
635	 6.17968895342913E-02 
636	 6.18585343702099E-02 
637	 6.23047087346002E-02 
638	 6.20170762986059E-02 
639	 6.14464910654432E-02 
640	 6.16347179057286E-02 
641	 6.20220821394321E-02 
642	 6.23812292343611E-02 
643	 6.25826463962931E-02 
644	 6.24139129360223E-02 
645	 6.17850225988356E-02 
646	 6.20836973043599E-02 
647	 6.29213276098376E-02 
648	 6.25050087861281E-02 
649	 6.22374612298714E-02 
650	 6.25266556112458E-02 
651	 6.23807225923917E-02 
652	 6.20777193212514E-02 
653	 6.20364180890556E-02 
654	 0.06210933427227 
655	 6.22257573133081E-02 
656	 6.22772642080953E-02 
657	 6.21128741524382E-02 
658	 6.17205649879366E-02 
659	 6.15693582015322E-02 
660	 6.15849621195696E-02 
661	 6.15680068920986E-02 
662	 6.15097986861474E-02 
663	 6.13902739369066E-02 
664	 6.11313500331809E-02 
665	 6.11138334378089E-02 
666	 6.15826395125024E-02 
667	 6.15044902925353E-02 
668	 6.10243216761119E-02 
669	 6.09091966365845E-02 
670	 6.10790938697429E-02 
671	 6.13973723119233E-02 
672	 6.11419036341948E-02 
673	 6.07372993495955E-02 
674	 0.060734116310155 
675	 6.09138936431761E-02 
676	 6.12331674652677E-02 
677	 6.17844382360143E-02 
678	 0.061958873172618 
679	 6.15340312715041E-02 
680	 6.15122500798663E-02 
681	 6.18163212799019E-02 
682	 6.21171035072754E-02 
683	 6.24397351993173E-02 
684	 6.27338997735632E-02 
685	 6.28228519492546E-02 
686	 6.31405516571191E-02 
687	 6.39843029432225E-02 
688	 6.39031699358119E-02 
689	 6.33159787440802E-02 
690	 6.37486840064906E-02 
691	 6.42641487587553E-02 
692	 6.45707267794914E-02 
693	 6.46383511331607E-02 
694	 6.47550768117993E-02 
695	 6.51907158190746E-02 
696	 6.52292373022474E-02 
697	 6.50693079934859E-02 
698	 6.57043809791159E-02 
699	 6.59865039137866E-02 
700	 6.55159338642693E-02 
701	 6.56216515002173E-02 
702	 6.62337656148619E-02 
703	 6.70413182778515E-02 
704	 6.71191404592279E-02 
705	 6.65056012623818E-02 
706	 6.61236557660583E-02 
707	 0.066161414089336 
708	 6.66848432023201E-02 
709	 6.71002103736671E-02 
710	 6.72427422048638E-02 
711	 6.69606732803955E-02 
712	 6.70942001506062E-02 
713	 6.76700586309599E-02 
714	 6.74721986065359E-02 
715	 6.72189012511108E-02 
716	 6.75953009814541E-02 
717	 6.75831221539703E-02 
718	 6.73613853994813E-02 
719	 6.83981826418806E-02 
720	 6.86638468030382E-02 
721	 6.78368478141857E-02 
722	 6.79116241105657E-02 
723	 6.83353425443612E-02 
724	 0.068411986828924 
725	 6.83213589152979E-02 
726	 6.83072354801049E-02 
727	 6.90793712335246E-02 
728	 6.94595043919334E-02 
729	 6.90012069148481E-02 
730	 6.91266147907819E-02 
731	 6.94235590508796E-02 
732	 6.91255047911064E-02 
733	 6.89180510117978E-02 
734	 6.88852119753404E-02 
735	 6.87255761370442E-02 
736	 6.87800190028153E-02 
737	 6.92187760707538E-02 
738	 0.069410286536624 
739	 6.94323198289336E-02 
740	 6.96142876964748E-02 
741	 6.96969406006013E-02 
742	 6.96629781241053E-02 
743	 6.97403697797402E-02 
744	 6.99259841673207E-02 
745	 7.01703206415709E-02 
746	 6.99299414206331E-02 
747	 6.94712174279085E-02 
748	 0.069592151710789 
749	 7.01053445297005E-02 
750	 0.070776392794264 
751	 7.07085591414468E-02 
752	 7.04547374417311E-02 
753	 7.06562705648795E-02 
754	 7.07469010433604E-02 
755	 7.06945361329396E-02 
756	 7.07642388569386E-02 
757	 7.06247139134222E-02 
758	 0.070151843772828 
759	 6.97598477522541E-02 
760	 6.95705590189153E-02 
761	 7.00862874944757E-02 
762	 7.12629107579102E-02 
763	 7.22267870889607E-02 
764	 7.17651563477619E-02 
765	 7.15295822570021E-02 
766	 7.19250257172948E-02 
767	 7.18252867358216E-02 
768	 0.071689544673854 
769	 7.21426578330336E-02 
770	 0.072009719003892 
771	 7.14323206903107E-02 
772	 7.20684130468131E-02 
773	 0.072364021313375 
774	 0.071467474362519 
775	 7.15928967142506E-02 
776	 7.23532406604064E-02 
777	 7.24830566073597E-02 
778	 7.26727566954461E-02 
779	 7.29455908612274E-02 
780	 7.26027944221516E-02 
781	 7.23859914774207E-02 
782	 0.072841198682571 
783	 7.31328490470226E-02 
784	 7.30684630141792E-02 
785	 7.25076888129618E-02 
786	 0.072226409515055 
787	 7.25162414997564E-02 
788	 7.33470674571114E-02 
789	 7.36557210349375E-02 
790	 7.26104516602209E-02 
791	 7.28833850768587E-02 
792	 7.40634392146091E-02 
793	 7.39469891522152E-02 
794	 7.34665530920677E-02 
795	 0.073063207541587 
796	 7.33570853727888E-02 
797	 7.39277357386148E-02 
798	 7.42656751645657E-02 
799	 7.37809921758524E-02 
800	 7.28890983270938E-02 
801	 7.30023780568842E-02 
802	 0.073438493238639 
803	 7.38770352177478E-02 
804	 7.40233984580616E-02 
805	 7.41796996232823E-02 
806	 7.46771163560248E-02 
807	 7.50400337214898E-02 
808	 7.49488789459221E-02 
809	 7.36285467967768E-02 
810	 7.30282143703599E-02 
811	 0.073875770605407 
812	 7.43720733213054E-02 
813	 7.45457987834172E-02 
814	 7.46273946689655E-02 
815	 7.42424015631739E-02 
816	 7.38037720418041E-02 
817	 7.47584392042454E-02 
818	 7.60814481245116E-02 
819	 7.68942875110307E-02 
820	 7.52934969913522E-02 
821	 7.36906562806384E-02 
822	 7.50036007601959E-02 
823	 7.62530862937692E-02 
824	 7.65861562618575E-02 
825	 7.58050355328868E-02 
826	 7.51778709627618E-02 
827	 7.51667271332684E-02 
828	 7.47642950977757E-02 
829	 7.45999607295581E-02 
830	 7.54804383520378E-02 
831	 0.075698874263507 
832	 7.54034381521883E-02 
833	 7.63000481797428E-02 
834	 7.64594571691353E-02 
835	 7.53316844683216E-02 
836	 7.46763879784107E-02 
837	 7.47460862235945E-02 
838	 7.55988931998916E-02 
839	 7.61156843713802E-02 
840	 0.076099571466468 
841	 7.57388739842054E-02 
842	 7.57004275172836E-02 
843	 7.61636986332334E-02 
844	 7.62261787746513E-02 
845	 7.59530580621753E-02 
846	 7.55116827063505E-02 
847	 7.48616444386936E-02 
848	 7.45514176614509E-02 
849	 7.63199542166271E-02 
850	 7.67488021202737E-02 
851	 0.074947313591128 
852	 7.48794454235117E-02 
853	 7.57812572699857E-02 
854	 7.64567872671519E-02 
855	 7.70063566451152E-02 
856	 7.73648076614014E-02 
857	 7.75816586857603E-02 
858	 7.69627365032373E-02 
859	 7.57091143843369E-02 
860	 7.60121417495418E-02 
861	 7.65502226284671E-02 
862	 7.60362003968748E-02 
863	 7.61350009557431E-02 
864	 7.66332680475012E-02 
865	 7.62422277399945E-02 
866	 7.65576240290676E-02 
867	 7.76181552371029E-02 
868	 7.69880324360412E-02 
869	 7.64139778942954E-02 
870	 7.71942159984853E-02 
871	 7.66412843925232E-02 
872	 7.54020325522174E-02 
873	 7.54550621589812E-02 
874	 7.62515462988557E-02 
875	 7.73108368101307E-02 
876	 7.73695820888146E-02 
877	 7.72759590941166E-02 
878	 7.74887446516148E-02 
879	 7.63086215136007E-02 
880	 0.074924566528972 
881	 7.55677460206136E-02 
882	 7.61723659598382E-02 
883	 7.64733294910293E-02 
884	 7.77569827806965E-02 
885	 7.83181753621114E-02 
886	 7.74141206350687E-02 
887	 7.70025218439329E-02 
888	 7.72511387514657E-02 
889	 7.80387730007023E-02 
890	 7.82431332463525E-02 
891	 7.78802326081268E-02 
892	 7.80163241903929E-02 
893	 7.80898504697631E-02 
894	 7.78735447217759E-02 
895	 7.74204079903815E-02 
896	 0.077811266060997 
897	 0.080091543395431 
898	 8.03067365542939E-02 
899	 7.88242821632212E-02 
900	 7.90336020290778E-02 
901	 7.84258548713563E-02 
902	 7.68134881299334E-02 
903	 0.076733620577787 
904	 7.74458381983961E-02 
905	 7.81455066342419E-02 
906	 0.077461173558361 
907	 7.66114165608202E-02 
908	 7.81869670846408E-02 
909	 7.85752700686715E-02 
910	 0.077475669637086 
911	 7.82617462014352E-02 
912	 7.87956366241682E-02 
913	 7.82438688806767E-02 
914	 7.99601875869119E-02 
915	 0.081472412067264 
916	 7.96155964477599E-02 
917	 7.85742010877299E-02 
918	 7.83971681372303E-02 
919	 7.65269345175192E-02 
920	 7.53641249829852E-02 
921	 7.59865745736702E-02 
922	 7.93373048228147E-02 
923	 8.21860504834434E-02 
924	 8.15489290149903E-02 
925	 7.81077580156976E-02 
926	 7.48293727748994E-02 
927	 7.82503871487108E-02 
928	 8.05066989691982E-02 
929	 7.94436149909429E-02 
930	 8.02624953244358E-02 
931	 8.11417527872462E-02 
932	 8.02362174612791E-02 
933	 7.52397299581581E-02 
934	 7.36704630752661E-02 
935	 8.61570611038435E-02 
936	 8.48942406197436E-02 
937	 7.23445252173047E-02 
938	 7.23400410707401E-02 
939	 7.70217406857519E-02 
940	 8.19521589878583E-02 
941	 7.85118074999148E-02 
942	 7.45856945509707E-02 
943	 7.55537294065987E-02 
944	 7.31404211946066E-02 
945	 7.12428253893222E-02 
946	 7.77297211608788E-02 
947	 7.68207312628674E-02 
948	 6.89189975208139E-02 
949	 6.90743419127682E-02 
950	 7.07628689521147E-02 
951	 7.23293068692409E-02 
952	 8.15166319505758E-02 
953	 8.41397267989274E-02 
954	 6.90941373551879E-02 
955	 6.25019934296559E-02 
956	 6.79043602427541E-02 
957	 8.34809399429595E-02 
958	 8.63666586331334E-02 
959	 0.077212360518687 
960	 8.10927661172023E-02 
961	 8.29721300116655E-02 
962	 7.72278516123951E-02 
963	 7.32967552745155E-02 
964	 7.10891497841204E-02 
965	 7.02026856652761E-02 
966	 7.62859666582065E-02 
967	 8.32071046326487E-02 
968	 7.76394692243154E-02 
969	 7.70292116709556E-02 
970	 0.082739598354267 
971	 8.13876830608644E-02 
972	 7.86173226911926E-02 
973	 7.81197070344163E-02 
974	 8.20399935147878E-02 
975	 8.48668206579034E-02 
976	 8.08176820047934E-02 
977	 7.82174254133926E-02 
978	 7.82387990182047E-02 
979	 7.99744901154207E-02 
980	 7.70045577963725E-02 
981	 0.071328860983712 
982	 0.077938671083022 
983	 8.30752234717594E-02 
984	 8.00163164646217E-02 
985	 7.61880587965632E-02 
986	 7.61529073578901E-02 
987	 8.30994870849217E-02 
988	 8.32460474436714E-02 
989	 7.95580776455542E-02 
990	 8.31331449483113E-02 
991	 8.34137957581712E-02 
992	 8.00121687394371E-02 
993	 8.28290144866257E-02 
994	 0.083976309423282 
995	 8.06891557273921E-02 
996	 8.18169449739942E-02 
997	 8.16117248394825E-02 
998	 7.49151364291256E-02 
999	 0.075729250679484 
1000	 8.01352706418188E-02 
1001	 7.71714720866387E-02 
1002	 7.60133522216352E-02 
1003	 7.80998444548469E-02 
1004	 8.11247728099917E-02 
1005	 7.97959767594368E-02 
1006	 7.41636962446782E-02 
1007	 0.077294626421815 
1008	 7.84119199903602E-02 
1009	 0.070856242593489 
1010	 7.65608632492935E-02 
1011	 8.62837665170713E-02 
1012	 8.42516927147227E-02 
1013	 7.67085091466244E-02 
1014	 7.16583780974104E-02 
1015	 8.61941433076905E-02 
1016	 9.19645126097635E-02 
1017	 8.41904948476945E-02 
1018	 8.15538273032112E-02 
1019	 8.09755329294862E-02 
1020	 8.10041219524231E-02 
1021	 8.31626465314508E-02 
1022	 8.62672517983563E-02 
1023	 8.88467861808027E-02 
1024	 8.88501404630437E-02 
1025	 8.28796531760023E-02 
1026	 6.64149944131335E-02 
1027	 6.50531172752922E-02 
1028	 7.61181253515246E-02 
1029	 6.98549298018568E-02 
1030	 6.69458964304227E-02 
1031	 7.43234872444926E-02 
1032	 0.091501340352343 
1033	 0.101075991499451 
1034	 9.31764129616579E-02 
1035	 8.42740829998858E-02 
1036	 7.96066759126396E-02 
1037	 8.22863890938376E-02 
1038	 8.23982378307303E-02 
1039	 8.07270543159209E-02 
1040	 8.16636151240195E-02 
1041	 7.94855395206587E-02 
1042	 7.40326133858247E-02 
1043	 6.77027075600037E-02 
1044	 0.066079494786692 
1045	 7.00534702167425E-02 
1046	 6.90278158216639E-02 
1047	 8.24198051449854E-02 
1048	 0.111290017648728 
1049	 9.99102469510872E-02 
1050	 7.61020465664302E-02 
1051	 7.38247648391344E-02 
1052	 8.26424561172628E-02 
1053	 9.62529033401758E-02 
1054	 0.105332925017045 
1055	 9.08101847433529E-02 
1056	 0.067083748997894 
1057	 0.083463595084372 
1058	 9.36816974642277E-02 
1059	 8.98727261376887E-02 
1060	 9.82181294985763E-02 
1061	 9.48003035971907E-02 
1062	 7.39760012734531E-02 
1063	 7.01756939536504E-02 
1064	 8.10261642673853E-02 
1065	 0.097970990739982 
1066	 9.36074570804388E-02 
1067	 0.08642297103382 
1068	 9.63288491724646E-02 
1069	 8.97712884497143E-02 
1070	 6.10906041396577E-02 
1071	 1.35102346511182E-02 
1072	 2.98624005974246E-02 
1073	 8.36440780326841E-02 
1074	 5.53340628808408E-02 
1075	 7.61713882332064E-02 
