Wavelength	AVEI200119.asd
325	 3.81113464102458E-02 
326	 3.41468030153621E-02 
327	 2.59761652567011E-02 
328	 0.028684351243831 
329	 3.42089462411105E-02 
330	 3.85588073770214E-02 
331	 3.96866377085581E-02 
332	 0.037680302724096 
333	 3.30571839927296E-02 
334	 3.11755970433855E-02 
335	 3.15829325582208E-02 
336	 3.09784350474083E-02 
337	 2.92670981425175E-02 
338	 2.77915233217612E-02 
339	 3.32562899034206E-02 
340	 3.77967077729765E-02 
341	 3.55126343246306E-02 
342	 3.37040386327841E-02 
343	 0.033277639184952 
344	 3.35648099078268E-02 
345	 3.40811042589568E-02 
346	 3.42128535184665E-02 
347	 3.24208761487522E-02 
348	 3.08940540004728E-02 
349	 3.10925567018633E-02 
350	 3.23108315939705E-02 
351	 3.29766614052199E-02 
352	 3.07500427256798E-02 
353	 3.02756753485655E-02 
354	 0.031969413429336 
355	 3.29937474502703E-02 
356	 3.29477360296727E-02 
357	 3.18985107763265E-02 
358	 3.22501907393119E-02 
359	 3.28807331190312E-02 
360	 3.17031392686638E-02 
361	 3.09223121427283E-02 
362	 3.07492668000311E-02 
363	 2.96986371057526E-02 
364	 3.00319855303108E-02 
365	 0.032331667151081 
366	 3.23657963556873E-02 
367	 3.11312510924364E-02 
368	 3.05124029922541E-02 
369	 3.01715499441781E-02 
370	 3.01427400256473E-02 
371	 3.05844577949098E-02 
372	 3.12451384103644E-02 
373	 3.16571573111645E-02 
374	 2.97484178001129E-02 
375	 2.76847792270734E-02 
376	 2.85881265630097E-02 
377	 2.92061892806973E-02 
378	 2.87499272924659E-02 
379	 2.72585452086772E-02 
380	 2.64054975438451E-02 
381	 2.71659867310926E-02 
382	 2.94617013642077E-02 
383	 3.18526610290354E-02 
384	 3.25751525167236E-02 
385	 3.14959622971393E-02 
386	 2.95557172875717E-02 
387	 0.029608513072907 
388	 3.01344556844229E-02 
389	 3.01992473432794E-02 
390	 2.87720858585403E-02 
391	 2.74131013035754E-02 
392	 2.79403866733361E-02 
393	 2.89628220166047E-02 
394	 2.96437739051761E-02 
395	 2.85631271483228E-02 
396	 2.78604630769456E-02 
397	 2.82460867354198E-02 
398	 0.028065347182465 
399	 2.77273240668033E-02 
400	 2.77766986538177E-02 
401	 2.77710423630198E-02 
402	 2.76889819649188E-02 
403	 2.76853490683521E-02 
404	 2.76789783111491E-02 
405	 2.75811228811378E-02 
406	 2.69950654274711E-02 
407	 2.66192744601807E-02 
408	 2.73110675182408E-02 
409	 2.75588361526504E-02 
410	 2.72103026941612E-02 
411	 2.68410786294207E-02 
412	 2.66789636070474E-02 
413	 2.68067359186304E-02 
414	 2.69178585631481E-02 
415	 2.69324380961985E-02 
416	 2.67999269385815E-02 
417	 2.66486379479414E-02 
418	 2.65734603142456E-02 
419	 2.67390222769266E-02 
420	 0.02694794204697 
421	 2.70671211131078E-02 
422	 2.69859180581498E-02 
423	 0.026961850494726 
424	 2.73974052975552E-02 
425	 2.71398757990272E-02 
426	 2.63460639929669E-02 
427	 2.66525461300965E-02 
428	 2.71145890341458E-02 
429	 2.71369748803961E-02 
430	 0.027263163259051 
431	 2.73405248616368E-02 
432	 2.70074841404804E-02 
433	 2.69102859451032E-02 
434	 0.026992655110296 
435	 2.62824170858833E-02 
436	 0.02591726051331 
437	 2.65344165850283E-02 
438	 2.66945302454032E-02 
439	 2.64773948284439E-02 
440	 2.63990918618245E-02 
441	 2.64923703080214E-02 
442	 0.026707989075984 
443	 2.67581054833554E-02 
444	 2.65910618386249E-02 
445	 2.62270665649396E-02 
446	 2.62440336308759E-02 
447	 2.65601977533349E-02 
448	 2.67976399306597E-02 
449	 2.68735859662977E-02 
450	 2.67864843601025E-02 
451	 2.67758649031439E-02 
452	 0.026843298223308 
453	 2.69685370934047E-02 
454	 2.70395951375849E-02 
455	 2.70342025796969E-02 
456	 2.69417797862649E-02 
457	 2.69756266387315E-02 
458	 0.027171054578184 
459	 2.71399001116782E-02 
460	 2.70692159899866E-02 
461	 2.72106358694336E-02 
462	 2.72404812238506E-02 
463	 2.71122569218856E-02 
464	 2.68782657022401E-02 
465	 2.68672412824626E-02 
466	 2.71417920811253E-02 
467	 0.026772544631183 
468	 2.62894869339491E-02 
469	 2.66028890157726E-02 
470	 2.71463524282431E-02 
471	 2.75959849988292E-02 
472	 2.74243837550156E-02 
473	 2.71836631852978E-02 
474	 2.72043287820937E-02 
475	 2.70698551133465E-02 
476	 0.02674184384612 
477	 2.61936189650647E-02 
478	 2.63286274724526E-02 
479	 2.70588427647218E-02 
480	 2.68335105482593E-02 
481	 2.64518491456857E-02 
482	 2.65937367564915E-02 
483	 2.69915907783812E-02 
484	 2.73705497126892E-02 
485	 2.71432637258183E-02 
486	 2.71645337583921E-02 
487	 2.75794506656153E-02 
488	 2.73402772085158E-02 
489	 2.70835253734702E-02 
490	 2.74787975986145E-02 
491	 2.74851746498935E-02 
492	 0.02715837764969 
493	 2.72012220034654E-02 
494	 2.72590195623414E-02 
495	 2.72146640270056E-02 
496	 2.72524484204464E-02 
497	 2.74257887955485E-02 
498	 2.77813101165934E-02 
499	 2.79252220643068E-02 
500	 0.027913737875203 
501	 2.83323198333302E-02 
502	 2.86483768603396E-02 
503	 2.85707645349453E-02 
504	 2.84927679379673E-02 
505	 2.86338682711191E-02 
506	 2.92743910761667E-02 
507	 2.97147747162584E-02 
508	 2.97759404744557E-02 
509	 0.029636753504114 
510	 2.96546405316519E-02 
511	 3.00918568463756E-02 
512	 0.030594917427858 
513	 3.10333439597698E-02 
514	 3.12578862067213E-02 
515	 3.15300688145825E-02 
516	 3.19241904520504E-02 
517	 0.032286335817195 
518	 3.25245300889646E-02 
519	 0.032578635425194 
520	 3.31376814723393E-02 
521	 3.41101119349004E-02 
522	 3.49526147783536E-02 
523	 3.54381734523232E-02 
524	 3.55344000547545E-02 
525	 3.58679888130727E-02 
526	 3.63743072479881E-02 
527	 3.68586836871578E-02 
528	 0.03712933736499 
529	 0.037253861323911 
530	 3.76439117481484E-02 
531	 3.82024131670891E-02 
532	 3.88234191480603E-02 
533	 3.91711182681803E-02 
534	 3.93389920483643E-02 
535	 0.039623891106506 
536	 3.98025025356652E-02 
537	 3.98801423636554E-02 
538	 4.01681187822765E-02 
539	 4.05095872523311E-02 
540	 4.07356643192554E-02 
541	 0.040874519417047 
542	 0.040965837694655 
543	 4.10941621818325E-02 
544	 4.12703602477381E-02 
545	 0.041489125694451 
546	 4.16495465942388E-02 
547	 4.18402098841362E-02 
548	 4.21871737395891E-02 
549	 4.22814198121016E-02 
550	 0.042134970468416 
551	 4.21215562732452E-02 
552	 4.22779063251517E-02 
553	 4.25971759503152E-02 
554	 4.27947459567535E-02 
555	 0.042845478176732 
556	 4.27707394523089E-02 
557	 0.042896809055486 
558	 4.32111593367059E-02 
559	 4.31005056050039E-02 
560	 4.29342220538322E-02 
561	 4.30566748870613E-02 
562	 4.30483470544959E-02 
563	 4.29128873904498E-02 
564	 4.28391204544792E-02 
565	 4.29058930321746E-02 
566	 4.30428535645563E-02 
567	 4.25710040563664E-02 
568	 0.042036348757118 
569	 4.22015141431667E-02 
570	 4.20230855658333E-02 
571	 4.14753456591442E-02 
572	 4.13846312768735E-02 
573	 4.13353346129944E-02 
574	 4.11084915630991E-02 
575	 4.11256046873765E-02 
576	 4.11641840022196E-02 
577	 4.07042655084877E-02 
578	 4.05118000815078E-02 
579	 4.07057812057896E-02 
580	 4.06558129333488E-02 
581	 4.05400550585164E-02 
582	 4.05205051655098E-02 
583	 4.03326582272129E-02 
584	 4.00593018018896E-02 
585	 4.00255976268613E-02 
586	 3.99853108199884E-02 
587	 3.98744922067747E-02 
588	 3.99684953168295E-02 
589	 0.039975393080799 
590	 3.94969047046496E-02 
591	 3.91567365445562E-02 
592	 3.90870428647627E-02 
593	 0.039126359123861 
594	 3.92275772752349E-02 
595	 3.93135905806092E-02 
596	 0.039087676810454 
597	 3.87573167462343E-02 
598	 3.87421357592742E-02 
599	 3.87976526797207E-02 
600	 3.88528308332781E-02 
601	 3.89368202134038E-02 
602	 3.89552087469755E-02 
603	 3.88434219796844E-02 
604	 3.88711139040021E-02 
605	 3.89948810136439E-02 
606	 3.90223841799113E-02 
607	 3.87908814626368E-02 
608	 0.038324864871697 
609	 3.82537752759575E-02 
610	 3.83031720466325E-02 
611	 3.80564350373821E-02 
612	 3.78403981363383E-02 
613	 3.76910018002695E-02 
614	 3.74304654294017E-02 
615	 3.73292085119427E-02 
616	 3.75066730736982E-02 
617	 0.037529469097332 
618	 3.73427624299756E-02 
619	 3.69449073203029E-02 
620	 3.68056200641609E-02 
621	 0.036956858222134 
622	 3.68359156262126E-02 
623	 3.65912906604251E-02 
624	 3.64022719460776E-02 
625	 3.66358354759138E-02 
626	 3.70339229106604E-02 
627	 3.67389150788231E-02 
628	 3.64652886453787E-02 
629	 3.65088730975454E-02 
630	 3.67833848760285E-02 
631	 3.70396683948671E-02 
632	 0.036984835395547 
633	 3.70986254164305E-02 
634	 3.73040043552458E-02 
635	 3.69790584607738E-02 
636	 3.65893478069214E-02 
637	 3.63956582090924E-02 
638	 3.60576228162069E-02 
639	 3.57157287013313E-02 
640	 3.57083694263881E-02 
641	 3.54714361498774E-02 
642	 3.49427955664716E-02 
643	 3.46883358146978E-02 
644	 3.44069999687777E-02 
645	 3.38498091737081E-02 
646	 0.033606888409811 
647	 3.36283070347132E-02 
648	 3.35164585420585E-02 
649	 3.32154872335561E-02 
650	 3.28104503548614E-02 
651	 3.29944320619938E-02 
652	 3.32913636071847E-02 
653	 3.30779254535953E-02 
654	 3.28291640020707E-02 
655	 3.26526278631837E-02 
656	 3.25263714382545E-02 
657	 3.25159788216923E-02 
658	 3.25959621627154E-02 
659	 3.23558021885358E-02 
660	 3.19680399121724E-02 
661	 3.17640623798247E-02 
662	 3.17357349383159E-02 
663	 3.17836769385635E-02 
664	 3.15062025382643E-02 
665	 3.10673220149128E-02 
666	 0.030653213087788 
667	 3.06857997397539E-02 
668	 3.08861831000918E-02 
669	 3.03439807118566E-02 
670	 3.00284256406657E-02 
671	 3.01935419496925E-02 
672	 3.00946069311239E-02 
673	 2.99703442685511E-02 
674	 3.01518395347512E-02 
675	 3.03891917465571E-02 
676	 0.030597311435065 
677	 3.07299019444059E-02 
678	 3.07461302447839E-02 
679	 3.06854240049391E-02 
680	 3.09759610420967E-02 
681	 3.14245176646378E-02 
682	 3.16434723597903E-02 
683	 3.18636147863083E-02 
684	 3.22654986398706E-02 
685	 3.33529345180375E-02 
686	 3.44535678392297E-02 
687	 0.034983658776916 
688	 3.58331750205105E-02 
689	 3.70959366767427E-02 
690	 3.87720093764883E-02 
691	 0.040199343616275 
692	 4.13818188644431E-02 
693	 4.32592504120345E-02 
694	 4.55825915582036E-02 
695	 4.79107394515728E-02 
696	 4.99516015043694E-02 
697	 5.18725801866722E-02 
698	 5.43632907989978E-02 
699	 5.72308429024454E-02 
700	 6.02565656109248E-02 
701	 6.28411540323057E-02 
702	 6.52495387915601E-02 
703	 0.067957448150883 
704	 7.08285684862757E-02 
705	 7.37394378752197E-02 
706	 7.63004105896226E-02 
707	 7.86237154534948E-02 
708	 8.08497321349053E-02 
709	 8.35553910511401E-02 
710	 8.64027799577526E-02 
711	 8.86385493184245E-02 
712	 9.08350849860069E-02 
713	 9.31362683549396E-02 
714	 9.54419256575826E-02 
715	 9.76269523492876E-02 
716	 9.96928821790714E-02 
717	 0.101772664646826 
718	 0.103950034465281 
719	 0.105950698451482 
720	 0.107924805325497 
721	 0.109757591479672 
722	 0.111282404738969 
723	 0.112673145624766 
724	 0.113986650771099 
725	 0.115465312303092 
726	 0.116994766040745 
727	 0.118424266939853 
728	 0.119676805204755 
729	 0.120716723418083 
730	 0.121639855270601 
731	 0.122510640569471 
732	 0.123383993682348 
733	 0.124304199284864 
734	 0.125226810217406 
735	 0.125849349765872 
736	 0.126680140980927 
737	 0.12793470713961 
738	 0.128602097591636 
739	 0.128947818027764 
740	 0.129772611156657 
741	 0.130006867147394 
742	 0.129728878659424 
743	 0.130598535425719 
744	 0.131790776365453 
745	 0.132545283588369 
746	 0.132815820037814 
747	 0.132869089971069 
748	 0.133368296815769 
749	 0.133966346195181 
750	 0.134525854938805 
751	 0.134928658935022 
752	 0.135444975278301 
753	 0.136324433296809 
754	 0.136418650261557 
755	 0.136022552586491 
756	 0.13671217748332 
757	 0.13710473028836 
758	 0.136675432030309 
759	 0.136454612264482 
760	 0.136913659046263 
761	 0.138625174103125 
762	 0.138949740832603 
763	 0.138277334359518 
764	 0.13940779470298 
765	 0.140375496811184 
766	 0.14055023684127 
767	 0.140543041860814 
768	 0.140674264248493 
769	 0.141259050749715 
770	 0.141868342127434 
771	 0.142365004966334 
772	 0.142739286935132 
773	 0.142844969403431 
774	 0.142684603303582 
775	 0.143118145783687 
776	 0.143929515082293 
777	 0.144535336787519 
778	 0.144792497089815 
779	 0.144722217028963 
780	 0.144723380842315 
781	 0.144739559097091 
782	 0.144772482402481 
783	 0.145425572044737 
784	 0.146251626402909 
785	 0.146095260610751 
786	 0.146077073354922 
787	 0.14646748801505 
788	 0.146615008107137 
789	 0.146741075826789 
790	 0.147079683734311 
791	 0.14759994943216 
792	 0.148153620688327 
793	 0.148434553059242 
794	 0.148586804843687 
795	 0.148597830509548 
796	 0.148076458493323 
797	 0.147852949043642 
798	 0.148692597073977 
799	 0.149054944908558 
800	 0.148973875691373 
801	 0.149413019474293 
802	 0.149827610262642 
803	 0.150059076060576 
804	 0.150400252782417 
805	 0.1507518262505 
806	 0.150997536954457 
807	 0.15127955348372 
808	 0.151602717040953 
809	 0.15185268601222 
810	 0.152340259314417 
811	 0.153040560045339 
812	 0.152882691648189 
813	 0.152423005690415 
814	 0.152540682805497 
815	 0.15295698471932 
816	 0.153686304074976 
817	 0.154958160720945 
818	 0.155903502792129 
819	 0.156164538601872 
820	 0.15620843398143 
821	 0.156285167800523 
822	 0.156629590246124 
823	 0.157134738944401 
824	 0.157674370380932 
825	 0.158008717056572 
826	 0.158565917501822 
827	 0.159321295971888 
828	 0.158795096017655 
829	 0.158063553854044 
830	 0.158589744560315 
831	 0.159514453575316 
832	 0.160524531381625 
833	 0.161455531397835 
834	 0.161717047548444 
835	 0.161220217711101 
836	 0.160946630139669 
837	 0.161240787713435 
838	 0.162338897825991 
839	 0.163287962851363 
840	 0.163792021935807 
841	 0.163726860187741 
842	 0.163568553200234 
843	 0.163547082073581 
844	 0.163508386477958 
845	 0.163575441091709 
846	 0.163873660319867 
847	 0.163905498111941 
848	 0.163815218349188 
849	 0.164394316376932 
850	 0.164633777061996 
851	 0.164233309482146 
852	 0.164031291853639 
853	 0.164266148475795 
854	 0.165064436035694 
855	 0.165730032240534 
856	 0.166040505855738 
857	 0.165786764567625 
858	 0.166111940239117 
859	 0.167078839953614 
860	 0.166665517652627 
861	 0.16648119483758 
862	 0.167937446277252 
863	 0.167280932498063 
864	 0.16568078892872 
865	 0.167641264631355 
866	 0.168666428647333 
867	 0.167821238027561 
868	 0.168382426079504 
869	 0.169125921170217 
870	 0.169073529197051 
871	 0.169856165093098 
872	 0.170898768661217 
873	 0.170568999231766 
874	 0.171222883807865 
875	 0.172946384788162 
876	 0.173014226812457 
877	 0.173030995763099 
878	 0.174050277476887 
879	 0.174639162432522 
880	 0.174795629782863 
881	 0.174806634752334 
882	 0.175850226421996 
883	 0.177654093800385 
884	 0.178181357285828 
885	 0.177904784946154 
886	 0.177377195367325 
887	 0.178370835779818 
888	 0.17985139877588 
889	 0.180194716951776 
890	 0.18065587334802 
891	 0.181131838128866 
892	 0.180273256164655 
893	 0.180128417456271 
894	 0.181316523897938 
895	 0.180622106652772 
896	 0.18017921942418 
897	 0.182654569937752 
898	 0.183400927709956 
899	 0.182708245611854 
900	 0.183932471454682 
901	 0.185130633133332 
902	 0.185636426279474 
903	 0.185442929258595 
904	 0.184828065172659 
905	 0.184167329976411 
906	 0.184712255472689 
907	 0.185618223033077 
908	 0.185010634332719 
909	 0.18578607040904 
910	 0.187358799727211 
911	 0.183971924902513 
912	 0.182108188500465 
913	 0.184966793490066 
914	 0.186243702208226 
915	 0.186377878452407 
916	 0.186708336583992 
917	 0.185878460801464 
918	 0.184829265946436 
919	 0.186996010782455 
920	 0.186853693363161 
921	 0.183619565019067 
922	 0.183634325463143 
923	 0.185483296974278 
924	 0.187454796306283 
925	 0.187985441854118 
926	 0.186882897626538 
927	 0.184561340178482 
928	 0.181892036023971 
929	 0.179812384102945 
930	 0.180652945650334 
931	 0.179548244585934 
932	 0.173706086209776 
933	 0.177893313853694 
934	 0.18576997960783 
935	 0.184070264454279 
936	 0.179923250055207 
937	 0.1757424902443 
938	 0.172848856432307 
939	 0.170582987500871 
940	 0.16970571320455 
941	 0.174225555829539 
942	 0.178890758452966 
943	 0.179664402661934 
944	 0.175556277182244 
945	 0.172350026316284 
946	 0.178902306241046 
947	 0.182006266543795 
948	 0.178794817583055 
949	 0.171986817947118 
950	 0.166011467700196 
951	 0.163756522581521 
952	 0.168093492577675 
953	 0.172421590829273 
954	 0.171173706590106 
955	 0.172009428562659 
956	 0.172108362333629 
957	 0.164157745081999 
958	 0.162743640790484 
959	 0.167717324007112 
960	 0.16588744795757 
961	 0.162147092027158 
962	 0.159260604008821 
963	 0.157323057361872 
964	 0.158834089210591 
965	 0.16534142206476 
966	 0.166328129404881 
967	 0.163297205028153 
968	 0.162896185646332 
969	 0.162093737786024 
970	 0.161153892046529 
971	 0.163626397022768 
972	 0.165332978613284 
973	 0.164066402808364 
974	 0.161543151432843 
975	 0.160387519184358 
976	 0.162981199188843 
977	 0.165473432626172 
978	 0.166806888178958 
979	 0.166689445633585 
980	 0.164670253141138 
981	 0.162312407634527 
982	 0.165334726576106 
983	 0.16811682065209 
984	 0.167607019474268 
985	 0.16500477435184 
986	 0.164908997222627 
987	 0.171387708644267 
988	 0.17496567592639 
989	 0.17460618358321 
990	 0.171794867708041 
991	 0.169276196451801 
992	 0.168523361007341 
993	 0.170616720575333 
994	 0.172802045025434 
995	 0.173368115969056 
996	 0.171915067217567 
997	 0.16998982038353 
998	 0.169216610578303 
999	 0.168866458623163 
1000	 0.170128348477652 
1001	 0.175114287066584 
1002	 0.179732933318043 
1003	 0.181192604769611 
1004	 0.17459901231324 
1005	 0.170832236751911 
1006	 0.174520600906624 
1007	 0.182814102017295 
1008	 0.185794911995257 
1009	 0.177421809343345 
1010	 0.17276494079934 
1011	 0.174799997036588 
1012	 0.183744828707635 
1013	 0.185602158496033 
1014	 0.181594237060383 
1015	 0.183089666822263 
1016	 0.18347121524069 
1017	 0.182210726746305 
1018	 0.184826953142049 
1019	 0.187900049104855 
1020	 0.189726044776751 
1021	 0.194416007306215 
1022	 0.19313566727964 
1023	 0.179474725820723 
1024	 0.180567417746659 
1025	 0.19184913410144 
1026	 0.19828057099751 
1027	 0.189965351608121 
1028	 0.176076942875654 
1029	 0.193515512553544 
1030	 0.199543685505352 
1031	 0.185993192834614 
1032	 0.190027886991948 
1033	 0.196291246066419 
1034	 0.195211191026256 
1035	 0.195291775957828 
1036	 0.196804212573347 
1037	 0.199377327708917 
1038	 0.204954524282859 
1039	 0.207288976446857 
1040	 0.196263054002038 
1041	 0.195760961175814 
1042	 0.205267163170056 
1043	 0.203671030347475 
1044	 0.199251042555747 
1045	 0.194878387840788 
1046	 0.18964150271312 
1047	 0.192380129030314 
1048	 0.204276598343167 
1049	 0.198516928783799 
1050	 0.191902898252199 
1051	 0.199959066976659 
1052	 0.185376891326655 
1053	 0.171417266109259 
1054	 0.200500597334571 
1055	 0.205093889037941 
1056	 0.189345530809424 
1057	 0.201237018259261 
1058	 0.19700597600585 
1059	 0.173733081958401 
1060	 0.169560568381917 
1061	 0.189467331071281 
1062	 0.222778313623954 
1063	 0.202026637417167 
1064	 0.177059808290708 
1065	 0.184783794330206 
1066	 0.174664150541313 
1067	 0.172985368869451 
1068	 0.209268445738511 
1069	 0.204973147241769 
1070	 0.18329617228266 
1071	 0.201923126973436 
1072	 0.193954887620168 
1073	 0.169014594312851 
1074	 0.192116283304 
1075	 0.209708366303094 
