Wavelength	AVEI200011.asd
325	 3.17825646504463E-02 
326	 3.68494171051603E-02 
327	 4.42907885099249E-02 
328	 3.74581935948846E-02 
329	 3.32626575057047E-02 
330	 3.65601627349339E-02 
331	 3.59508528429607E-02 
332	 3.47456686939989E-02 
333	 3.66131274362574E-02 
334	 3.87193502401813E-02 
335	 3.97449429194349E-02 
336	 3.76442773606127E-02 
337	 3.66510104575145E-02 
338	 3.73000331638962E-02 
339	 3.50053859367889E-02 
340	 3.34999615879479E-02 
341	 3.57195111816127E-02 
342	 3.80723642129256E-02 
343	 3.91097261108919E-02 
344	 3.72190418596406E-02 
345	 3.62620427284805E-02 
346	 0.036729683510338 
347	 3.61723162900498E-02 
348	 3.42601290443961E-02 
349	 0.031399714745617 
350	 3.26750318855939E-02 
351	 0.03495565554224 
352	 0.032327614732287 
353	 3.18905447497033E-02 
354	 3.38403208353967E-02 
355	 0.032133245735202 
356	 3.10877336939501E-02 
357	 3.29194835906736E-02 
358	 3.31687645179839E-02 
359	 3.23050687815175E-02 
360	 3.18762118245474E-02 
361	 3.03976668706589E-02 
362	 2.88862691272796E-02 
363	 3.19549595328282E-02 
364	 3.36755603206617E-02 
365	 3.14050856819848E-02 
366	 3.06521671476795E-02 
367	 3.05761044455612E-02 
368	 2.92770799464731E-02 
369	 2.96560994710482E-02 
370	 3.16570457507412E-02 
371	 3.32281798600919E-02 
372	 3.31242491382671E-02 
373	 3.11176303333456E-02 
374	 3.11569592046259E-02 
375	 3.17473679318727E-02 
376	 3.02654333001966E-02 
377	 3.04601040621341E-02 
378	 3.21444691933237E-02 
379	 3.17672851978555E-02 
380	 3.11921637279871E-02 
381	 3.12873937142685E-02 
382	 3.12110957152554E-02 
383	 3.09640332981523E-02 
384	 3.06461921841709E-02 
385	 3.09209828783986E-02 
386	 3.17581763390772E-02 
387	 3.27899442629814E-02 
388	 3.23216795599794E-02 
389	 3.02366954728398E-02 
390	 3.06864482312778E-02 
391	 3.20171548682848E-02 
392	 3.19173620490984E-02 
393	 3.14223388068431E-02 
394	 3.10203019037937E-02 
395	 3.15368416907662E-02 
396	 3.17905888573039E-02 
397	 3.14043950494578E-02 
398	 3.14058765729357E-02 
399	 3.13616842678705E-02 
400	 0.030771741512098 
401	 0.030605090472165 
402	 3.06359691977422E-02 
403	 2.97591717311726E-02 
404	 2.93541612863833E-02 
405	 2.98501572954521E-02 
406	 3.02500268822493E-02 
407	 3.03776453742933E-02 
408	 3.01494537670797E-02 
409	 2.98241687820107E-02 
410	 2.96048461372467E-02 
411	 2.98544738550694E-02 
412	 2.99970236635224E-02 
413	 2.98343444080012E-02 
414	 0.030041807869327 
415	 3.02822762741259E-02 
416	 3.00556471494877E-02 
417	 0.029681842847437 
418	 2.94302873276841E-02 
419	 0.029950856103993 
420	 3.00775760565625E-02 
421	 2.93401257817877E-02 
422	 2.92149044239643E-02 
423	 2.95582297618206E-02 
424	 2.99188926331364E-02 
425	 2.98701989776281E-02 
426	 2.94516973435659E-02 
427	 2.92443693088672E-02 
428	 2.93107400603436E-02 
429	 2.96302133085122E-02 
430	 2.96588435661789E-02 
431	 2.95580025094033E-02 
432	 2.97378706048771E-02 
433	 2.97602599068588E-02 
434	 2.95581805157883E-02 
435	 2.92789033511373E-02 
436	 2.92326952161618E-02 
437	 2.95702957418021E-02 
438	 2.97289758435996E-02 
439	 2.97447344609144E-02 
440	 2.98384077978868E-02 
441	 3.00095141317754E-02 
442	 3.01591352938189E-02 
443	 2.98007197062053E-02 
444	 2.96713488128755E-02 
445	 3.02883600045051E-02 
446	 3.03750240687222E-02 
447	 3.00541158190664E-02 
448	 3.00667805205063E-02 
449	 0.030163312959248 
450	 3.02932095589941E-02 
451	 3.05347746567083E-02 
452	 3.07503839011655E-02 
453	 0.03081713003588 
454	 0.031077449716759 
455	 3.13761369133855E-02 
456	 0.031083076646581 
457	 3.08876592510888E-02 
458	 3.10397345177838E-02 
459	 3.11427536226761E-02 
460	 3.12011356521681E-02 
461	 3.12587131413738E-02 
462	 3.13123446762052E-02 
463	 0.031366162865424 
464	 3.14270089085803E-02 
465	 3.14947238270478E-02 
466	 3.15815084746605E-02 
467	 3.18078017910091E-02 
468	 3.19245007668581E-02 
469	 3.15565653744521E-02 
470	 3.14445767406948E-02 
471	 3.16865305301201E-02 
472	 3.18724290597647E-02 
473	 3.19658176877655E-02 
474	 3.19619857293083E-02 
475	 3.20886440898387E-02 
476	 3.22433981473113E-02 
477	 3.21743661797775E-02 
478	 3.23600749422348E-02 
479	 3.27450846943988E-02 
480	 3.24908759759333E-02 
481	 3.22303744102643E-02 
482	 0.032459062073894 
483	 3.25175577977236E-02 
484	 3.24688216507865E-02 
485	 3.27380081686199E-02 
486	 3.29441493055826E-02 
487	 3.29871125223727E-02 
488	 3.31534698867128E-02 
489	 3.32553224015406E-02 
490	 3.31036756712815E-02 
491	 3.30366375068785E-02 
492	 3.31260820230376E-02 
493	 3.33969324299696E-02 
494	 3.35278503043817E-02 
495	 3.34049191332526E-02 
496	 3.33133306711459E-02 
497	 0.03334917519603 
498	 3.35936939434163E-02 
499	 0.033742409853521 
500	 0.033802733632547 
501	 3.41099780373999E-02 
502	 3.43373618138217E-02 
503	 0.034330695935749 
504	 3.45683365125245E-02 
505	 3.48668376149102E-02 
506	 3.48128094555432E-02 
507	 3.48541797990907E-02 
508	 3.51345676011053E-02 
509	 3.57327513984168E-02 
510	 0.036051522600567 
511	 3.56976001878764E-02 
512	 3.58590957559758E-02 
513	 3.63886811931375E-02 
514	 3.64799546840192E-02 
515	 3.64302644446004E-02 
516	 3.64390248931953E-02 
517	 3.70868352577623E-02 
518	 3.76652538416779E-02 
519	 3.73995599738434E-02 
520	 3.71851695799501E-02 
521	 3.72351340283054E-02 
522	 3.75683743992989E-02 
523	 3.78847334574756E-02 
524	 3.80572287170188E-02 
525	 3.83061535310471E-02 
526	 3.85698554249483E-02 
527	 3.87245952772381E-02 
528	 3.90702262566807E-02 
529	 3.95320163932458E-02 
530	 3.95881640943455E-02 
531	 3.96458836675852E-02 
532	 3.99786321754023E-02 
533	 4.04639537881188E-02 
534	 4.08650139790493E-02 
535	 4.07479729934206E-02 
536	 4.07251262511629E-02 
537	 4.09794236378326E-02 
538	 4.13330911496185E-02 
539	 4.16280414131154E-02 
540	 0.041727002808679 
541	 0.041837327688098 
542	 4.19590405950441E-02 
543	 4.19406949637753E-02 
544	 4.20664075748294E-02 
545	 4.24294052715214E-02 
546	 4.28130990273964E-02 
547	 4.30481093526913E-02 
548	 0.042949694674247 
549	 4.30406870558296E-02 
550	 4.33245370228239E-02 
551	 4.32835942109076E-02 
552	 4.33597852324054E-02 
553	 4.38000852102609E-02 
554	 4.42017281862234E-02 
555	 4.44597094711896E-02 
556	 4.44827774128221E-02 
557	 4.46567172855422E-02 
558	 4.49718941413586E-02 
559	 4.47503338161501E-02 
560	 4.44362912440493E-02 
561	 0.044480326359659 
562	 0.04493599286902 
563	 4.55271573652514E-02 
564	 4.55345619941487E-02 
565	 4.54700670172751E-02 
566	 4.55576783078603E-02 
567	 0.045818440366314 
568	 4.60799123545855E-02 
569	 4.61191423421225E-02 
570	 4.58614179291695E-02 
571	 4.55170914866231E-02 
572	 4.58453020656007E-02 
573	 0.046109090758314 
574	 4.59394212703042E-02 
575	 4.63215820190947E-02 
576	 4.68434906274321E-02 
577	 4.64983265573399E-02 
578	 4.64295820038161E-02 
579	 4.68558421157253E-02 
580	 4.70397899148187E-02 
581	 4.71450901390613E-02 
582	 4.73278451079783E-02 
583	 4.73989523462815E-02 
584	 4.73792040314923E-02 
585	 4.73898595664536E-02 
586	 4.74446946842138E-02 
587	 0.047537267500269 
588	 4.75757602423577E-02 
589	 4.74792488790314E-02 
590	 4.71662219011106E-02 
591	 4.72706642403917E-02 
592	 4.77433747050003E-02 
593	 4.78762669951995E-02 
594	 4.80511946936901E-02 
595	 4.84439279216239E-02 
596	 4.86086082560947E-02 
597	 4.86866514300422E-02 
598	 4.90663280093679E-02 
599	 4.89084243128234E-02 
600	 4.82894018428135E-02 
601	 4.86646991632703E-02 
602	 0.049298073090727 
603	 4.94905216098766E-02 
604	 4.95585146407172E-02 
605	 4.95741845942648E-02 
606	 4.95987839275314E-02 
607	 4.95717390996468E-02 
608	 4.95268391774761E-02 
609	 4.98034258569038E-02 
610	 5.00368275260162E-02 
611	 4.97452011778178E-02 
612	 4.97166725501328E-02 
613	 4.99670051559436E-02 
614	 4.98307523613253E-02 
615	 4.98001058332008E-02 
616	 5.01279289540151E-02 
617	 5.03160868282788E-02 
618	 5.02948988776787E-02 
619	 5.00602970642424E-02 
620	 4.99387895764774E-02 
621	 0.050034589218099 
622	 5.02737549248953E-02 
623	 5.04705055133826E-02 
624	 5.04660656594203E-02 
625	 5.04449540947349E-02 
626	 5.04681086396385E-02 
627	 5.05875238794785E-02 
628	 5.07336132020474E-02 
629	 5.08769762076446E-02 
630	 5.10513275401916E-02 
631	 5.11917115292961E-02 
632	 5.12190597206221E-02 
633	 5.13108664417565E-02 
634	 5.15208276995907E-02 
635	 5.18544578868101E-02 
636	 5.22601326356287E-02 
637	 5.26421637208315E-02 
638	 5.25930434619695E-02 
639	 5.23257773737833E-02 
640	 5.22861410065813E-02 
641	 5.25064166923641E-02 
642	 5.29000991799607E-02 
643	 5.30066772752054E-02 
644	 5.30239317674946E-02 
645	 5.31384564986115E-02 
646	 0.053191004834971 
647	 5.32974812724616E-02 
648	 5.38860764928597E-02 
649	 5.41774088377953E-02 
650	 5.39284661161016E-02 
651	 5.38127377627169E-02 
652	 5.37186822948988E-02 
653	 5.34458783029455E-02 
654	 5.33440222646024E-02 
655	 5.33962609061593E-02 
656	 5.32091626619904E-02 
657	 5.31650487893141E-02 
658	 5.34066570714732E-02 
659	 5.32854037138029E-02 
660	 5.29365724361331E-02 
661	 5.26931256918737E-02 
662	 5.23053956646662E-02 
663	 5.18387862067186E-02 
664	 5.18287947690835E-02 
665	 5.17937700482651E-02 
666	 5.13352070644357E-02 
667	 5.08351892624628E-02 
668	 5.04313205043132E-02 
669	 5.02526344722655E-02 
670	 5.02405699032384E-02 
671	 5.03134567657412E-02 
672	 0.050151501989715 
673	 5.00477975627331E-02 
674	 5.03491880329853E-02 
675	 5.02624270911035E-02 
676	 4.99299487561141E-02 
677	 5.02898475033636E-02 
678	 5.10020897760505E-02 
679	 5.17784156208384E-02 
680	 5.19656982950876E-02 
681	 5.18768527330357E-02 
682	 5.21233443227764E-02 
683	 5.26571653761997E-02 
684	 5.34606516761199E-02 
685	 0.054507273809906 
686	 5.55346453815445E-02 
687	 5.63045558840932E-02 
688	 5.71346200012862E-02 
689	 5.81960799309131E-02 
690	 5.99159244746407E-02 
691	 6.14101551346162E-02 
692	 6.24617085117971E-02 
693	 6.33534117983514E-02 
694	 6.43468295348569E-02 
695	 6.56340463316342E-02 
696	 6.69358405661466E-02 
697	 6.81919057759729E-02 
698	 0.069508251282454 
699	 7.07112488116836E-02 
700	 7.17122750547684E-02 
701	 7.26819882994315E-02 
702	 7.37194383540024E-02 
703	 7.49351882338932E-02 
704	 7.59085369118463E-02 
705	 7.66700154920338E-02 
706	 7.76744064410241E-02 
707	 7.85819605939952E-02 
708	 0.079252737471781 
709	 8.05499184576945E-02 
710	 8.19348675400871E-02 
711	 8.21920141214767E-02 
712	 8.26454408435887E-02 
713	 0.083543327291762 
714	 8.40467260166441E-02 
715	 8.43903255044269E-02 
716	 8.48258664066175E-02 
717	 0.084943053956743 
718	 8.50296132541981E-02 
719	 8.62075546933386E-02 
720	 8.73924752729021E-02 
721	 8.81005802183976E-02 
722	 8.87330025515934E-02 
723	 8.93612529637393E-02 
724	 8.99844150057773E-02 
725	 9.06166190227914E-02 
726	 9.11596854845817E-02 
727	 9.14676620766446E-02 
728	 9.18132311951334E-02 
729	 9.23268534765831E-02 
730	 9.27850583000862E-02 
731	 9.33027851849186E-02 
732	 9.40542511697778E-02 
733	 9.47679826166002E-02 
734	 9.53237205158048E-02 
735	 0.095480101835402 
736	 9.56986245573672E-02 
737	 9.63088142010865E-02 
738	 9.73916026832657E-02 
739	 9.84939581865217E-02 
740	 9.87998832802149E-02 
741	 9.89247323011111E-02 
742	 9.91221985912567E-02 
743	 9.95648206364421E-02 
744	 0.100071663034093 
745	 0.100491585155751 
746	 0.100944480349453 
747	 0.101450834114051 
748	 0.102040178363546 
749	 0.102557353210008 
750	 0.102936421449317 
751	 0.103186608767304 
752	 0.103494616038377 
753	 0.104035428211253 
754	 0.104257214704493 
755	 0.104303756299536 
756	 0.104930448083201 
757	 0.105521117987698 
758	 0.10579542051154 
759	 0.105526485776827 
760	 0.105149564411694 
761	 0.106459061420113 
762	 0.107243358547798 
763	 0.107083070897952 
764	 0.106958778421284 
765	 0.107517549153226 
766	 0.108642599467388 
767	 0.108889029648451 
768	 0.109092300541703 
769	 0.110315785599775 
770	 0.111242851871869 
771	 0.111589151101519 
772	 0.11155818779038 
773	 0.111595445844002 
774	 0.112043252704073 
775	 0.113048356576261 
776	 0.1140410862181 
777	 0.113981953520438 
778	 0.11414855467329 
779	 0.114771808173789 
780	 0.115018834547184 
781	 0.115310569938098 
782	 0.115971889722867 
783	 0.116640977789335 
784	 0.117101183529735 
785	 0.117007333617204 
786	 0.117111884145368 
787	 0.117573845804655 
788	 0.117741163330296 
789	 0.117823874552782 
790	 0.118073892106575 
791	 0.118857557991462 
792	 0.119729543655934 
793	 0.119375176621222 
794	 0.1196051357641 
795	 0.120796268196484 
796	 0.121285679907269 
797	 0.121431554828539 
798	 0.121691028223022 
799	 0.12180645812102 
800	 0.121912588598244 
801	 0.122470326099487 
802	 0.122885132348718 
803	 0.12309342428854 
804	 0.124176804700086 
805	 0.125242553432021 
806	 0.125308623604597 
807	 0.12554233862193 
808	 0.12589983090296 
809	 0.125385148989854 
810	 0.125647437235473 
811	 0.127039566930432 
812	 0.126658848538779 
813	 0.125848142148914 
814	 0.126710075407735 
815	 0.1268577790209 
816	 0.126315270978822 
817	 0.127092030516139 
818	 0.128203968747286 
819	 0.129157214231663 
820	 0.130036230504223 
821	 0.130410329084615 
822	 0.129801428849996 
823	 0.129810236818371 
824	 0.130692278985259 
825	 0.132105489033323 
826	 0.132856179847926 
827	 0.132608549076262 
828	 0.132707778314757 
829	 0.133344554026335 
830	 0.134513678018254 
831	 0.13449848748746 
832	 0.133704867107902 
833	 0.134364860701853 
834	 0.135359018875891 
835	 0.136084447410838 
836	 0.135969276158045 
837	 0.135831674992595 
838	 0.136610902733172 
839	 0.137210623813672 
840	 0.137547655490796 
841	 0.138141344159221 
842	 0.138402555910543 
843	 0.138157698870536 
844	 0.137850321659082 
845	 0.138023792386635 
846	 0.139160634344485 
847	 0.139449679826375 
848	 0.139051255157614 
849	 0.139540538541395 
850	 0.140467818189351 
851	 0.141450413168138 
852	 0.141347061052111 
853	 0.140754813040625 
854	 0.140446355163064 
855	 0.140203394286722 
856	 0.140317609597795 
857	 0.141591031829325 
858	 0.14269412612319 
859	 0.14312846963627 
860	 0.143128655202096 
861	 0.142938410067714 
862	 0.142797533218166 
863	 0.142832743622227 
864	 0.142932936090566 
865	 0.142693253621099 
866	 0.142889801675698 
867	 0.143763371668041 
868	 0.145182623584044 
869	 0.145897583558071 
870	 0.145144124344988 
871	 0.145813492339477 
872	 0.147145261281297 
873	 0.146721756794766 
874	 0.147000591025523 
875	 0.148306398162321 
876	 0.148635467206663 
877	 0.149713158264655 
878	 0.152357658442593 
879	 0.152725583997182 
880	 0.151697409264662 
881	 0.151551509049203 
882	 0.152346128509475 
883	 0.15380881475392 
884	 0.154775625687903 
885	 0.155165434712151 
886	 0.154999500995657 
887	 0.154742889991112 
888	 0.155156314665056 
889	 0.157085035285796 
890	 0.158119931179656 
891	 0.157886218245751 
892	 0.157093598941853 
893	 0.157296869411964 
894	 0.158815043893942 
895	 0.157783631835286 
896	 0.156507007945686 
897	 0.158021672924328 
898	 0.158755473358128 
899	 0.158717786865571 
900	 0.159947249329272 
901	 0.160989554615487 
902	 0.161391632227273 
903	 0.161453055598857 
904	 0.161302617669948 
905	 0.161088483632732 
906	 0.161397413590036 
907	 0.161148082464522 
908	 0.1581312712738 
909	 0.159049034462019 
910	 0.163531345444628 
911	 0.161647997667758 
912	 0.16099483273818 
913	 0.16488487155618 
914	 0.163835734474628 
915	 0.161226949348131 
916	 0.162164094791224 
917	 0.16262339545981 
918	 0.162344600300699 
919	 0.162830816701467 
920	 0.163251166567486 
921	 0.163361390493178 
922	 0.163243910226365 
923	 0.163832676604823 
924	 0.165849942831354 
925	 0.167538533723389 
926	 0.168170998356067 
927	 0.1668929649669 
928	 0.165316056164364 
929	 0.164699650669382 
930	 0.168259182004133 
931	 0.166923000862222 
932	 0.154077765073155 
933	 0.146613580310607 
934	 0.147366293731978 
935	 0.154461978521864 
936	 0.156474757564218 
937	 0.153102129687654 
938	 0.153089177702522 
939	 0.148558066188542 
940	 0.140614196586465 
941	 0.142750789598347 
942	 0.150375941812391 
943	 0.158146260145133 
944	 0.154896184779709 
945	 0.147516415098269 
946	 0.149344438329687 
947	 0.151553994818248 
948	 0.152186610261864 
949	 0.153031780595001 
950	 0.147950218607391 
951	 0.138099405550911 
952	 0.14406889205876 
953	 0.152971230611916 
954	 0.152660307246643 
955	 0.150499001127268 
956	 0.148394494226151 
957	 0.1476633431183 
958	 0.147116040200007 
959	 0.146222623346371 
960	 0.144241457145012 
961	 0.142625133078561 
962	 0.142083920551703 
963	 0.142450433457328 
964	 0.141733110691553 
965	 0.138532757004728 
966	 0.139877461428295 
967	 0.145312649368482 
968	 0.152442462481636 
969	 0.151167467281128 
970	 0.142937262079588 
971	 0.144832791209823 
972	 0.147009631622864 
973	 0.14547582426143 
974	 0.152237881061096 
975	 0.156689666994158 
976	 0.147438621290138 
977	 0.145803314817796 
978	 0.150307399259077 
979	 0.148777495146857 
980	 0.144748419253073 
981	 0.141719721590123 
982	 0.149227617542888 
983	 0.155908599475811 
984	 0.155721939485964 
985	 0.152467942683723 
986	 0.150322209459446 
987	 0.153106719489854 
988	 0.158408639848852 
989	 0.1615029862036 
990	 0.154001868737374 
991	 0.152189776908596 
992	 0.158069889259612 
993	 0.160507239734462 
994	 0.162062149594429 
995	 0.16305732268044 
996	 0.158650280723264 
997	 0.155277617941267 
998	 0.159092507609573 
999	 0.163821405899895 
1000	 0.164813364748379 
1001	 0.156233601821718 
1002	 0.158288024745281 
1003	 0.169502736252374 
1004	 0.166994408680689 
1005	 0.163323531654412 
1006	 0.163155611287833 
1007	 0.162166226232442 
1008	 0.165714412350501 
1009	 0.176134416136237 
1010	 0.181305484253762 
1011	 0.17848103073665 
1012	 0.16669410961426 
1013	 0.168064975933369 
1014	 0.178307284714516 
1015	 0.173866735689857 
1016	 0.1706281172476 
1017	 0.170351554247178 
1018	 0.158514099081313 
1019	 0.157276926397026 
1020	 0.174984968500057 
1021	 0.182220912454298 
1022	 0.179033509960922 
1023	 0.169554485840225 
1024	 0.172396261975253 
1025	 0.181341987758043 
1026	 0.180654666657272 
1027	 0.167861334070877 
1028	 0.152797772130931 
1029	 0.16890622892093 
1030	 0.181200407407377 
1031	 0.179953628744886 
1032	 0.18199873610035 
1033	 0.179814430275542 
1034	 0.170753054734983 
1035	 0.168527062810752 
1036	 0.171434712954089 
1037	 0.176039734084997 
1038	 0.183461843861019 
1039	 0.185563791004246 
1040	 0.170261949943449 
1041	 0.172233352579325 
1042	 0.187075841214992 
1043	 0.170440319671337 
1044	 0.174079892723387 
1045	 0.201589253507257 
1046	 0.191331320288715 
1047	 0.175051380573675 
1048	 0.171259428161989 
1049	 0.158662678423384 
1050	 0.155781422895834 
1051	 0.178258316102737 
1052	 0.188933122354612 
1053	 0.193398626258486 
1054	 0.208165402469073 
1055	 0.207551953623715 
1056	 0.189561122963844 
1057	 0.165951397621429 
1058	 0.158336818248707 
1059	 0.172098302518707 
1060	 0.202529554753139 
1061	 0.213122284064898 
1062	 0.191805490500512 
1063	 0.171822107301719 
1064	 0.170396555851202 
1065	 0.193142412495459 
1066	 0.191818234644663 
1067	 0.19216458311776 
1068	 0.222524295153495 
1069	 0.223318250931258 
1070	 0.21047958187881 
1071	 0.226111287455192 
1072	 0.212261746131161 
1073	 0.17767593106652 
1074	 0.183612522766689 
1075	 0.186757571477205 
