Wavelength	AVEI200232.asd
325	 6.23861370424252E-02 
326	 5.82948669589377E-02 
327	 0.051691686420534 
328	 5.90108878920069E-02 
329	 6.30855925261272E-02 
330	 5.94596788854772E-02 
331	 5.87622177990033E-02 
332	 6.03893353718248E-02 
333	 6.28993337389969E-02 
334	 6.47729259385802E-02 
335	 6.49383732826064E-02 
336	 0.061253936310932 
337	 6.03594987347293E-02 
338	 6.31674358185132E-02 
339	 6.37277950068738E-02 
340	 6.25271842446482E-02 
341	 6.05440788674413E-02 
342	 0.061466752515497 
343	 6.33947927648226E-02 
344	 0.061722324589553 
345	 0.060043002095751 
346	 6.00454013703972E-02 
347	 6.45532527493121E-02 
348	 6.66933308923909E-02 
349	 6.27409806324153E-02 
350	 6.23306667591916E-02 
351	 6.42608248590904E-02 
352	 6.45783661978985E-02 
353	 6.53203297785024E-02 
354	 6.63528239175454E-02 
355	 6.57510908665896E-02 
356	 6.45575800393888E-02 
357	 6.36592264713483E-02 
358	 0.064565545416286 
359	 6.53669790931122E-02 
360	 6.30077534721497E-02 
361	 6.13661505423847E-02 
362	 6.15284765712085E-02 
363	 6.36392738521454E-02 
364	 6.51624091710634E-02 
365	 6.49233896997602E-02 
366	 6.51439396152472E-02 
367	 6.54379874093169E-02 
368	 6.49777858031388E-02 
369	 6.50313561641587E-02 
370	 6.55263764478394E-02 
371	 6.52755055285199E-02 
372	 0.064669394414099 
373	 6.41367251376502E-02 
374	 6.52133305049243E-02 
375	 6.61132828711296E-02 
376	 6.42829403033667E-02 
377	 0.063621773357808 
378	 6.46358851779665E-02 
379	 6.59569331120054E-02 
380	 6.55357826543813E-02 
381	 6.30733586844292E-02 
382	 6.39371459380002E-02 
383	 6.60516142529137E-02 
384	 0.066089796188535 
385	 6.51128461160443E-02 
386	 6.41650858122794E-02 
387	 6.57694564863279E-02 
388	 6.69118199696163E-02 
389	 6.62816410697053E-02 
390	 0.06503227175276 
391	 6.45386790719721E-02 
392	 6.61434419687473E-02 
393	 6.64779858984026E-02 
394	 6.57812389342015E-02 
395	 6.70584012398085E-02 
396	 6.74813199949223E-02 
397	 6.62714439209755E-02 
398	 6.61064280520454E-02 
399	 6.63978914233751E-02 
400	 6.63046848352577E-02 
401	 6.63857376784549E-02 
402	 6.66316323103188E-02 
403	 0.066754627646932 
404	 6.71796897736209E-02 
405	 6.79245671462519E-02 
406	 6.80798944606903E-02 
407	 0.067715424836907 
408	 6.70349741318521E-02 
409	 6.69373605406439E-02 
410	 6.73168494238901E-02 
411	 6.71302315138153E-02 
412	 6.72996806307934E-02 
413	 6.80593470434559E-02 
414	 6.80187662250187E-02 
415	 6.77244331467973E-02 
416	 6.80365675989013E-02 
417	 6.85974812581748E-02 
418	 6.90183063857147E-02 
419	 6.82924589568604E-02 
420	 6.78576624204955E-02 
421	 6.84338472159265E-02 
422	 6.90267168315943E-02 
423	 6.95567312843335E-02 
424	 7.01035648419377E-02 
425	 7.01998147095015E-02 
426	 6.99811733887099E-02 
427	 7.03040593773433E-02 
428	 7.09070430759497E-02 
429	 7.15228149628762E-02 
430	 7.16104773750093E-02 
431	 7.12693728893586E-02 
432	 0.070769338219325 
433	 7.08104039456765E-02 
434	 7.14117607392795E-02 
435	 7.18924315815337E-02 
436	 7.20454687455012E-02 
437	 7.18382154868121E-02 
438	 7.21990066075765E-02 
439	 7.28460407990953E-02 
440	 0.073021538988452 
441	 7.31410283138562E-02 
442	 7.33094350551343E-02 
443	 7.34324159765938E-02 
444	 0.073679311904521 
445	 7.41544084843097E-02 
446	 7.44264205183157E-02 
447	 0.074511340699444 
448	 7.45884248915655E-02 
449	 7.48100437299467E-02 
450	 0.075184134211282 
451	 7.54542345142234E-02 
452	 7.55105653836338E-02 
453	 7.53033790191588E-02 
454	 7.56051506795111E-02 
455	 7.62765957774256E-02 
456	 7.64881924348905E-02 
457	 7.66860336157387E-02 
458	 7.70043529784646E-02 
459	 7.72336255128858E-02 
460	 7.72762109609192E-02 
461	 0.077059479941433 
462	 7.76238131234129E-02 
463	 7.86088783831588E-02 
464	 7.81489957077347E-02 
465	 0.077654521098445 
466	 7.78356862484555E-02 
467	 0.078196552587148 
468	 7.83461701187737E-02 
469	 7.77914045060339E-02 
470	 7.80090836520029E-02 
471	 7.89694946810894E-02 
472	 7.91203167636102E-02 
473	 7.90824408184567E-02 
474	 7.92519201380856E-02 
475	 7.94534833143898E-02 
476	 7.96317242310179E-02 
477	 7.97032589590517E-02 
478	 8.00091382511484E-02 
479	 8.04746283493028E-02 
480	 8.03675525642894E-02 
481	 8.02095507594025E-02 
482	 8.04285624540552E-02 
483	 8.07070317427089E-02 
484	 8.09457389852521E-02 
485	 8.10603830232622E-02 
486	 8.09822031378096E-02 
487	 8.07764820621381E-02 
488	 8.09188311831167E-02 
489	 8.10788721041109E-02 
490	 8.09150748792448E-02 
491	 8.10171056262696E-02 
492	 8.14211436363173E-02 
493	 8.19649781122468E-02 
494	 0.082257071456584 
495	 8.21780158931211E-02 
496	 8.22710854644014E-02 
497	 8.24310917387328E-02 
498	 8.24495546873645E-02 
499	 0.082895717212629 
500	 8.36184918098746E-02 
501	 8.36639995837196E-02 
502	 0.083551986439313 
503	 8.36174127108887E-02 
504	 8.38085457699847E-02 
505	 8.40533589777471E-02 
506	 8.42109724341784E-02 
507	 0.084758831486551 
508	 8.55275079828927E-02 
509	 8.52923713488929E-02 
510	 8.50286463438953E-02 
511	 8.55050931451546E-02 
512	 8.59506861342272E-02 
513	 8.62775666828405E-02 
514	 8.66104457873732E-02 
515	 8.68304158693945E-02 
516	 8.69065736684232E-02 
517	 8.69259607888562E-02 
518	 8.69408646627635E-02 
519	 8.70012350127329E-02 
520	 8.71328677969052E-02 
521	 8.73652192592713E-02 
522	 8.77756349017633E-02 
523	 8.81823505436073E-02 
524	 8.84640393700543E-02 
525	 8.84653585443666E-02 
526	 8.83996573847255E-02 
527	 8.85802389603993E-02 
528	 8.88678770492915E-02 
529	 8.92014044539793E-02 
530	 8.95255615720143E-02 
531	 0.08977502008538 
532	 8.99230590648962E-02 
533	 9.01587467913464E-02 
534	 9.03957278787238E-02 
535	 9.03893882246841E-02 
536	 9.05368812825694E-02 
537	 9.08841197899575E-02 
538	 0.090976629429127 
539	 9.11202835009904E-02 
540	 9.15934482714995E-02 
541	 9.16453074456015E-02 
542	 9.14378946173179E-02 
543	 9.18158817340348E-02 
544	 9.21443292268664E-02 
545	 9.22021285997798E-02 
546	 9.23606095660531E-02 
547	 9.25352348645109E-02 
548	 9.25731004205811E-02 
549	 9.28559035298491E-02 
550	 9.33062366307432E-02 
551	 9.33288410472944E-02 
552	 9.33510418887989E-02 
553	 9.36307538372871E-02 
554	 9.39288029108651E-02 
555	 9.41275409716244E-02 
556	 9.40610289971681E-02 
557	 9.40825493150156E-02 
558	 9.43146983819631E-02 
559	 9.47311053547605E-02 
560	 9.49999693276778E-02 
561	 9.48596230227194E-02 
562	 9.50130303251276E-02 
563	 9.54142130227884E-02 
564	 9.56136670808484E-02 
565	 0.095627146863568 
566	 9.55164580609613E-02 
567	 9.57172868185841E-02 
568	 9.59796056529081E-02 
569	 9.59345516670031E-02 
570	 9.60057610954297E-02 
571	 9.62341595376714E-02 
572	 9.63931330104902E-02 
573	 9.65308399765257E-02 
574	 9.66498788401954E-02 
575	 0.096510282440731 
576	 0.096386430730226 
577	 9.68530566037202E-02 
578	 9.69921510934124E-02 
579	 9.67078468499865E-02 
580	 9.69822297739069E-02 
581	 9.72322676908921E-02 
582	 9.69737407491544E-02 
583	 9.72348796649112E-02 
584	 9.77937769846223E-02 
585	 9.75818787339704E-02 
586	 9.74458312232926E-02 
587	 9.76713091451062E-02 
588	 9.77720034959743E-02 
589	 9.79107925596604E-02 
590	 9.83398242312709E-02 
591	 0.09832533151789 
592	 9.79165544312882E-02 
593	 9.78258917267275E-02 
594	 9.79912973463801E-02 
595	 9.83339795808139E-02 
596	 9.84652976472545E-02 
597	 9.84170950066207E-02 
598	 9.83420458458837E-02 
599	 9.83833712737739E-02 
600	 9.85311516847037E-02 
601	 9.85005620990659E-02 
602	 9.83723525708512E-02 
603	 9.82510559267939E-02 
604	 0.09838761106224 
605	 9.87214982942362E-02 
606	 9.90413116558757E-02 
607	 9.90952011050798E-02 
608	 9.88014585009966E-02 
609	 9.84198261132859E-02 
610	 9.82948571868161E-02 
611	 9.88020784242681E-02 
612	 9.89605069572731E-02 
613	 9.86846872227312E-02 
614	 9.86107912049402E-02 
615	 9.84702926203462E-02 
616	 9.81918298650174E-02 
617	 9.85411362461167E-02 
618	 9.89853999230902E-02 
619	 9.83995046150625E-02 
620	 9.82812438134577E-02 
621	 9.88565794997527E-02 
622	 9.90323195044246E-02 
623	 9.90147743589479E-02 
624	 9.90125822185131E-02 
625	 9.88193088382866E-02 
626	 9.86364628907731E-02 
627	 9.90796311478333E-02 
628	 9.94141473344384E-02 
629	 9.93513284392338E-02 
630	 9.91566630345585E-02 
631	 9.90070803818937E-02 
632	 9.90872901680236E-02 
633	 9.93060056300897E-02 
634	 9.95444325985611E-02 
635	 9.95484790822497E-02 
636	 9.93792004112233E-02 
637	 9.91381852071183E-02 
638	 9.92596707031808E-02 
639	 9.96676127838709E-02 
640	 0.100152309359572 
641	 0.100201002762801 
642	 0.099883282757351 
643	 0.100355574271891 
644	 0.100786018584152 
645	 0.100446745073941 
646	 0.100160243289705 
647	 0.10012197192797 
648	 0.100467035407862 
649	 0.100555821752437 
650	 0.100207750066675 
651	 0.100101557061281 
652	 0.100115751326943 
653	 0.100035167976554 
654	 9.98609278270912E-02 
655	 9.96875640339552E-02 
656	 9.99391840791064E-02 
657	 9.99380167145218E-02 
658	 9.93445135661774E-02 
659	 9.87421818928728E-02 
660	 9.83612361006319E-02 
661	 9.84611147023177E-02 
662	 9.83913174178661E-02 
663	 0.098013280654901 
664	 9.76475668606221E-02 
665	 9.73892381259279E-02 
666	 9.72792203544845E-02 
667	 9.68559452923202E-02 
668	 9.63099810703897E-02 
669	 9.62783242543447E-02 
670	 9.64246898191589E-02 
671	 9.65597745312555E-02 
672	 9.63325908046802E-02 
673	 9.61107857075669E-02 
674	 9.63347347922463E-02 
675	 9.64852137804499E-02 
676	 9.64837185124912E-02 
677	 9.64141442049467E-02 
678	 9.66542839491075E-02 
679	 9.72957730526109E-02 
680	 9.73835536786102E-02 
681	 9.71705342218451E-02 
682	 9.72183543052484E-02 
683	 9.77625520741535E-02 
684	 9.86394217718837E-02 
685	 9.88909304417587E-02 
686	 9.90700428158126E-02 
687	 9.96553339462289E-02 
688	 0.100176176440746 
689	 0.100622023721776 
690	 0.101295109191446 
691	 0.101727257327514 
692	 0.101956184459868 
693	 0.102869791263393 
694	 0.103853199165772 
695	 0.10418533073534 
696	 0.104247834919309 
697	 0.104233814908887 
698	 0.104424360210255 
699	 0.10458790792064 
700	 0.104629465583626 
701	 0.104675888414938 
702	 0.104819553851973 
703	 0.105159984749557 
704	 0.105418936465963 
705	 0.105625131330598 
706	 0.106206906853819 
707	 0.106444933351514 
708	 0.106009268081351 
709	 0.106345755648994 
710	 0.107057708643875 
711	 0.107063654762417 
712	 0.106709707719415 
713	 0.106369193853646 
714	 0.107235798151617 
715	 0.108206288477426 
716	 0.108249102436779 
717	 0.108215992008039 
718	 0.108216376309365 
719	 0.107985269860353 
720	 0.108093452440223 
721	 0.108580932502326 
722	 0.108735880957672 
723	 0.108887196657689 
724	 0.109419109328852 
725	 0.109536905721176 
726	 0.109276390440982 
727	 0.109478515140237 
728	 0.109340971737537 
729	 0.108655544599938 
730	 0.108849905622311 
731	 0.109364281328773 
732	 0.109226967751199 
733	 0.10924216887573 
734	 0.109422567769487 
735	 0.109100173603707 
736	 0.109241438550979 
737	 0.110288255681976 
738	 0.110087196710259 
739	 0.109264975027119 
740	 0.10955344630658 
741	 0.109729591280341 
742	 0.109615372238768 
743	 0.110037005870054 
744	 0.110448115625673 
745	 0.110378448337323 
746	 0.110103249360529 
747	 0.109826276453423 
748	 0.109896912032749 
749	 0.109975272132368 
750	 0.109997494942706 
751	 0.110315965678429 
752	 0.110656547999304 
753	 0.11071714138944 
754	 0.110772879565431 
755	 0.110896809026061 
756	 0.111185502395819 
757	 0.11111959137699 
758	 0.110609119260577 
759	 0.111367229794153 
760	 0.113232194665569 
761	 0.113010879218503 
762	 0.113037723612272 
763	 0.113557378700287 
764	 0.113117456141371 
765	 0.112826048568271 
766	 0.11293530403922 
767	 0.112539062618369 
768	 0.112146318071201 
769	 0.112418237160604 
770	 0.112511825480275 
771	 0.112351664827261 
772	 0.112425992072308 
773	 0.112591292255312 
774	 0.112750147852246 
775	 0.112928546751789 
776	 0.113131672753968 
777	 0.113385712958406 
778	 0.113474852464577 
779	 0.113350011964056 
780	 0.11304813209183 
781	 0.113073475426303 
782	 0.113737105075655 
783	 0.113945240815811 
784	 0.113723734775238 
785	 0.113514362684986 
786	 0.113528349411494 
787	 0.113763803000042 
788	 0.113657505126245 
789	 0.113651966512745 
790	 0.114149966247508 
791	 0.114552121856852 
792	 0.114687448273879 
793	 0.114409697819995 
794	 0.114323995832809 
795	 0.114560456790674 
796	 0.114440474044799 
797	 0.114348328108566 
798	 0.114684554246432 
799	 0.114981474763742 
800	 0.115171813658419 
801	 0.115366170355546 
802	 0.1153787328089 
803	 0.115185150831475 
804	 0.115090618303227 
805	 0.114957648727877 
806	 0.114644953194023 
807	 0.114932674098067 
808	 0.115610775644257 
809	 0.115649277023489 
810	 0.115432841331167 
811	 0.115199133733457 
812	 0.115424862360722 
813	 0.115818250765029 
814	 0.115930890512123 
815	 0.11632001413882 
816	 0.116892956024677 
817	 0.116979015992093 
818	 0.116818912469205 
819	 0.116644988733479 
820	 0.117072665320992 
821	 0.117398606172947 
822	 0.11677734329611 
823	 0.116802105261473 
824	 0.117406913846843 
825	 0.117433395788327 
826	 0.116901025073358 
827	 0.116046057067183 
828	 0.116461405843436 
829	 0.117350769144414 
830	 0.117538820474134 
831	 0.117201681350781 
832	 0.11682205553176 
833	 0.117825589302775 
834	 0.118041323863855 
835	 0.116817963821646 
836	 0.116096881702811 
837	 0.1161647104041 
838	 0.117089483967634 
839	 0.117419399129965 
840	 0.117126390573655 
841	 0.117167053701179 
842	 0.117176269534786 
843	 0.116958338342331 
844	 0.116115162817294 
845	 0.115574116851979 
846	 0.116348651586356 
847	 0.117182162595844 
848	 0.117604779751934 
849	 0.117071564658063 
850	 0.116845385788522 
851	 0.117436138054193 
852	 0.118323549487523 
853	 0.118762363186653 
854	 0.118078032911208 
855	 0.11758476237015 
856	 0.117443754531133 
857	 0.117276751840021 
858	 0.117213805510286 
859	 0.117261011285484 
860	 0.117292347308164 
861	 0.11731823905279 
862	 0.117388096251519 
863	 0.118083567814088 
864	 0.118719316922718 
865	 0.11734133057976 
866	 0.116978662427034 
867	 0.118126611343861 
868	 0.117733578119122 
869	 0.11721109177239 
870	 0.117685472794096 
871	 0.117476629571262 
872	 0.116888091099489 
873	 0.116969728724565 
874	 0.117272619167545 
875	 0.117775009635784 
876	 0.119035949613624 
877	 0.119623367287101 
878	 0.118636392905329 
879	 0.117439647450292 
880	 0.116839266603682 
881	 0.117731679591669 
882	 0.118668549719915 
883	 0.119105118963042 
884	 0.118756744003545 
885	 0.118614733681799 
886	 0.119171214004792 
887	 0.119527421958081 
888	 0.119602835672485 
889	 0.119422998653711 
890	 0.118194852015184 
891	 0.11680242292961 
892	 0.118631514957447 
893	 0.120430707649745 
894	 0.120559854203453 
895	 0.119738566378199 
896	 0.118389579111989 
897	 0.117150687977287 
898	 0.117883297023373 
899	 0.120060175345268 
900	 0.121424528667427 
901	 0.121295243000309 
902	 0.119949533432452 
903	 0.120084019506568 
904	 0.119749507367249 
905	 0.117742931422785 
906	 0.11844448075965 
907	 0.11987389305303 
908	 0.117297731113615 
909	 0.117041286416009 
910	 0.119783300625432 
911	 0.120743807392187 
912	 0.120165902997347 
913	 0.118733779147092 
914	 0.120260328021607 
915	 0.121880415870341 
916	 0.11983011651314 
917	 0.118505752268754 
918	 0.118677983190646 
919	 0.119810617204378 
920	 0.120931363596445 
921	 0.121280813559688 
922	 0.119341113424332 
923	 0.117911490517398 
924	 0.119493676559529 
925	 0.121288009914311 
926	 0.122284736986795 
927	 0.121367891211885 
928	 0.11994581840327 
929	 0.119390832632381 
930	 0.123892666961347 
931	 0.125320578129398 
932	 0.117737783371278 
933	 0.115821240992141 
934	 0.12004616617601 
935	 0.12626464640176 
936	 0.124598044346287 
937	 0.118492237878372 
938	 0.124304583313598 
939	 0.127815042669249 
940	 0.125525657502666 
941	 0.122499011537181 
942	 0.117379435164302 
943	 0.110730401587413 
944	 0.118128261145958 
945	 0.127569014598657 
946	 0.117242324790686 
947	 0.117256014538879 
948	 0.127649889997227 
949	 0.122922395333657 
950	 0.118167670250386 
951	 0.119207601126493 
952	 0.120845417185011 
953	 0.121681263392369 
954	 0.120791537102 
955	 0.119368119769651 
956	 0.11894520487673 
957	 0.121967868480604 
958	 0.121103888404193 
959	 0.116328446557983 
960	 0.113097715073563 
961	 0.115482212327985 
962	 0.123540941490637 
963	 0.127280687917567 
964	 0.128241281905285 
965	 0.128496793895833 
966	 0.122539188520553 
967	 0.115596818102306 
968	 0.119170023510419 
969	 0.122293992042113 
970	 0.121934085354612 
971	 0.118390064036209 
972	 0.118329349121654 
973	 0.123587346229035 
974	 0.120343889763119 
975	 0.115876780991092 
976	 0.119076548552881 
977	 0.118572371427489 
978	 0.116791348977472 
979	 0.123643505138494 
980	 0.126026366350983 
981	 0.121909474317274 
982	 0.118299843697229 
983	 0.118737833276365 
984	 0.123363495344102 
985	 0.119782187951465 
986	 0.116986810532924 
987	 0.124505690181607 
988	 0.125214001712014 
989	 0.120920753483322 
990	 0.121515318009528 
991	 0.121338398877186 
992	 0.12032599603832 
993	 0.123466447318389 
994	 0.126538011604095 
995	 0.127397787071138 
996	 0.127670928387133 
997	 0.12552569536903 
998	 0.120054011361814 
999	 0.122080163628305 
1000	 0.126912514027247 
1001	 0.122969915279534 
1002	 0.122248118850952 
1003	 0.124897482739717 
1004	 0.121237352108102 
1005	 0.118162464233439 
1006	 0.118618641170988 
1007	 0.121980289313096 
1008	 0.12564619024214 
1009	 0.126943497055957 
1010	 0.122002396740853 
1011	 0.117330865174824 
1012	 0.122055638162993 
1013	 0.124114948579854 
1014	 0.12240575253462 
1015	 0.120516835860639 
1016	 0.123708080853851 
1017	 0.128894536417945 
1018	 0.115924360315259 
1019	 0.108106462858206 
1020	 0.117068245939655 
1021	 0.121942258172729 
1022	 0.122080081111767 
1023	 0.1187365708231 
1024	 0.114892312315036 
1025	 0.112151069421126 
1026	 0.112237270570145 
1027	 0.12379484568466 
1028	 0.138102725366876 
1029	 0.126152541988322 
1030	 0.121878766752459 
1031	 0.133549025860165 
1032	 0.139428655713179 
1033	 0.131493449092036 
1034	 0.10906768011717 
1035	 0.103034568921464 
1036	 0.111640136053938 
1037	 0.12596658541061 
1038	 0.120783877421845 
1039	 0.10915573805068 
1040	 0.121328176081639 
1041	 0.122981068926504 
1042	 0.114695686940742 
1043	 0.123680572867188 
1044	 0.131093846080868 
1045	 0.127914554024138 
1046	 0.105681837778735 
1047	 9.78335899995116E-02 
1048	 0.118996594640778 
1049	 0.132513230862072 
1050	 0.137074141022082 
1051	 0.133529923686884 
1052	 0.113299058933966 
1053	 0.102676435215755 
1054	 0.139641632356485 
1055	 0.137306940099211 
1056	 0.104604158554951 
1057	 0.116146436087624 
1058	 0.120332867683534 
1059	 0.11600926236302 
1060	 0.155372560493599 
1061	 0.159454836847603 
1062	 0.105835866687541 
1063	 9.01276811227258E-02 
1064	 0.102733975529359 
1065	 0.125466995798225 
1066	 0.124482158083563 
1067	 9.96200065342929E-02 
1068	 0.057858646444387 
1069	 7.37687128988983E-02 
1070	 0.120094185078496 
1071	 0.139662736456101 
1072	 0.107922170519816 
1073	 5.82854805816389E-02 
1074	 9.24735352330958E-02 
1075	 0.119826818594147 
