Wavelength	AVEI200417.asd
325	 4.04873221970384E-02 
326	 3.11201987431086E-02 
327	 2.70930551223863E-02 
328	 2.90339283045797E-02 
329	 3.30268621264453E-02 
330	 3.66239209488896E-02 
331	 3.79343018365851E-02 
332	 3.62961417630178E-02 
333	 3.15805704443808E-02 
334	 0.030577328332645 
335	 3.26452716783293E-02 
336	 3.36067718799305E-02 
337	 3.32737334701811E-02 
338	 3.19010322942108E-02 
339	 3.10440140712691E-02 
340	 3.24031867914334E-02 
341	 3.66667656923623E-02 
342	 0.037251271086997 
343	 3.56024610109733E-02 
344	 3.66038427450219E-02 
345	 3.62846767971931E-02 
346	 3.40744494949842E-02 
347	 3.14169235640188E-02 
348	 3.07995165091428E-02 
349	 3.32067174740368E-02 
350	 0.032020412582123 
351	 3.00640752838205E-02 
352	 3.33363283292618E-02 
353	 3.44900825251736E-02 
354	 3.27843080485284E-02 
355	 0.03256612943269 
356	 3.27125038843677E-02 
357	 3.25803808156863E-02 
358	 3.29774266497595E-02 
359	 3.32987342909604E-02 
360	 3.25171252535951E-02 
361	 3.25595004335434E-02 
362	 3.31956150974569E-02 
363	 3.18292782280826E-02 
364	 3.11634378708312E-02 
365	 3.23273773511938E-02 
366	 3.23341931585911E-02 
367	 3.17351973348962E-02 
368	 0.031670099575517 
369	 3.27421704421268E-02 
370	 3.41707506768025E-02 
371	 0.032841209283102 
372	 3.17968813835331E-02 
373	 3.24119589366585E-02 
374	 3.18226559585809E-02 
375	 3.06538310176044E-02 
376	 3.01692123873801E-02 
377	 3.17491816883134E-02 
378	 3.43759729104109E-02 
379	 3.37943073495132E-02 
380	 3.22854245389725E-02 
381	 3.11514890178636E-02 
382	 3.02860618982843E-02 
383	 3.03405899558581E-02 
384	 3.20806779671782E-02 
385	 3.26583126452665E-02 
386	 3.17714799071214E-02 
387	 0.030953971945575 
388	 3.07651730711128E-02 
389	 3.12213456899138E-02 
390	 0.030367989453544 
391	 2.95055123854273E-02 
392	 3.02856504898209E-02 
393	 3.07152511314414E-02 
394	 3.06634094517927E-02 
395	 3.10108169222492E-02 
396	 0.031640983337884 
397	 3.21849597535041E-02 
398	 3.10034738068718E-02 
399	 2.94028066428803E-02 
400	 2.88067468145247E-02 
401	 2.97365875453756E-02 
402	 3.11551707374486E-02 
403	 3.02494843792681E-02 
404	 2.99426901138861E-02 
405	 3.10532728935699E-02 
406	 3.07193417843939E-02 
407	 2.99890835694951E-02 
408	 3.04307658531008E-02 
409	 3.06359572425699E-02 
410	 3.04706218383077E-02 
411	 0.030512921561986 
412	 3.03900335167083E-02 
413	 3.00219889937113E-02 
414	 3.00227336006146E-02 
415	 3.02191437844513E-02 
416	 0.030311569638211 
417	 3.01684443595205E-02 
418	 2.99349647754713E-02 
419	 3.02109596313236E-02 
420	 3.03432011603827E-02 
421	 3.00748588778146E-02 
422	 0.030331324238179 
423	 3.07207557619885E-02 
424	 0.030535279396098 
425	 3.02466888122017E-02 
426	 3.00185845487578E-02 
427	 2.99687217129294E-02 
428	 2.99512935917596E-02 
429	 2.99065044907563E-02 
430	 3.01495463331282E-02 
431	 3.05853861635783E-02 
432	 3.10258187821667E-02 
433	 0.030789416053606 
434	 3.00402838070281E-02 
435	 0.030021844591046 
436	 3.02823834356567E-02 
437	 3.05148731832772E-02 
438	 3.10199604017747E-02 
439	 3.13988682447691E-02 
440	 3.08410247478819E-02 
441	 3.04913000071687E-02 
442	 3.07061888622933E-02 
443	 3.13480435178649E-02 
444	 3.17668615527312E-02 
445	 3.14960684105993E-02 
446	 3.14248456815614E-02 
447	 3.15076737620024E-02 
448	 3.12828736436965E-02 
449	 3.10076077448775E-02 
450	 3.09127413482965E-02 
451	 3.16854435467668E-02 
452	 0.032372956744042 
453	 3.20384219802127E-02 
454	 3.16970504997352E-02 
455	 3.15929988950005E-02 
456	 3.17694735569106E-02 
457	 3.20888025291132E-02 
458	 3.24328060317193E-02 
459	 3.26120564318173E-02 
460	 3.26083877726339E-02 
461	 3.24369205397821E-02 
462	 3.25200871090035E-02 
463	 3.28291391794278E-02 
464	 3.29139973140197E-02 
465	 3.31007807456879E-02 
466	 0.033453296006585 
467	 0.033204868470752 
468	 3.28158051470159E-02 
469	 3.30771008865978E-02 
470	 3.32979458609596E-02 
471	 3.33728969157662E-02 
472	 3.36369220930198E-02 
473	 3.37524152571248E-02 
474	 3.35558982576756E-02 
475	 3.36137625622042E-02 
476	 3.37638199078923E-02 
477	 3.35793058245537E-02 
478	 3.33773986869095E-02 
479	 3.33546126563351E-02 
480	 3.38869385251172E-02 
481	 3.44187306637936E-02 
482	 3.44921342702746E-02 
483	 3.43638960550657E-02 
484	 3.41046417731289E-02 
485	 3.36590017119192E-02 
486	 3.39734258364543E-02 
487	 3.50405338109224E-02 
488	 3.48055339411875E-02 
489	 3.41526588778885E-02 
490	 3.41333896075983E-02 
491	 3.44206036934216E-02 
492	 3.47708675273809E-02 
493	 3.46542037480157E-02 
494	 3.46996399003236E-02 
495	 3.50696671027428E-02 
496	 3.48979718786719E-02 
497	 3.47509025286771E-02 
498	 3.54533616409718E-02 
499	 3.57557812788997E-02 
500	 3.56070600172574E-02 
501	 3.59812749438495E-02 
502	 3.62824799760081E-02 
503	 3.62434671914473E-02 
504	 3.68112525132402E-02 
505	 3.74884241412112E-02 
506	 3.72289492142989E-02 
507	 3.74283646876214E-02 
508	 3.81714739109134E-02 
509	 3.81116153454471E-02 
510	 3.78775116051521E-02 
511	 3.80110173007436E-02 
512	 3.84091553232912E-02 
513	 3.89350063285842E-02 
514	 3.93203829924312E-02 
515	 3.96398242065676E-02 
516	 3.99275292002538E-02 
517	 4.03010086940375E-02 
518	 4.06175853084916E-02 
519	 0.040732404762054 
520	 4.12663874456899E-02 
521	 4.20119223954336E-02 
522	 4.20820499793781E-02 
523	 4.21088217271343E-02 
524	 4.23974614928128E-02 
525	 0.042890793061706 
526	 4.34246855924626E-02 
527	 4.37699935007099E-02 
528	 4.40842144318273E-02 
529	 4.44186311598259E-02 
530	 4.48657359162149E-02 
531	 4.50793091421316E-02 
532	 4.49108098150877E-02 
533	 0.045197029922408 
534	 4.58486514291137E-02 
535	 4.65032622101778E-02 
536	 4.66092875680203E-02 
537	 4.61790887072651E-02 
538	 4.61751749594273E-02 
539	 4.66229977404987E-02 
540	 4.74512130664885E-02 
541	 4.79031627505613E-02 
542	 4.79659151555546E-02 
543	 4.80744952283008E-02 
544	 4.82591707977985E-02 
545	 4.85141598016163E-02 
546	 0.048593309791926 
547	 4.85563490881662E-02 
548	 4.85092139333528E-02 
549	 4.88415892016152E-02 
550	 4.94302807723419E-02 
551	 0.049513783724971 
552	 4.95295822368792E-02 
553	 4.97526436371193E-02 
554	 5.00241040353683E-02 
555	 5.02719355581062E-02 
556	 5.04012458942919E-02 
557	 5.05303709447621E-02 
558	 5.06640883399324E-02 
559	 5.06314052105955E-02 
560	 5.06037276751696E-02 
561	 5.07498302029982E-02 
562	 5.11250251598394E-02 
563	 0.051485153684246 
564	 5.11409178417806E-02 
565	 5.10169106647535E-02 
566	 5.13570569331701E-02 
567	 5.10657950698681E-02 
568	 5.06508344132474E-02 
569	 5.08819978922323E-02 
570	 5.12575380327896E-02 
571	 5.15418901797013E-02 
572	 5.14033870471442E-02 
573	 0.051235452793309 
574	 0.051303502858922 
575	 5.16642763316029E-02 
576	 5.19081729274048E-02 
577	 5.12609350421871E-02 
578	 5.07863594649494E-02 
579	 5.08569626953228E-02 
580	 5.14479581435197E-02 
581	 5.18194961915148E-02 
582	 5.13970280493909E-02 
583	 5.14679223268168E-02 
584	 5.19340346844952E-02 
585	 5.19307214381202E-02 
586	 5.18235726815712E-02 
587	 0.051761766543299 
588	 5.17793628572933E-02 
589	 5.19880300168283E-02 
590	 5.25045560158055E-02 
591	 5.26387844382623E-02 
592	 5.24145182947894E-02 
593	 5.25242055859311E-02 
594	 5.26663859176176E-02 
595	 5.26469634276537E-02 
596	 5.23301968429614E-02 
597	 5.20457850818759E-02 
598	 5.23959184074267E-02 
599	 5.27046771158805E-02 
600	 5.27495810817566E-02 
601	 5.25274875942148E-02 
602	 0.052503311442605 
603	 5.30208208856659E-02 
604	 5.30560696463251E-02 
605	 5.27179112482793E-02 
606	 5.27837148090394E-02 
607	 5.27509553423533E-02 
608	 5.25075935784792E-02 
609	 5.25242211664785E-02 
610	 5.27321714918302E-02 
611	 0.052986804853374 
612	 5.31523423681529E-02 
613	 5.31212190701187E-02 
614	 5.27017703640822E-02 
615	 5.23001403567101E-02 
616	 0.052153510274844 
617	 5.18700457689542E-02 
618	 5.16378782083208E-02 
619	 5.18541882760381E-02 
620	 0.052260830747129 
621	 5.26303038816679E-02 
622	 5.23522383577482E-02 
623	 5.21833206226704E-02 
624	 5.27775778708014E-02 
625	 5.32219889908093E-02 
626	 5.32817206421062E-02 
627	 5.27751234963678E-02 
628	 5.24935101812654E-02 
629	 5.27478561926532E-02 
630	 5.30571295413326E-02 
631	 5.33263561675545E-02 
632	 5.34944980104907E-02 
633	 5.32962619729563E-02 
634	 5.30156395987212E-02 
635	 5.38349179621655E-02 
636	 5.42824132141307E-02 
637	 5.36223492943294E-02 
638	 0.053532225243125 
639	 0.053743593023001 
640	 5.33569259671572E-02 
641	 5.31900937509999E-02 
642	 5.33888361264447E-02 
643	 5.34869970087701E-02 
644	 5.33878770099239E-02 
645	 5.30437922316003E-02 
646	 5.28373242879459E-02 
647	 5.28303664412366E-02 
648	 5.29787796692555E-02 
649	 5.30555859898432E-02 
650	 5.29609575705819E-02 
651	 0.052811247202846 
652	 5.26227776725106E-02 
653	 5.24037866816609E-02 
654	 5.26182015951864E-02 
655	 5.31146728896111E-02 
656	 5.30135786039917E-02 
657	 5.23852469714143E-02 
658	 5.14593139648878E-02 
659	 5.11443803423137E-02 
660	 5.12008849462604E-02 
661	 5.11154122035014E-02 
662	 5.06481333647318E-02 
663	 4.99172738751264E-02 
664	 4.97765474051629E-02 
665	 4.98871631230477E-02 
666	 4.99079318496817E-02 
667	 4.95875314316422E-02 
668	 4.90105302117021E-02 
669	 4.84604737352138E-02 
670	 4.81359312065896E-02 
671	 4.80842496822998E-02 
672	 4.79066133632868E-02 
673	 4.79173071040326E-02 
674	 4.84892255709487E-02 
675	 4.89107044498762E-02 
676	 4.90748907340202E-02 
677	 4.91871906039408E-02 
678	 4.94570146495561E-02 
679	 4.99715395525397E-02 
680	 5.03972396548427E-02 
681	 5.07384063171186E-02 
682	 5.10549242899682E-02 
683	 5.17050505309126E-02 
684	 0.052684996138043 
685	 5.35069835246997E-02 
686	 5.46319199468022E-02 
687	 5.64189823775079E-02 
688	 5.78447552739311E-02 
689	 5.88532511653335E-02 
690	 6.01429206418021E-02 
691	 6.16137849479109E-02 
692	 6.32986549697171E-02 
693	 6.51417450188844E-02 
694	 6.69049352727512E-02 
695	 6.82987923109383E-02 
696	 7.05904977328571E-02 
697	 0.073324818703705 
698	 7.47210264169599E-02 
699	 7.61657847321142E-02 
700	 0.078225435924513 
701	 8.02437027023961E-02 
702	 8.20374295651297E-02 
703	 8.34976250487896E-02 
704	 8.46686173284466E-02 
705	 8.59047743741891E-02 
706	 8.82721870903766E-02 
707	 9.03313920117435E-02 
708	 9.11927372373658E-02 
709	 9.17116786515371E-02 
710	 9.24728073095481E-02 
711	 9.43128887797482E-02 
712	 9.58781214064864E-02 
713	 9.69042832550644E-02 
714	 9.83491936724046E-02 
715	 9.98810358904501E-02 
716	 0.101267579001381 
717	 0.103031717336791 
718	 0.104819229205106 
719	 0.104862625362287 
720	 0.105075802371273 
721	 0.106068195917452 
722	 0.107037029475022 
723	 0.107935006661246 
724	 0.108650291998803 
725	 0.109237876790732 
726	 0.109779958835242 
727	 0.110597274422635 
728	 0.111637165460231 
729	 0.112736255615522 
730	 0.112978114191472 
731	 0.113063480631733 
732	 0.114049179143209 
733	 0.114585292757459 
734	 0.114570107160334 
735	 0.114511364562627 
736	 0.114851184329138 
737	 0.115796046472739 
738	 0.116364752451877 
739	 0.11676275808263 
740	 0.117669759413808 
741	 0.118217921784158 
742	 0.118260589368672 
743	 0.118327143357539 
744	 0.118538054068364 
745	 0.118979518357138 
746	 0.119585905493352 
747	 0.120205024563476 
748	 0.120566141335843 
749	 0.120716627429426 
750	 0.120811970540751 
751	 0.121509919432336 
752	 0.122523406033776 
753	 0.123460126132814 
754	 0.12361746394417 
755	 0.123275709293046 
756	 0.123631244266083 
757	 0.12418253464067 
758	 0.124756662519566 
759	 0.125245432748463 
760	 0.126126319590008 
761	 0.12772118504274 
762	 0.129645701506431 
763	 0.130761659286189 
764	 0.129567251631145 
765	 0.128400277344292 
766	 0.128071728232047 
767	 0.128100164704486 
768	 0.12830239638783 
769	 0.128576889636019 
770	 0.128562017149619 
771	 0.128519193902802 
772	 0.1297903668116 
773	 0.130832384990724 
774	 0.130682968261329 
775	 0.130559236906423 
776	 0.130779967208265 
777	 0.13161705286675 
778	 0.131986137292081 
779	 0.131769081132797 
780	 0.132028760193546 
781	 0.132412151769011 
782	 0.132659018027658 
783	 0.133315218884307 
784	 0.134174822795974 
785	 0.134654181674206 
786	 0.134937876623654 
787	 0.135146510590418 
788	 0.135605898140961 
789	 0.136013404516377 
790	 0.136103365264101 
791	 0.136543341644236 
792	 0.137145133065078 
793	 0.13711440691348 
794	 0.137345799201896 
795	 0.13804326702365 
796	 0.138490085922009 
797	 0.138806956349172 
798	 0.13915697693556 
799	 0.13945928132049 
800	 0.139686212080786 
801	 0.139719927741876 
802	 0.140050564303955 
803	 0.140767707695881 
804	 0.141183076722433 
805	 0.141392134881432 
806	 0.141583334277619 
807	 0.142271720405533 
808	 0.143184034357412 
809	 0.143094905046519 
810	 0.143511057201599 
811	 0.144785770478074 
812	 0.144422108830346 
813	 0.143891773237952 
814	 0.145440564709421 
815	 0.146078507796905 
816	 0.145802966904901 
817	 0.147288238105526 
818	 0.148762357472444 
819	 0.149306902602003 
820	 0.14842842661551 
821	 0.147507853630787 
822	 0.148153140328423 
823	 0.14874728492501 
824	 0.148833253981833 
825	 0.148155686196671 
826	 0.148211942900445 
827	 0.149475880214525 
828	 0.15049035636476 
829	 0.150834988532579 
830	 0.150238333246488 
831	 0.150264390053878 
832	 0.150961819490153 
833	 0.151399151557505 
834	 0.151696254986562 
835	 0.151799872613296 
836	 0.151181250007273 
837	 0.150987613982731 
838	 0.152455272496107 
839	 0.153422304161781 
840	 0.153542569390051 
841	 0.15316560837344 
842	 0.15327664204476 
843	 0.154161854738738 
844	 0.15458606521761 
845	 0.154622192501921 
846	 0.154498984252517 
847	 0.154904571421779 
848	 0.155428259757154 
849	 0.154233594496741 
850	 0.154166668333265 
851	 0.155907312592339 
852	 0.155869518689165 
853	 0.155368846968959 
854	 0.156086712354329 
855	 0.157150604282968 
856	 0.158095034089544 
857	 0.158213177562743 
858	 0.158349526130175 
859	 0.158620342440427 
860	 0.157926205522617 
861	 0.157474974970942 
862	 0.158359393395528 
863	 0.15868392402066 
864	 0.158498287649775 
865	 0.158710804796076 
866	 0.159596172974903 
867	 0.160910417451773 
868	 0.161066260660773 
869	 0.160812655735883 
870	 0.160855350817753 
871	 0.16124737746425 
872	 0.161661504013778 
873	 0.161431264855817 
874	 0.160976376528248 
875	 0.161048711965261 
876	 0.164239116135647 
877	 0.166185585697261 
878	 0.164313925360038 
879	 0.164784131888054 
880	 0.166397034150265 
881	 0.165785180736369 
882	 0.16655563142422 
883	 0.168547306067041 
884	 0.167741006868467 
885	 0.167350048166062 
886	 0.168807430267865 
887	 0.168399907076927 
888	 0.167542161555037 
889	 0.168584296879986 
890	 0.16851683451929 
891	 0.167553999472237 
892	 0.168835434654259 
893	 0.169361470110249 
894	 0.168334497131844 
895	 0.170716371780099 
896	 0.173339751129997 
897	 0.172054622956395 
898	 0.17266584562098 
899	 0.174561984311064 
900	 0.172818447841483 
901	 0.172623442736505 
902	 0.174854581090034 
903	 0.175660630550989 
904	 0.174817147664176 
905	 0.172723816170787 
906	 0.1741518979009 
907	 0.176286929613736 
908	 0.172649777676861 
909	 0.171736757908261 
910	 0.175112308917681 
911	 0.178496276119995 
912	 0.179477737390294 
913	 0.177051227264689 
914	 0.174803218730843 
915	 0.174157719307952 
916	 0.176091667884939 
917	 0.17862725934823 
918	 0.180457642516466 
919	 0.179618138709419 
920	 0.178855702850595 
921	 0.178931576819236 
922	 0.178443941605453 
923	 0.176584843387292 
924	 0.173148262084006 
925	 0.174279986890604 
926	 0.178103476858083 
927	 0.17754240611952 
928	 0.179053012544977 
929	 0.183079943319793 
930	 0.17946312806343 
931	 0.1776056960102 
932	 0.18481530725777 
933	 0.18501210699887 
934	 0.184489337842476 
935	 0.195585586811567 
936	 0.190839371066794 
937	 0.174127064274453 
938	 0.171327670540406 
939	 0.179718862144686 
940	 0.193037605810388 
941	 0.190708862403487 
942	 0.181845819886062 
943	 0.175425068345027 
944	 0.186639776615715 
945	 0.199241826102574 
946	 0.18504920119369 
947	 0.181091694334631 
948	 0.189009046794532 
949	 0.180689126634144 
950	 0.178125746537038 
951	 0.186001294398481 
952	 0.179409097283734 
953	 0.1714481036619 
954	 0.174868354103377 
955	 0.176468355024411 
956	 0.177518521512922 
957	 0.184069056725779 
958	 0.187070791745297 
959	 0.184502943962981 
960	 0.178271312182201 
961	 0.172269875692359 
962	 0.16943469260144 
963	 0.173247811001675 
964	 0.179023923450132 
965	 0.182353377320487 
966	 0.185421180133954 
967	 0.187692034204309 
968	 0.188135978604473 
969	 0.182647254988963 
970	 0.174442777938558 
971	 0.179213427857635 
972	 0.180677094750178 
973	 0.172773100705775 
974	 0.17664414614643 
975	 0.186370781920871 
976	 0.192601608525711 
977	 0.190822930522107 
978	 0.183995727295547 
979	 0.180380379690916 
980	 0.178906218703637 
981	 0.179975642378171 
982	 0.186257194699786 
983	 0.186631322246083 
984	 0.177848550947842 
985	 0.178311624993074 
986	 0.182043425013172 
987	 0.181223927093918 
988	 0.180902028173061 
989	 0.18131557000649 
990	 0.18122737181276 
991	 0.182347732074524 
992	 0.184480964810868 
993	 0.185178075292642 
994	 0.185826945605111 
995	 0.187228343600611 
996	 0.190456846219207 
997	 0.190361887991233 
998	 0.182898142054615 
999	 0.181470023914701 
1000	 0.183211676405869 
1001	 0.17889350732971 
1002	 0.179703408079842 
1003	 0.185061521848662 
1004	 0.183763528474959 
1005	 0.183399458325195 
1006	 0.186346970117881 
1007	 0.18785901460214 
1008	 0.189638916987546 
1009	 0.192631707953898 
1010	 0.192841929464338 
1011	 0.191032964867319 
1012	 0.18898425000666 
1013	 0.18525101389481 
1014	 0.179418612103462 
1015	 0.169218759526046 
1016	 0.175212790026991 
1017	 0.196056896674336 
1018	 0.199416913134948 
1019	 0.193646169179766 
1020	 0.186523822126877 
1021	 0.193756421101494 
1022	 0.202928422417239 
1023	 0.200324625647665 
1024	 0.188409154081349 
1025	 0.181809489451042 
1026	 0.201653375067137 
1027	 0.212052688031208 
1028	 0.206356057220143 
1029	 0.193605697306813 
1030	 0.181084665841155 
1031	 0.174712065786809 
1032	 0.179438177415921 
1033	 0.186971345733709 
1034	 0.191901479386817 
1035	 0.198425921211791 
1036	 0.200162888540857 
1037	 0.192412146041562 
1038	 0.200445872880037 
1039	 0.215714214006952 
1040	 0.216312561690362 
1041	 0.212694104875631 
1042	 0.2059149086141 
1043	 0.19073480289473 
1044	 0.188811440042908 
1045	 0.200211597954527 
1046	 0.184557278082138 
1047	 0.185593509424051 
1048	 0.215864628661279 
1049	 0.196927094860062 
1050	 0.175289634644809 
1051	 0.199061697904103 
1052	 0.215566827889365 
1053	 0.21754155041906 
1054	 0.206660126003184 
1055	 0.179723914920594 
1056	 0.157876031615641 
1057	 0.191640847478143 
1058	 0.204628041732456 
1059	 0.191178934427561 
1060	 0.219704561388196 
1061	 0.220866048409045 
1062	 0.177727822771944 
1063	 0.194950683666769 
1064	 0.219834042051304 
1065	 0.214247423870318 
1066	 0.196574126831313 
1067	 0.184612313268302 
1068	 0.193506124991349 
1069	 0.184041333500995 
1070	 0.157780701014612 
1071	 0.137165365795478 
1072	 0.14940311988868 
1073	 0.180136655074355 
1074	 0.183905195028685 
1075	 0.203395267744288 
