Wavelength	AVEI200012.asd
325	 3.50363428367488E-02 
326	 0.036652035147546 
327	 4.07890922129703E-02 
328	 0.042973127619916 
329	 4.20524243014665E-02 
330	 0.038682421737387 
331	 3.85805849767571E-02 
332	 3.92512240574163E-02 
333	 3.80633089940189E-02 
334	 0.037258192171613 
335	 3.68870319503932E-02 
336	 3.57602777989801E-02 
337	 3.74649723684715E-02 
338	 4.12991488839978E-02 
339	 3.93460365349423E-02 
340	 3.60816789851372E-02 
341	 3.53964282479062E-02 
342	 3.44589919227234E-02 
343	 3.39787723400279E-02 
344	 0.036201250441573 
345	 0.036963585454583 
346	 3.57672832833019E-02 
347	 3.56475814620969E-02 
348	 3.47993448829296E-02 
349	 3.25574974371677E-02 
350	 3.47730926123681E-02 
351	 3.76152178837213E-02 
352	 3.40090794484457E-02 
353	 0.032368897342388 
354	 0.033804919351081 
355	 3.42600848368859E-02 
356	 3.43778366382515E-02 
357	 3.44443685328497E-02 
358	 3.33777474928376E-02 
359	 3.24277217560506E-02 
360	 3.36161017563102E-02 
361	 3.29935164558684E-02 
362	 3.08108879406409E-02 
363	 0.031153270314937 
364	 3.23491068873056E-02 
365	 3.31873687581539E-02 
366	 3.24409010040908E-02 
367	 0.031022683174187 
368	 3.02759487011634E-02 
369	 3.06275276091153E-02 
370	 3.15606512811431E-02 
371	 3.07993599854501E-02 
372	 3.12103871184745E-02 
373	 0.033636020209276 
374	 3.24568021306719E-02 
375	 0.030454480740121 
376	 3.21607071952605E-02 
377	 3.29799900104327E-02 
378	 3.21908450373771E-02 
379	 3.12038105261382E-02 
380	 3.03026778778747E-02 
381	 2.97728660951804E-02 
382	 0.029790269903461 
383	 0.030072872461576 
384	 0.030243123427954 
385	 3.00985315452068E-02 
386	 3.01123710242667E-02 
387	 3.21389138662593E-02 
388	 3.27666410478318E-02 
389	 3.10443259324578E-02 
390	 3.14828126387318E-02 
391	 3.26030241232592E-02 
392	 3.22577321947758E-02 
393	 3.07472692830855E-02 
394	 2.91925320999481E-02 
395	 3.05374251415426E-02 
396	 3.16165163686304E-02 
397	 3.12575138254388E-02 
398	 3.13182667856849E-02 
399	 3.13796706270717E-02 
400	 3.08860225246106E-02 
401	 0.030648331134208 
402	 3.05780945988428E-02 
403	 2.99624025627882E-02 
404	 2.99151161460517E-02 
405	 3.06244454830091E-02 
406	 3.02907919271889E-02 
407	 2.97594193961583E-02 
408	 3.02301036471911E-02 
409	 3.01658713495622E-02 
410	 2.97042024460508E-02 
411	 3.03501722206624E-02 
412	 0.030455107758675 
413	 2.95432586096945E-02 
414	 2.98896516237515E-02 
415	 3.05872529804703E-02 
416	 3.02140247722986E-02 
417	 2.98007292461327E-02 
418	 2.97022669167838E-02 
419	 3.03055314917632E-02 
420	 3.06840290622516E-02 
421	 0.030354149726698 
422	 2.97644061823173E-02 
423	 2.94171756371018E-02 
424	 2.99394506775304E-02 
425	 3.01948318635291E-02 
426	 0.030015607118002 
427	 2.99637184258978E-02 
428	 2.99579354893575E-02 
429	 2.99194393370185E-02 
430	 2.95722858116579E-02 
431	 2.92716430351679E-02 
432	 2.96556703841068E-02 
433	 0.030045032701956 
434	 3.01691864841402E-02 
435	 2.98300266943802E-02 
436	 2.95331284189868E-02 
437	 2.96041077694787E-02 
438	 0.029754075252121 
439	 2.98784779435934E-02 
440	 2.98642946055794E-02 
441	 2.98693934767102E-02 
442	 2.99550480567585E-02 
443	 3.01616823631785E-02 
444	 3.03117238518137E-02 
445	 3.02912654967484E-02 
446	 3.05424234530574E-02 
447	 3.08574441319022E-02 
448	 3.05860083707837E-02 
449	 0.030495502836105 
450	 3.07522772728711E-02 
451	 3.07768115068354E-02 
452	 3.07456294067614E-02 
453	 3.08633694571195E-02 
454	 3.10814216822215E-02 
455	 3.13000417498601E-02 
456	 3.12667616033229E-02 
457	 3.12704349075435E-02 
458	 3.14111152097995E-02 
459	 3.15205507071653E-02 
460	 3.15367656531381E-02 
461	 0.031412861860328 
462	 3.15407902723043E-02 
463	 0.031808471599831 
464	 3.15294828004717E-02 
465	 0.031496411938576 
466	 3.20080522198379E-02 
467	 3.20835495485107E-02 
468	 3.18465132562749E-02 
469	 3.16439998679315E-02 
470	 3.16470526818128E-02 
471	 3.18349238322819E-02 
472	 3.19305527778552E-02 
473	 3.18720568965441E-02 
474	 0.031695874829956 
475	 0.032086380334536 
476	 3.25909218488507E-02 
477	 3.22423992638127E-02 
478	 3.22119608516871E-02 
479	 3.26824726664515E-02 
480	 3.29355788571807E-02 
481	 3.28931684033596E-02 
482	 3.25608604891912E-02 
483	 3.25986665360093E-02 
484	 3.29107437696923E-02 
485	 3.29643865132426E-02 
486	 3.30925795788036E-02 
487	 3.33349195031694E-02 
488	 3.33363207291387E-02 
489	 3.32313662446323E-02 
490	 3.31865137982916E-02 
491	 3.31694408939901E-02 
492	 3.32623565061858E-02 
493	 3.37678153765789E-02 
494	 0.033873852630305 
495	 3.33843039835113E-02 
496	 3.35216176573268E-02 
497	 3.38901051725597E-02 
498	 3.38308059489551E-02 
499	 3.38339101975466E-02 
500	 3.40283082210058E-02 
501	 3.45143603593376E-02 
502	 3.46418636624769E-02 
503	 3.41548713070006E-02 
504	 3.44038319051856E-02 
505	 3.49726794587615E-02 
506	 3.48668657059057E-02 
507	 3.48535837174335E-02 
508	 3.51174743014133E-02 
509	 3.55205473747173E-02 
510	 3.58353587135684E-02 
511	 3.59076806008666E-02 
512	 3.61355415164145E-02 
513	 3.64365455508422E-02 
514	 3.64648890214332E-02 
515	 3.64167802918419E-02 
516	 3.64433734998217E-02 
517	 3.69536647682115E-02 
518	 3.74252095073246E-02 
519	 3.72897301942368E-02 
520	 3.72911716705143E-02 
521	 3.75107130948268E-02 
522	 3.76859524089073E-02 
523	 3.80396551145792E-02 
524	 3.85943828952043E-02 
525	 3.88462355190342E-02 
526	 3.88824292877875E-02 
527	 3.88993988528022E-02 
528	 3.90679158935836E-02 
529	 3.94050541675348E-02 
530	 3.98179272071591E-02 
531	 4.00068926717062E-02 
532	 3.98429340322896E-02 
533	 4.00991625031239E-02 
534	 4.05701024812324E-02 
535	 4.06179896688427E-02 
536	 4.06936642199241E-02 
537	 4.09537170714741E-02 
538	 0.041476696093838 
539	 4.18447695995215E-02 
540	 4.16895836773453E-02 
541	 4.18322951806014E-02 
542	 4.22078429713453E-02 
543	 4.21541974200198E-02 
544	 4.22237676418225E-02 
545	 4.26014267561425E-02 
546	 4.29595336755817E-02 
547	 4.30999379704318E-02 
548	 4.28125003039826E-02 
549	 4.29109870544839E-02 
550	 4.34140146081799E-02 
551	 4.36419679329684E-02 
552	 4.36913083242606E-02 
553	 4.36817988328256E-02 
554	 0.04413589360728 
555	 4.47595384945414E-02 
556	 4.48869048985129E-02 
557	 4.48854755429638E-02 
558	 4.48290569734125E-02 
559	 4.44890783560482E-02 
560	 4.43281977946864E-02 
561	 4.47541103327777E-02 
562	 4.53289670192174E-02 
563	 4.57911718657507E-02 
564	 0.045712809958117 
565	 4.57056569453332E-02 
566	 4.59474936300764E-02 
567	 0.045825356074278 
568	 0.045566216232712 
569	 4.55252402332078E-02 
570	 4.55568989193633E-02 
571	 4.56395946919041E-02 
572	 4.57902239400435E-02 
573	 4.60045371327332E-02 
574	 4.62515592074487E-02 
575	 0.046316107625427 
576	 4.63114639364053E-02 
577	 4.64952410292835E-02 
578	 4.67312896808686E-02 
579	 4.69132003264921E-02 
580	 4.67438537175525E-02 
581	 4.67162367405565E-02 
582	 4.72230477295941E-02 
583	 4.74141318728581E-02 
584	 4.73122788243919E-02 
585	 0.047400259365425 
586	 4.74505941580798E-02 
587	 4.74026276637219E-02 
588	 0.047385462058867 
589	 4.74005530431777E-02 
590	 0.047433930950633 
591	 0.047639098373578 
592	 4.79345444679025E-02 
593	 4.79326107090947E-02 
594	 4.80550094745284E-02 
595	 4.84973661187555E-02 
596	 4.87136129255121E-02 
597	 0.048770850065419 
598	 4.89351003731616E-02 
599	 4.88554563918898E-02 
600	 4.85921396185687E-02 
601	 4.88295469522852E-02 
602	 4.92026540721604E-02 
603	 4.93625259926044E-02 
604	 4.94483457510776E-02 
605	 0.04945212418191 
606	 4.92464285542383E-02 
607	 4.93049922630201E-02 
608	 4.97397474679952E-02 
609	 4.99597546078208E-02 
610	 4.98457921208376E-02 
611	 4.93366860715621E-02 
612	 4.92677642539819E-02 
613	 4.96841559836482E-02 
614	 4.99756951687399E-02 
615	 5.00933003894049E-02 
616	 5.00311810550365E-02 
617	 5.01800649074052E-02 
618	 5.03125214995987E-02 
619	 4.99079692502961E-02 
620	 4.98729760231933E-02 
621	 5.03096020628271E-02 
622	 5.03919139374538E-02 
623	 5.03044570646265E-02 
624	 5.02598697177444E-02 
625	 5.05481773040675E-02 
626	 5.09517407855169E-02 
627	 0.050745219801689 
628	 5.05679478759885E-02 
629	 0.050690573186404 
630	 5.10663122197043E-02 
631	 5.13675891322036E-02 
632	 5.12064140688962E-02 
633	 5.13550146607136E-02 
634	 5.18113806808326E-02 
635	 5.19082000656538E-02 
636	 5.20850024885995E-02 
637	 5.25259344873361E-02 
638	 5.25292877764483E-02 
639	 5.23418199230607E-02 
640	 5.25565845432465E-02 
641	 5.27945815742358E-02 
642	 0.052938196722194 
643	 5.30147207248184E-02 
644	 5.30138630654303E-02 
645	 5.29491112358363E-02 
646	 5.31252105700075E-02 
647	 5.34442111373459E-02 
648	 5.34754836507124E-02 
649	 5.35670829576442E-02 
650	 5.37898906215458E-02 
651	 5.37774364318307E-02 
652	 5.36110007993258E-02 
653	 5.34231243406275E-02 
654	 5.32451783522334E-02 
655	 5.31479881281639E-02 
656	 5.33557489266595E-02 
657	 5.34080435337448E-02 
658	 5.31146813076569E-02 
659	 0.053281614059238 
660	 5.35280308077559E-02 
661	 5.31246455667014E-02 
662	 5.24799800128678E-02 
663	 0.051835871422116 
664	 5.16386093438085E-02 
665	 5.15694493492764E-02 
666	 5.13374095051014E-02 
667	 5.09331755511517E-02 
668	 5.04890222440207E-02 
669	 5.03288952152056E-02 
670	 5.01916836035858E-02 
671	 5.00576319132027E-02 
672	 5.03717499099692E-02 
673	 5.06917044517841E-02 
674	 5.04936252849624E-02 
675	 5.04083291392931E-02 
676	 5.05370408561271E-02 
677	 5.06855486705582E-02 
678	 5.10104155770484E-02 
679	 5.15305967783662E-02 
680	 5.17540960898278E-02 
681	 5.19446166007111E-02 
682	 5.26199944304368E-02 
683	 5.31476786140704E-02 
684	 5.34957783668545E-02 
685	 5.43158109042934E-02 
686	 5.52824097263891E-02 
687	 5.61147322869036E-02 
688	 0.057171735166949 
689	 5.84282618836544E-02 
690	 5.99633937407048E-02 
691	 6.11480609674022E-02 
692	 6.19085700718449E-02 
693	 6.27843093632299E-02 
694	 6.38097744878821E-02 
695	 0.06494824311839 
696	 6.65828061558565E-02 
697	 6.84387588045949E-02 
698	 0.069795279637426 
699	 7.07215903603392E-02 
700	 7.13401463920499E-02 
701	 7.25282633070945E-02 
702	 7.39642776056144E-02 
703	 7.50666102970244E-02 
704	 7.60358893759506E-02 
705	 7.69274799242561E-02 
706	 7.77410743073233E-02 
707	 7.85473743015494E-02 
708	 7.93804395623472E-02 
709	 8.00886477982904E-02 
710	 8.08143795138746E-02 
711	 8.18636433682163E-02 
712	 8.28771973568685E-02 
713	 8.36861983812589E-02 
714	 8.41862194807905E-02 
715	 8.44389332355464E-02 
716	 8.45400510548756E-02 
717	 8.48830477513571E-02 
718	 8.55636442104942E-02 
719	 8.62733063313273E-02 
720	 8.73309182776638E-02 
721	 8.84691212574647E-02 
722	 8.85303034359611E-02 
723	 8.84923349175094E-02 
724	 0.089450211723148 
725	 0.090318298991791 
726	 9.08392440881064E-02 
727	 9.12875639958233E-02 
728	 9.17847137812598E-02 
729	 9.23660695697271E-02 
730	 9.26869773524819E-02 
731	 9.30348343331468E-02 
732	 9.38334934208423E-02 
733	 9.43940330453728E-02 
734	 9.47039356267048E-02 
735	 9.52137042700488E-02 
736	 9.57899499001907E-02 
737	 0.096346787089346 
738	 9.71461587311958E-02 
739	 9.78832892562174E-02 
740	 9.79174573811582E-02 
741	 9.81968229231787E-02 
742	 9.89442878407657E-02 
743	 0.099765107465578 
744	 0.100409742246735 
745	 0.100705227649601 
746	 0.101012110513947 
747	 0.10139274612425 
748	 0.101825104932049 
749	 0.102265165039085 
750	 0.102668871366686 
751	 0.102900649102244 
752	 0.103227381727742 
753	 0.103907704987352 
754	 0.104084592975298 
755	 0.104013266542392 
756	 0.104993125277475 
757	 0.105728389154442 
758	 0.105661034364951 
759	 0.105068080641462 
760	 0.104401821932857 
761	 0.10573011175689 
762	 0.106607966171698 
763	 0.106637117781472 
764	 0.107318633263463 
765	 0.107982847689972 
766	 0.108419867668725 
767	 0.108942153918165 
768	 0.109556527167506 
769	 0.110259899152837 
770	 0.110783045229777 
771	 0.111107712728541 
772	 0.111415701924288 
773	 0.111920659599181 
774	 0.112711394008218 
775	 0.113265980315576 
776	 0.113577560018827 
777	 0.113791054419702 
778	 0.11394469760693 
779	 0.1141222815182 
780	 0.114512006926504 
781	 0.115017423896215 
782	 0.115537580691115 
783	 0.115888783360394 
784	 0.116205153641728 
785	 0.116867513292375 
786	 0.117318443332829 
787	 0.117478110812664 
788	 0.117962441854584 
789	 0.118352951515122 
790	 0.118302061140305 
791	 0.118983808261911 
792	 0.120023510999599 
793	 0.119948811633842 
794	 0.120169567459059 
795	 0.120961481903997 
796	 0.121003594159316 
797	 0.121013037039575 
798	 0.121715295875714 
799	 0.121624743977852 
800	 0.121181359582038 
801	 0.122457243127008 
802	 0.123093179637932 
803	 0.122564371432443 
804	 0.123538080735987 
805	 0.12475018577481 
806	 0.124705139180972 
807	 0.124928958585382 
808	 0.125400552446065 
809	 0.125028922520722 
810	 0.125285227765338 
811	 0.126538750585066 
812	 0.126659449411764 
813	 0.126192609731391 
814	 0.126119258339205 
815	 0.125929165677987 
816	 0.125993826759798 
817	 0.127803397699416 
818	 0.12887833813992 
819	 0.128465115125311 
820	 0.129063766177395 
821	 0.12996521734835 
822	 0.130128185931552 
823	 0.130013731438076 
824	 0.130027588145809 
825	 0.130969894600343 
826	 0.132102888860006 
827	 0.132955650096166 
828	 0.132509357154212 
829	 0.132123978264212 
830	 0.13350469581561 
831	 0.134422684560653 
832	 0.134684953577597 
833	 0.135245699167838 
834	 0.135788627210098 
835	 0.136177021402654 
836	 0.136394934630458 
837	 0.13637578569989 
838	 0.136081628107092 
839	 0.136515713561884 
840	 0.137474544524859 
841	 0.137811626849795 
842	 0.137724145360325 
843	 0.137489147880947 
844	 0.138269441537756 
845	 0.139339806711517 
846	 0.139772785357876 
847	 0.13954278286036 
848	 0.13911168476541 
849	 0.13978602650031 
850	 0.14071041320568 
851	 0.141300572204978 
852	 0.140392999513119 
853	 0.139595550861116 
854	 0.140602142440925 
855	 0.14055736657398 
856	 0.139978796402352 
857	 0.141727870577793 
858	 0.142659549792601 
859	 0.142111403195203 
860	 0.142619636663418 
861	 0.143091664973838 
862	 0.142472323252129 
863	 0.142581362650702 
864	 0.143312297158211 
865	 0.143625529122809 
866	 0.143657522221648 
867	 0.14356139428087 
868	 0.143901735847058 
869	 0.144509859730103 
870	 0.145221945345191 
871	 0.146149432796667 
872	 0.147024969181671 
873	 0.14732164534072 
874	 0.147837737981924 
875	 0.148437227598675 
876	 0.14725864104507 
877	 0.147344633519008 
878	 0.150401675200963 
879	 0.151540868875189 
880	 0.151247764157467 
881	 0.15145127260453 
882	 0.152519126124401 
883	 0.154007838001299 
884	 0.15375744645687 
885	 0.153503191623834 
886	 0.154228961654695 
887	 0.155277140090152 
888	 0.156346833998859 
889	 0.157130863959044 
890	 0.157029295116132 
891	 0.156580841734108 
892	 0.158030088949806 
893	 0.159278557226345 
894	 0.159050726712345 
895	 0.156425027745248 
896	 0.153803515147982 
897	 0.154187238507004 
898	 0.155765598477026 
899	 0.157909377438419 
900	 0.160405652433808 
901	 0.16067662478007 
902	 0.15888792512388 
903	 0.159924427368381 
904	 0.161134024872062 
905	 0.16062397252573 
906	 0.162400822138691 
907	 0.164280772517252 
908	 0.16133023694311 
909	 0.160736967955932 
910	 0.16300563317841 
911	 0.161124995386643 
912	 0.159990183115821 
913	 0.161957230332441 
914	 0.162248320196301 
915	 0.161843427208959 
916	 0.162450080502092 
917	 0.161520704801129 
918	 0.159880323673746 
919	 0.160898502510113 
920	 0.162673001791081 
921	 0.164113593400795 
922	 0.163549356838277 
923	 0.162320205063033 
924	 0.161833060085848 
925	 0.16306401479385 
926	 0.165020801301188 
927	 0.165054682502766 
928	 0.164294337422469 
929	 0.163556177036488 
930	 0.165681216064834 
931	 0.164304060844424 
932	 0.15490135267314 
933	 0.150032052251396 
934	 0.150333906043936 
935	 0.152616607481673 
936	 0.155079822650866 
937	 0.156521968700108 
938	 0.156361157237077 
939	 0.154202399982718 
940	 0.150655614051353 
941	 0.147496524611218 
942	 0.148162254410896 
943	 0.15384116347119 
944	 0.153269683817675 
945	 0.148925688045282 
946	 0.147247687950497 
947	 0.14761460591005 
948	 0.149306288894279 
949	 0.150667408580115 
950	 0.147507610128335 
951	 0.140941246412174 
952	 0.146967941186703 
953	 0.155566467168534 
954	 0.156894821166917 
955	 0.150803156145967 
956	 0.143886945700818 
957	 0.14749071121974 
958	 0.150818768973259 
959	 0.150641477521442 
960	 0.146748405739917 
961	 0.142937078864782 
962	 0.141574631092642 
963	 0.143657198051939 
964	 0.146499806552174 
965	 0.14743063016249 
966	 0.144949261083792 
967	 0.142819034074056 
968	 0.148744572141377 
969	 0.149778055189696 
970	 0.145597228142755 
971	 0.149410894877153 
972	 0.15160155786888 
973	 0.148337165000842 
974	 0.150881542946233 
975	 0.153813398003428 
976	 0.150601883357147 
977	 0.15047855853652 
978	 0.152086635151162 
979	 0.148770389384693 
980	 0.145430012569739 
981	 0.144326150218002 
982	 0.147898359667044 
983	 0.151668033536647 
984	 0.153372261780788 
985	 0.156196198094582 
986	 0.156223842523914 
987	 0.150132354104146 
988	 0.151944476252439 
989	 0.158586112645076 
990	 0.159090028978088 
991	 0.156812743977958 
992	 0.154598450541759 
993	 0.159541935305198 
994	 0.163850550916319 
995	 0.163583536403615 
996	 0.162262349570955 
997	 0.161265305995952 
998	 0.161574714272709 
999	 0.160691687314827 
1000	 0.160530362550657 
1001	 0.165033048036584 
1002	 0.16618308380276 
1003	 0.163645388003928 
1004	 0.163516236960252 
1005	 0.164185048277816 
1006	 0.16437075137107 
1007	 0.159636588376656 
1008	 0.159458638233201 
1009	 0.169598579559511 
1010	 0.176685519012979 
1011	 0.174561038777659 
1012	 0.158117332345572 
1013	 0.161612702507399 
1014	 0.17899345186932 
1015	 0.175804515131032 
1016	 0.171858598454654 
1017	 0.171991714200364 
1018	 0.170470251334537 
1019	 0.17303613519626 
1020	 0.181484723124512 
1021	 0.188387290308337 
1022	 0.186231280219614 
1023	 0.17077476717377 
1024	 0.170489128304885 
1025	 0.180200653564762 
1026	 0.182747109425208 
1027	 0.169139359297182 
1028	 0.150348847577236 
1029	 0.169063687030978 
1030	 0.18621517883009 
1031	 0.187948253332321 
1032	 0.177780254597868 
1033	 0.174235163838759 
1034	 0.184895098024414 
1035	 0.179044054192998 
1036	 0.166999310011484 
1037	 0.163604675005126 
1038	 0.175713792847964 
1039	 0.188321155453652 
1040	 0.176821200050827 
1041	 0.174349688084706 
1042	 0.183800671936889 
1043	 0.187270496618249 
1044	 0.184151600259825 
1045	 0.175577386384028 
1046	 0.168491045270433 
1047	 0.166685125496973 
1048	 0.17099817022442 
1049	 0.169374998541578 
1050	 0.168123630729132 
1051	 0.174124706525161 
1052	 0.183293588446119 
1053	 0.1924668358761 
1054	 0.198542110851339 
1055	 0.198373574657376 
1056	 0.191806029687382 
1057	 0.180614719155374 
1058	 0.183739564999422 
1059	 0.200604810061394 
1060	 0.209116219252811 
1061	 0.195629317807384 
1062	 0.165951786903938 
1063	 0.184230726789193 
1064	 0.200302408713653 
1065	 0.179862546710744 
1066	 0.17303799237671 
1067	 0.190457776265357 
1068	 0.228660974311333 
1069	 0.220081676232303 
1070	 0.190806874125705 
1071	 0.206116775438021 
1072	 0.206985197199532 
1073	 0.190465309801581 
1074	 0.186109687372139 
1075	 0.177053478612656 
