Wavelength	AVEI200286.asd
325	 4.08146074216417E-02 
326	 4.16109474964378E-02 
327	 3.20171032900938E-02 
328	 3.07821886100433E-02 
329	 0.035185702195205 
330	 4.21499245063389E-02 
331	 4.24896158329273E-02 
332	 4.10897925676987E-02 
333	 4.27589021096582E-02 
334	 3.69954227537608E-02 
335	 2.88314604100056E-02 
336	 3.41420641380319E-02 
337	 3.56536910242142E-02 
338	 3.07842132540463E-02 
339	 0.033458377453045 
340	 3.77518625222359E-02 
341	 3.82905248400016E-02 
342	 3.48973375936909E-02 
343	 3.04166739285873E-02 
344	 2.99963270119275E-02 
345	 3.02319687291617E-02 
346	 0.030366837385608 
347	 3.13653675842846E-02 
348	 3.18625043690614E-02 
349	 3.12058374952063E-02 
350	 3.22245205487361E-02 
351	 3.31584601421582E-02 
352	 3.06481857186417E-02 
353	 2.96778547459085E-02 
354	 3.11521244945836E-02 
355	 3.38568384775191E-02 
356	 3.46217027025313E-02 
357	 3.20642490192831E-02 
358	 3.10112026561583E-02 
359	 3.07749780461144E-02 
360	 2.93549251819394E-02 
361	 3.00041001239782E-02 
362	 3.20751219123146E-02 
363	 3.07656045512177E-02 
364	 0.030293801820807 
365	 3.23276046251271E-02 
366	 3.22105618809309E-02 
367	 3.06036017328164E-02 
368	 2.89570029265791E-02 
369	 2.89102801800029E-02 
370	 2.99178914307695E-02 
371	 2.84643889787945E-02 
372	 2.84160424353446E-02 
373	 3.11677264439148E-02 
374	 3.14264555802791E-02 
375	 3.03197647373261E-02 
376	 3.01409818329923E-02 
377	 0.030581984511322 
378	 3.11163646854281E-02 
379	 3.01636280768574E-02 
380	 2.91350009256444E-02 
381	 2.87494089649634E-02 
382	 2.85235746004607E-02 
383	 2.81628264273693E-02 
384	 2.73602672837847E-02 
385	 2.75817184147623E-02 
386	 2.87011219297777E-02 
387	 2.94742232240762E-02 
388	 2.87162754124194E-02 
389	 0.026616634006315 
390	 2.76900239592851E-02 
391	 2.93169376725392E-02 
392	 2.81468735802754E-02 
393	 2.68195088082001E-02 
394	 2.61340612264005E-02 
395	 2.64884866422501E-02 
396	 2.74627290784966E-02 
397	 2.86391120262158E-02 
398	 0.029347567561476 
399	 2.90796478947427E-02 
400	 2.75261775548158E-02 
401	 2.62913063653455E-02 
402	 2.57857987991056E-02 
403	 2.61459782237613E-02 
404	 2.67532684918193E-02 
405	 2.71702994391088E-02 
406	 2.65157459490178E-02 
407	 2.58811236169797E-02 
408	 2.66450431720361E-02 
409	 2.72582527528072E-02 
410	 2.72667523363614E-02 
411	 2.63614209761153E-02 
412	 2.59475626830721E-02 
413	 2.64765380751694E-02 
414	 2.60772816403807E-02 
415	 0.025602676039574 
416	 2.63550463136015E-02 
417	 2.65443557599804E-02 
418	 2.60367680036125E-02 
419	 2.57085996925335E-02 
420	 2.56803577116227E-02 
421	 2.59329770187725E-02 
422	 2.57566128464051E-02 
423	 2.53444092191875E-02 
424	 0.02508607695958 
425	 0.025099151906828 
426	 2.53555335085341E-02 
427	 2.56243832595592E-02 
428	 2.57841511098006E-02 
429	 2.57711880120594E-02 
430	 2.58543119522646E-02 
431	 0.025826711167117 
432	 2.52574310568376E-02 
433	 2.53239095673512E-02 
434	 2.59540057920338E-02 
435	 2.57247310552865E-02 
436	 2.52053340923819E-02 
437	 0.024841581872306 
438	 2.49314755253927E-02 
439	 2.52744457150146E-02 
440	 2.54342963255114E-02 
441	 2.54802320636872E-02 
442	 2.54591599087762E-02 
443	 2.55521430454279E-02 
444	 2.56190873708021E-02 
445	 0.025557611175155 
446	 2.55925238179878E-02 
447	 2.56839062159025E-02 
448	 2.56818005515115E-02 
449	 2.55159094481758E-02 
450	 2.52613537423042E-02 
451	 2.54363909903644E-02 
452	 2.55755536408834E-02 
453	 2.52299529379874E-02 
454	 2.52096210608314E-02 
455	 0.025448254626913 
456	 2.52799252461146E-02 
457	 2.53142274372378E-02 
458	 2.56851796792709E-02 
459	 2.56715499649903E-02 
460	 2.55308747302826E-02 
461	 2.56283934787542E-02 
462	 2.54699664288015E-02 
463	 2.51722867756153E-02 
464	 2.54348280119711E-02 
465	 2.56238863290835E-02 
466	 0.025475173790097 
467	 2.56110522909637E-02 
468	 2.58467028378034E-02 
469	 2.58177720905825E-02 
470	 2.57857261046563E-02 
471	 2.58469043093618E-02 
472	 2.61404960399189E-02 
473	 2.61858570819909E-02 
474	 2.57580697682486E-02 
475	 0.025654470419551 
476	 2.59021630335178E-02 
477	 2.63814406665815E-02 
478	 2.64007286611581E-02 
479	 2.59189183540787E-02 
480	 2.56930245647471E-02 
481	 2.58226930370549E-02 
482	 2.62974058850238E-02 
483	 2.61933770377455E-02 
484	 2.57494614638245E-02 
485	 2.59281896027564E-02 
486	 0.026152831565343 
487	 2.62207358577517E-02 
488	 2.61982306166592E-02 
489	 2.61026162329453E-02 
490	 2.59605345612838E-02 
491	 2.58828954956428E-02 
492	 2.59203731779356E-02 
493	 2.61801472024363E-02 
494	 2.62236619138712E-02 
495	 2.59565427264227E-02 
496	 2.60838473979769E-02 
497	 2.64604905066991E-02 
498	 2.68145098471008E-02 
499	 2.67531536226045E-02 
500	 2.64033210753567E-02 
501	 2.65673908213002E-02 
502	 2.67486268753899E-02 
503	 2.67047834813473E-02 
504	 0.027031979605478 
505	 2.75200729451397E-02 
506	 2.77281883565389E-02 
507	 2.76440373536847E-02 
508	 2.73982370946317E-02 
509	 2.75124358996319E-02 
510	 2.77927895852438E-02 
511	 2.80333823496453E-02 
512	 0.027807157775775 
513	 2.74719260580956E-02 
514	 2.80240016081761E-02 
515	 2.86229922539674E-02 
516	 2.90018033791144E-02 
517	 2.95247402003812E-02 
518	 2.98892374381525E-02 
519	 2.97751879860343E-02 
520	 2.97748434781681E-02 
521	 2.99481944858416E-02 
522	 3.00426482874147E-02 
523	 3.03307001667869E-02 
524	 3.08511415831912E-02 
525	 3.10187228702673E-02 
526	 3.10136867484732E-02 
527	 3.11748911144706E-02 
528	 3.13799393025236E-02 
529	 3.16126480282891E-02 
530	 3.19300561113089E-02 
531	 3.21656280491904E-02 
532	 0.032226015741589 
533	 3.23461418965583E-02 
534	 3.24705767030036E-02 
535	 3.24026595378674E-02 
536	 0.032454901007767 
537	 3.26895581452644E-02 
538	 3.28889569180282E-02 
539	 3.30363754367611E-02 
540	 3.31295154205314E-02 
541	 3.32385633573761E-02 
542	 3.33835820463608E-02 
543	 3.36029344825689E-02 
544	 3.36625565008618E-02 
545	 3.35375657443499E-02 
546	 3.37222893546712E-02 
547	 3.40522677971036E-02 
548	 3.42548752137311E-02 
549	 3.43127642807152E-02 
550	 3.42710731508744E-02 
551	 3.43059954974482E-02 
552	 3.44166130839361E-02 
553	 3.45870961633858E-02 
554	 3.46607357237534E-02 
555	 3.47159727516793E-02 
556	 3.49602524192051E-02 
557	 3.50192681252561E-02 
558	 3.48514460970842E-02 
559	 3.48728803219262E-02 
560	 3.49020031153085E-02 
561	 3.47710368746134E-02 
562	 3.47453565187503E-02 
563	 3.48133395739558E-02 
564	 3.47932187858521E-02 
565	 3.48963044085245E-02 
566	 3.51486924472431E-02 
567	 3.52106359120035E-02 
568	 3.50763066524734E-02 
569	 3.47851356792063E-02 
570	 0.034627610777357 
571	 3.46241310843386E-02 
572	 3.45029366169592E-02 
573	 0.034547370629676 
574	 3.48474459347702E-02 
575	 3.46574786091365E-02 
576	 3.42632438848624E-02 
577	 3.43761274547789E-02 
578	 0.034420128754011 
579	 3.42880006221599E-02 
580	 3.42780795126091E-02 
581	 3.44609502497138E-02 
582	 3.48352982887254E-02 
583	 3.46417881847145E-02 
584	 3.41380720026902E-02 
585	 3.44105189076698E-02 
586	 3.43590027135457E-02 
587	 3.37437940622565E-02 
588	 3.39427660822717E-02 
589	 3.44538166005436E-02 
590	 3.44537314586157E-02 
591	 3.44549110122292E-02 
592	 3.45016403164491E-02 
593	 3.43117830721323E-02 
594	 0.034335925111039 
595	 0.03476923464237 
596	 3.49288382066337E-02 
597	 3.47833775320205E-02 
598	 3.44269697472871E-02 
599	 3.43069917404235E-02 
600	 3.45277649379387E-02 
601	 3.48285605727789E-02 
602	 0.034929750948127 
603	 3.46242154956753E-02 
604	 3.43728661668996E-02 
605	 3.42944637539049E-02 
606	 3.44663593019541E-02 
607	 3.45441621839129E-02 
608	 3.43943464862057E-02 
609	 0.03420560000045 
610	 3.40774847947755E-02 
611	 3.41081597577032E-02 
612	 3.40724061256846E-02 
613	 3.39824895160876E-02 
614	 3.40758668972838E-02 
615	 3.42136009193058E-02 
616	 3.42923908610522E-02 
617	 3.42398791445432E-02 
618	 3.41147386095903E-02 
619	 3.40349830817945E-02 
620	 3.39609125266587E-02 
621	 3.38985869256437E-02 
622	 3.38802932985233E-02 
623	 3.39727675149756E-02 
624	 3.42039834333209E-02 
625	 3.41466637500057E-02 
626	 3.38583260176776E-02 
627	 3.36660531158035E-02 
628	 3.36825211176806E-02 
629	 3.38977400045058E-02 
630	 0.033844728408695 
631	 3.37404664557659E-02 
632	 3.39007021262207E-02 
633	 0.033731467325224 
634	 3.33927025912908E-02 
635	 3.38713438519378E-02 
636	 3.43653400820916E-02 
637	 3.43600870139495E-02 
638	 3.38690669544838E-02 
639	 3.33291410660231E-02 
640	 3.35034855259734E-02 
641	 3.36838374837547E-02 
642	 3.36433253351676E-02 
643	 3.34592292652801E-02 
644	 3.32003758577389E-02 
645	 0.032944449284708 
646	 3.29268282994976E-02 
647	 3.30159679501378E-02 
648	 3.27393428940259E-02 
649	 3.24586273206192E-02 
650	 3.23678243398548E-02 
651	 3.26298603396927E-02 
652	 3.30599194052351E-02 
653	 3.34223311856409E-02 
654	 3.30939582891916E-02 
655	 3.22563672019216E-02 
656	 3.21733936997336E-02 
657	 3.23103360810575E-02 
658	 3.22986608085226E-02 
659	 3.20402589960812E-02 
660	 3.16044452681154E-02 
661	 3.11082209090658E-02 
662	 3.07464979017044E-02 
663	 3.05914193009763E-02 
664	 3.06416616259007E-02 
665	 3.05763881383651E-02 
666	 3.01809954537247E-02 
667	 3.02988819844514E-02 
668	 3.06245151594694E-02 
669	 2.99816184511154E-02 
670	 2.97220795688466E-02 
671	 3.01248238861049E-02 
672	 2.97396013060029E-02 
673	 2.92330247133157E-02 
674	 2.94760756927259E-02 
675	 2.98081453403137E-02 
676	 3.00520636918053E-02 
677	 3.01609413574362E-02 
678	 3.02200415555137E-02 
679	 3.03013485546335E-02 
680	 3.05040646571022E-02 
681	 3.08533847083368E-02 
682	 3.13637093301209E-02 
683	 3.19648508493757E-02 
684	 3.25613389706025E-02 
685	 3.29037439702774E-02 
686	 3.33783480275852E-02 
687	 3.43121745332751E-02 
688	 0.035295867632613 
689	 3.60846062943027E-02 
690	 3.64873784299753E-02 
691	 3.72631761668002E-02 
692	 3.85663780905415E-02 
693	 3.96686247770082E-02 
694	 0.040844172541774 
695	 4.23416733355474E-02 
696	 4.35364518757325E-02 
697	 4.45009700723141E-02 
698	 4.57701342332023E-02 
699	 4.72975528514077E-02 
700	 4.90157091883994E-02 
701	 5.06947487958038E-02 
702	 5.21043114190689E-02 
703	 5.30014568258006E-02 
704	 5.40546768398628E-02 
705	 5.53426031308112E-02 
706	 5.63785850118851E-02 
707	 5.75744878649759E-02 
708	 5.91102928790356E-02 
709	 6.01464064993555E-02 
710	 6.09233125771225E-02 
711	 6.20790188130519E-02 
712	 6.35912342302699E-02 
713	 6.51521448251248E-02 
714	 6.54313722366103E-02 
715	 0.065571847759394 
716	 6.66987203020572E-02 
717	 0.06790608331845 
718	 6.89560591252049E-02 
719	 6.95019417165085E-02 
720	 0.07031379889687 
721	 0.071484158634875 
722	 7.23091774837238E-02 
723	 7.28830924716456E-02 
724	 7.32705670276235E-02 
725	 7.39116019058765E-02 
726	 7.47602713504739E-02 
727	 7.54516134863232E-02 
728	 7.60899518367371E-02 
729	 7.66874221206168E-02 
730	 7.70709421450423E-02 
731	 7.73097138799148E-02 
732	 7.75146193578637E-02 
733	 7.79910291689007E-02 
734	 7.87481693532624E-02 
735	 7.96205752267979E-02 
736	 8.01439867426424E-02 
737	 8.00756896805213E-02 
738	 0.080440941452403 
739	 8.10917411495507E-02 
740	 0.081492524880473 
741	 8.15158109396927E-02 
742	 8.13494258937115E-02 
743	 8.19787126045013E-02 
744	 8.27923616495481E-02 
745	 8.32298787906845E-02 
746	 8.32390582695301E-02 
747	 8.31941447378677E-02 
748	 0.084047777312323 
749	 8.47501770383359E-02 
750	 8.49738545613613E-02 
751	 8.52478733094358E-02 
752	 8.54570874462801E-02 
753	 0.085460571543184 
754	 8.55676351560164E-02 
755	 8.57800661553594E-02 
756	 8.58605792415616E-02 
757	 8.61796294333622E-02 
758	 8.68696243459418E-02 
759	 8.71874626087058E-02 
760	 8.73946432820965E-02 
761	 8.81674259061858E-02 
762	 8.85606733538138E-02 
763	 8.84983015175945E-02 
764	 8.83333169182943E-02 
765	 8.87276269267355E-02 
766	 8.96250734201473E-02 
767	 8.97683904702664E-02 
768	 8.96366775871772E-02 
769	 8.98304214213509E-02 
770	 9.04325426106373E-02 
771	 9.12236836289685E-02 
772	 9.13665309345993E-02 
773	 9.11815905605017E-02 
774	 9.09651788632171E-02 
775	 9.12696155571126E-02 
776	 0.091802247781015 
777	 9.18773596898903E-02 
778	 0.092056208482371 
779	 9.24615428834151E-02 
780	 9.28909027614704E-02 
781	 0.093298340003405 
782	 9.36453340219747E-02 
783	 9.38827449458423E-02 
784	 9.41066537108697E-02 
785	 9.45570021324693E-02 
786	 9.47978663944658E-02 
787	 9.47758453438034E-02 
788	 9.49839839951536E-02 
789	 9.52670273286424E-02 
790	 9.54598437559617E-02 
791	 9.56569383746838E-02 
792	 9.59068572161218E-02 
793	 0.096300343076613 
794	 9.66368654448397E-02 
795	 9.68602246562882E-02 
796	 9.70994152069343E-02 
797	 9.74041011631343E-02 
798	 9.77870322471967E-02 
799	 0.097723135581411 
800	 9.73553110150307E-02 
801	 9.72270623083915E-02 
802	 9.77796936409354E-02 
803	 9.89472372922715E-02 
804	 9.92701250865221E-02 
805	 9.91689292633018E-02 
806	 9.92335719690999E-02 
807	 9.94308708736127E-02 
808	 9.98033812813587E-02 
809	 0.100441472937916 
810	 0.101033535505971 
811	 0.101405651436476 
812	 0.101502359984922 
813	 0.101680603841387 
814	 0.102394695462849 
815	 0.10294796326508 
816	 0.103080944085565 
817	 0.102552837430323 
818	 0.102734874887784 
819	 0.103918777613715 
820	 0.104103517204955 
821	 0.103846280121233 
822	 0.103972830695481 
823	 0.104289489516248 
824	 0.104779929825722 
825	 0.105589299551338 
826	 0.105898282586023 
827	 0.105510303631755 
828	 0.105506082062722 
829	 0.105910434084371 
830	 0.106583851913479 
831	 0.106820057159681 
832	 0.106686307768667 
833	 0.106832245431524 
834	 0.107274655114603 
835	 0.107912790181744 
836	 0.108051752555897 
837	 0.108069794758351 
838	 0.108453844234805 
839	 0.108974451740634 
840	 0.109405273293425 
841	 0.10927414873728 
842	 0.109002124290864 
843	 0.108827551937014 
844	 0.108898668417618 
845	 0.109078554335264 
846	 0.109217044694191 
847	 0.110018941463876 
848	 0.111027589957022 
849	 0.110531587132185 
850	 0.110132025091194 
851	 0.110459745018654 
852	 0.11110324874266 
853	 0.111103307523918 
854	 0.109644269587019 
855	 0.109673959671467 
856	 0.110934403624385 
857	 0.111217682908053 
858	 0.111746499929846 
859	 0.112539892557647 
860	 0.111841989189952 
861	 0.110902407023336 
862	 0.110984634860981 
863	 0.111341255970135 
864	 0.111793740558597 
865	 0.112196803610397 
866	 0.112789345576549 
867	 0.113656872033194 
868	 0.114918368167903 
869	 0.115749386510028 
870	 0.115525974823406 
871	 0.114751515398297 
872	 0.11432261537431 
873	 0.115758754544963 
874	 0.116794703674335 
875	 0.116912890940223 
876	 0.117118441592186 
877	 0.117805424963703 
878	 0.119062824289859 
879	 0.119340401394712 
880	 0.118878537446804 
881	 0.118408273092656 
882	 0.118905848587128 
883	 0.120139020501169 
884	 0.120083736169057 
885	 0.120471182073886 
886	 0.122060113898987 
887	 0.123025568218694 
888	 0.123176091238094 
889	 0.122589707625346 
890	 0.123623864398414 
891	 0.125805651958354 
892	 0.125785168691329 
893	 0.125098095554215 
894	 0.124501106951413 
895	 0.124031580922321 
896	 0.124367832535755 
897	 0.126137918822259 
898	 0.127223376935121 
899	 0.127322757601103 
900	 0.127096753221938 
901	 0.126727267200774 
902	 0.12636194844654 
903	 0.125839993543043 
904	 0.126294668906521 
905	 0.128229573302793 
906	 0.127805599182534 
907	 0.126405362707884 
908	 0.127507443440035 
909	 0.128658241330002 
910	 0.129010654215288 
911	 0.128128629957112 
912	 0.127743183221779 
913	 0.128594606299702 
914	 0.128143896105607 
915	 0.127295741758742 
916	 0.127452242901609 
917	 0.128703409171164 
918	 0.130274726665864 
919	 0.130239831411178 
920	 0.129385495342037 
921	 0.12864475354387 
922	 0.131249023399616 
923	 0.133025679326386 
924	 0.130380336880607 
925	 0.128668936039903 
926	 0.128339688390602 
927	 0.128204885700248 
928	 0.12864487768864 
929	 0.129341319391452 
930	 0.128474715533953 
931	 0.127029524165462 
932	 0.126297228586632 
933	 0.128896051577202 
934	 0.132430052473158 
935	 0.132318481441236 
936	 0.125941823808565 
937	 0.117795239093867 
938	 0.120358693442717 
939	 0.124687272971033 
940	 0.12742133564768 
941	 0.129038245829506 
942	 0.127030319229237 
943	 0.120669478667589 
944	 0.120107402656479 
945	 0.122344565241285 
946	 0.1204140330873 
947	 0.117216147749261 
948	 0.114296559642488 
949	 0.113505941750108 
950	 0.116081036831868 
951	 0.120339566695741 
952	 0.115183821918046 
953	 0.109496921254275 
954	 0.111592032089203 
955	 0.110079804683481 
956	 0.106522126075352 
957	 0.106694599798099 
958	 0.107483848492586 
959	 0.107354191905178 
960	 0.103114542679219 
961	 0.104060041862794 
962	 0.111906924574912 
963	 0.110561112675028 
964	 0.108837377850004 
965	 0.115341977586339 
966	 0.113364793367025 
967	 0.106938905552861 
968	 0.109276746500745 
969	 0.110808881852226 
970	 0.109518141298675 
971	 0.107374909402072 
972	 0.107577556483506 
973	 0.111059536752283 
974	 0.111957402483996 
975	 0.110286418905534 
976	 0.107059156984953 
977	 0.108330071151087 
978	 0.111990965395796 
979	 0.11071585173318 
980	 0.112014297712433 
981	 0.116012184872763 
982	 0.115070118593215 
983	 0.113902597839587 
984	 0.115003937714978 
985	 0.116678172060932 
986	 0.117037763000314 
987	 0.114565255076294 
988	 0.113623145204746 
989	 0.115042572892106 
990	 0.118906475341323 
991	 0.119459847280482 
992	 0.116206977524593 
993	 0.114235435708138 
994	 0.112700297980195 
995	 0.111761319851779 
996	 0.114503420723622 
997	 0.116111541372882 
998	 0.112558507502466 
999	 0.11498027985092 
1000	 0.119894781666948 
1001	 0.118158867388055 
1002	 0.1150116081102 
1003	 0.11412028338326 
1004	 0.123637887382962 
1005	 0.125824193503102 
1006	 0.116825541422666 
1007	 0.117768321916505 
1008	 0.121221370933447 
1009	 0.120747094217588 
1010	 0.121206775333337 
1011	 0.121679317756146 
1012	 0.120430859343311 
1013	 0.124097398904273 
1014	 0.129937942687712 
1015	 0.12758865132892 
1016	 0.12838167924743 
1017	 0.133326471282639 
1018	 0.131012571422484 
1019	 0.130859920695263 
1020	 0.136282664059902 
1021	 0.133837121298349 
1022	 0.127041972543922 
1023	 0.121107539247862 
1024	 0.123008494429465 
1025	 0.126495113246412 
1026	 0.119392482176684 
1027	 0.127230136951524 
1028	 0.14458283548626 
1029	 0.137736934020891 
1030	 0.137580459795039 
1031	 0.148091528313154 
1032	 0.13724787603368 
1033	 0.123944607672434 
1034	 0.122001963042712 
1035	 0.127878016878393 
1036	 0.135002596677896 
1037	 0.136607033898375 
1038	 0.131801792560163 
1039	 0.128227762884639 
1040	 0.139110344342324 
1041	 0.150250674684761 
1042	 0.155739088810883 
1043	 0.150421457636453 
1044	 0.136107836241923 
1045	 0.121067957193834 
1046	 0.130158431029837 
1047	 0.145720871982023 
1048	 0.1547560174632 
1049	 0.144827010657649 
1050	 0.127996508843276 
1051	 0.121295689282525 
1052	 0.146714060236215 
1053	 0.175574065976259 
1054	 0.163900375639047 
1055	 0.135376694577557 
1056	 0.110013857564038 
1057	 0.121469899068483 
1058	 0.135319280090409 
1059	 0.143695651369835 
1060	 0.157510516725874 
1061	 0.171595345264221 
1062	 0.178542634638024 
1063	 0.158196930691755 
1064	 0.134436669606636 
1065	 0.12871463710067 
1066	 0.148541864066371 
1067	 0.158690752434571 
1068	 0.123537515478251 
1069	 0.1313917537775 
1070	 0.160204486648077 
1071	 0.151069960405174 
1072	 0.148079963355988 
1073	 0.149827920095986 
1074	 0.126640716630902 
1075	 0.121812426604774 
