Wavelength	AVEI200370.asd
325	 7.98869739094519E-02 
326	 8.12649046577881E-02 
327	 7.74193398444037E-02 
328	 7.44279438777287E-02 
329	 7.26834084606983E-02 
330	 7.19560281800111E-02 
331	 6.95023790931598E-02 
332	 6.75740596322283E-02 
333	 6.83127681907536E-02 
334	 6.84290372325209E-02 
335	 6.80283057728737E-02 
336	 6.81242110999448E-02 
337	 7.19291538220453E-02 
338	 0.07810703615456 
339	 0.077273459382208 
340	 7.40455694127816E-02 
341	 7.25198757648542E-02 
342	 6.90587423152674E-02 
343	 6.73541322177035E-02 
344	 7.53615962793702E-02 
345	 7.98842294277175E-02 
346	 7.80177617517805E-02 
347	 7.32432153224847E-02 
348	 7.04303598892157E-02 
349	 7.22701361917484E-02 
350	 7.26485985540141E-02 
351	 7.15142542767141E-02 
352	 6.99032470750347E-02 
353	 7.08915675530326E-02 
354	 7.40604225010106E-02 
355	 7.50879284978205E-02 
356	 7.47432157529215E-02 
357	 7.38071945718212E-02 
358	 7.39582254456039E-02 
359	 0.075026476898093 
360	 7.64915768806842E-02 
361	 7.52021907549853E-02 
362	 7.20651785776699E-02 
363	 7.25350603757201E-02 
364	 7.37932792076278E-02 
365	 7.40932241119035E-02 
366	 7.26968774743403E-02 
367	 7.09401847349099E-02 
368	 0.070671140093317 
369	 7.02131792199869E-02 
370	 6.96771166527907E-02 
371	 7.06008751715236E-02 
372	 7.21931552861256E-02 
373	 7.35663769479975E-02 
374	 7.21325363922632E-02 
375	 0.07026995301834 
376	 7.14525648279961E-02 
377	 7.17533520237336E-02 
378	 7.05040396227661E-02 
379	 6.84388322889661E-02 
380	 6.79771473140782E-02 
381	 6.99752715006611E-02 
382	 7.12956788214947E-02 
383	 7.16214012446889E-02 
384	 0.071001703764321 
385	 7.12568329255527E-02 
386	 0.071853443205559 
387	 6.97237974163504E-02 
388	 6.76611908624792E-02 
389	 6.69720435128141E-02 
390	 6.70416029134221E-02 
391	 6.76293527892192E-02 
392	 6.85084163414979E-02 
393	 6.91723273165098E-02 
394	 0.069671014518287 
395	 7.07921685568323E-02 
396	 7.07422240414385E-02 
397	 6.91505012202422E-02 
398	 6.82640454838259E-02 
399	 6.77437216666296E-02 
400	 0.067014227362535 
401	 6.72122817989524E-02 
402	 6.79818604160381E-02 
403	 6.80643680953875E-02 
404	 6.80861368691974E-02 
405	 6.82717417494991E-02 
406	 6.83274596905048E-02 
407	 6.85384335210223E-02 
408	 6.92574430106506E-02 
409	 6.92904511850227E-02 
410	 6.86964216655846E-02 
411	 0.068445096966911 
412	 6.81493332414655E-02 
413	 6.77169794335076E-02 
414	 0.067625815387586 
415	 6.78091910082177E-02 
416	 6.81205285634191E-02 
417	 6.84047454788323E-02 
418	 6.85578310473626E-02 
419	 6.83998625396033E-02 
420	 6.83753563306984E-02 
421	 6.86766607416664E-02 
422	 6.88196706483299E-02 
423	 0.068784580717281 
424	 6.86244642763404E-02 
425	 0.068574920825951 
426	 6.87923871708106E-02 
427	 6.96044441029361E-02 
428	 7.01812492267348E-02 
429	 0.070023941132131 
430	 6.99003606247632E-02 
431	 6.97597741103846E-02 
432	 6.93289282893536E-02 
433	 6.90837735206983E-02 
434	 6.91328570831603E-02 
435	 6.93049845048661E-02 
436	 6.96498057137335E-02 
437	 7.01229870307301E-02 
438	 6.99901035059013E-02 
439	 6.96668604375629E-02 
440	 0.07013084586024 
441	 7.02520993502695E-02 
442	 6.99864278647145E-02 
443	 7.06643203688307E-02 
444	 7.12794686949894E-02 
445	 7.10439055354214E-02 
446	 7.08183669581969E-02 
447	 7.08524099128409E-02 
448	 7.14042487608517E-02 
449	 7.17040272838179E-02 
450	 7.15828340567697E-02 
451	 7.17146079431756E-02 
452	 0.071847355448551 
453	 7.17208864153218E-02 
454	 7.18303005181539E-02 
455	 7.21623577016315E-02 
456	 7.24425290596133E-02 
457	 0.072508887664798 
458	 7.23771394715755E-02 
459	 7.26731862123455E-02 
460	 0.072926574875823 
461	 7.25462749674326E-02 
462	 7.24842085188351E-02 
463	 7.27506373696999E-02 
464	 7.26169810492229E-02 
465	 7.27371629733217E-02 
466	 0.073314789701813 
467	 7.32762569787049E-02 
468	 7.30830050074561E-02 
469	 7.35753931838693E-02 
470	 7.38907477670318E-02 
471	 7.39044641775795E-02 
472	 7.40513264228575E-02 
473	 7.40014842847923E-02 
474	 7.36272057793824E-02 
475	 7.35993170967627E-02 
476	 0.073908351147801 
477	 7.43912612260793E-02 
478	 7.45944837981777E-02 
479	 7.44504684459846E-02 
480	 7.43876445719752E-02 
481	 7.42835965971361E-02 
482	 7.40756760292819E-02 
483	 7.42833201307033E-02 
484	 7.48117873911973E-02 
485	 7.52740584372405E-02 
486	 0.075496126849489 
487	 0.075357527037398 
488	 7.47637276516489E-02 
489	 0.074368374185489 
490	 7.47849793880482E-02 
491	 7.52154902787623E-02 
492	 7.54687261893444E-02 
493	 7.55168641278912E-02 
494	 7.55558335868525E-02 
495	 7.56318380284746E-02 
496	 7.53600297458636E-02 
497	 7.52369019071031E-02 
498	 7.59304261376239E-02 
499	 7.61266815007178E-02 
500	 7.58171810524091E-02 
501	 7.61916362862766E-02 
502	 7.64722171339823E-02 
503	 7.62516276481725E-02 
504	 7.61866545276354E-02 
505	 7.64136870348436E-02 
506	 7.70613434690035E-02 
507	 7.69530607185314E-02 
508	 7.61863340827228E-02 
509	 7.66044851630772E-02 
510	 7.72625032262942E-02 
511	 7.73808113962889E-02 
512	 7.74951897497237E-02 
513	 7.75594784893504E-02 
514	 7.71781527831735E-02 
515	 7.73611968953501E-02 
516	 7.82644368405013E-02 
517	 7.85421511240626E-02 
518	 7.84578292297682E-02 
519	 7.84149154417855E-02 
520	 7.83307583692886E-02 
521	 7.82692408446122E-02 
522	 7.83821206634445E-02 
523	 7.85382030799814E-02 
524	 7.86680477897936E-02 
525	 7.87397565393147E-02 
526	 7.88391220382822E-02 
527	 7.90911801107456E-02 
528	 7.92849978088408E-02 
529	 7.93922599297322E-02 
530	 7.95525394199108E-02 
531	 7.96209464690414E-02 
532	 7.95308958635417E-02 
533	 7.95687410613415E-02 
534	 7.97666221759224E-02 
535	 8.01184393639967E-02 
536	 8.02995146518257E-02 
537	 8.02767635960203E-02 
538	 8.04713571591561E-02 
539	 8.06860847349061E-02 
540	 0.080721498164612 
541	 8.08397905522289E-02 
542	 8.10149014402167E-02 
543	 8.10611175946977E-02 
544	 8.09825318072844E-02 
545	 8.08599161692517E-02 
546	 8.11767638673263E-02 
547	 0.081551712717703 
548	 8.14387692542524E-02 
549	 8.13930765949956E-02 
550	 8.15280943560916E-02 
551	 8.17441362234685E-02 
552	 8.18888176883627E-02 
553	 8.18754156710712E-02 
554	 0.081861486144086 
555	 8.19313879145964E-02 
556	 8.22015210834959E-02 
557	 8.24289766634093E-02 
558	 8.24983425881432E-02 
559	 8.22848066865232E-02 
560	 8.22175037553985E-02 
561	 8.26532765725783E-02 
562	 8.28905167154273E-02 
563	 8.28843227256539E-02 
564	 8.28819285063392E-02 
565	 0.082864753401612 
566	 0.08288788133206 
567	 8.32442761055571E-02 
568	 8.35603845069181E-02 
569	 8.33401262494213E-02 
570	 8.32805383003215E-02 
571	 8.34160275923947E-02 
572	 8.31992159400754E-02 
573	 8.31087298348974E-02 
574	 8.34039294659311E-02 
575	 8.36751510320327E-02 
576	 8.38009206747076E-02 
577	 8.36522709077693E-02 
578	 8.37783626952507E-02 
579	 8.41856742399807E-02 
580	 8.40589182313846E-02 
581	 8.38815514679363E-02 
582	 8.40761474601081E-02 
583	 8.40014424503559E-02 
584	 8.38845138379302E-02 
585	 0.084692012966637 
586	 8.50920020258355E-02 
587	 8.46420042243508E-02 
588	 8.42973791279376E-02 
589	 8.42005078477978E-02 
590	 8.44116880492915E-02 
591	 8.44675648424474E-02 
592	 0.084386575166573 
593	 8.46630547828972E-02 
594	 8.49225670747447E-02 
595	 8.49481684842872E-02 
596	 8.48760994926636E-02 
597	 0.084822785498861 
598	 8.49563882516504E-02 
599	 8.50892462018663E-02 
600	 8.51606362447097E-02 
601	 8.51816635441113E-02 
602	 8.52373256933945E-02 
603	 8.53738653027243E-02 
604	 8.51777136146017E-02 
605	 8.47794713114431E-02 
606	 8.46429416077224E-02 
607	 8.47512117987422E-02 
608	 8.50445961400296E-02 
609	 8.50903194782667E-02 
610	 8.50808545532256E-02 
611	 8.53077176042731E-02 
612	 8.52924944449527E-02 
613	 8.50806085576405E-02 
614	 8.52444371485484E-02 
615	 8.52762739719954E-02 
616	 8.49548698909629E-02 
617	 8.51313133109809E-02 
618	 8.55649954958775E-02 
619	 8.56431048385383E-02 
620	 8.57659160345932E-02 
621	 8.59599491733337E-02 
622	 8.58951688372549E-02 
623	 0.085618107125807 
624	 8.52244269159644E-02 
625	 8.52580207070852E-02 
626	 8.56180332122597E-02 
627	 8.57866910015694E-02 
628	 8.58379035275427E-02 
629	 8.57872698546338E-02 
630	 8.56913224613075E-02 
631	 8.56237285000466E-02 
632	 8.56631109360177E-02 
633	 8.59568447621244E-02 
634	 8.63262144426026E-02 
635	 8.60801624920061E-02 
636	 8.59206517278004E-02 
637	 8.62102252198715E-02 
638	 8.62386124693868E-02 
639	 8.61141974599866E-02 
640	 8.62026234587057E-02 
641	 8.61457876647302E-02 
642	 8.59771495198374E-02 
643	 8.63137234943273E-02 
644	 8.66492726964589E-02 
645	 8.65410524870624E-02 
646	 8.64696793752869E-02 
647	 8.64724959722574E-02 
648	 8.64033061618834E-02 
649	 8.63256743049938E-02 
650	 8.62914251703785E-02 
651	 8.63982398199929E-02 
652	 8.66751555313476E-02 
653	 8.71417762535889E-02 
654	 8.70152262849631E-02 
655	 8.64426821814576E-02 
656	 8.67775569736159E-02 
657	 8.68742357359977E-02 
658	 8.61864880773468E-02 
659	 8.59238132999517E-02 
660	 8.59160317901115E-02 
661	 8.56680483670418E-02 
662	 8.55542795137199E-02 
663	 8.55935748785708E-02 
664	 8.54611089519914E-02 
665	 8.52059769935635E-02 
666	 8.49066904333003E-02 
667	 8.48900301982837E-02 
668	 8.50656734249253E-02 
669	 8.51371363883047E-02 
670	 8.47855001176437E-02 
671	 8.41261050771886E-02 
672	 8.45397048714095E-02 
673	 8.52976038318747E-02 
674	 8.54481085818717E-02 
675	 8.53301542431275E-02 
676	 8.51272191224956E-02 
677	 8.51530167471345E-02 
678	 8.53733298846923E-02 
679	 8.57079990660167E-02 
680	 8.56532389441706E-02 
681	 0.085583466062629 
682	 8.61978039359329E-02 
683	 8.65138701260014E-02 
684	 8.64402168734542E-02 
685	 8.68397433307143E-02 
686	 8.72423508826889E-02 
687	 8.72173004398111E-02 
688	 8.70591580180085E-02 
689	 8.70457576792906E-02 
690	 8.76313973690658E-02 
691	 8.80076821176172E-02 
692	 8.80437719792349E-02 
693	 8.84681181495249E-02 
694	 8.89888569538477E-02 
695	 8.92419934301834E-02 
696	 8.91577414810947E-02 
697	 8.90711073934136E-02 
698	 9.00243645712331E-02 
699	 0.090516003739078 
700	 8.99419747007672E-02 
701	 8.96474491765714E-02 
702	 8.97104582403224E-02 
703	 9.00042388291724E-02 
704	 9.03876033829667E-02 
705	 9.07351140716612E-02 
706	 0.090819808974488 
707	 9.09003764113917E-02 
708	 9.11438601362029E-02 
709	 9.14626319349541E-02 
710	 9.16903336015381E-02 
711	 9.15523692352821E-02 
712	 9.13335318861006E-02 
713	 9.12246102559485E-02 
714	 9.16013998208184E-02 
715	 0.09193370312148 
716	 9.17626075268788E-02 
717	 9.20845703231838E-02 
718	 9.27809111468033E-02 
719	 9.26536294048555E-02 
720	 9.25673613169018E-02 
721	 0.092776317251051 
722	 9.28729441503578E-02 
723	 9.28135070335496E-02 
724	 9.25602518271102E-02 
725	 9.26077472136542E-02 
726	 9.29760645961243E-02 
727	 9.33351392105408E-02 
728	 0.093651607800228 
729	 9.38155182579789E-02 
730	 9.33119365315399E-02 
731	 9.28689274910267E-02 
732	 0.093514968766644 
733	 9.39031518311194E-02 
734	 9.37895435337922E-02 
735	 9.34762235883134E-02 
736	 9.31785482917339E-02 
737	 9.30757983414567E-02 
738	 9.31853310864027E-02 
739	 9.34826840499696E-02 
740	 9.39381652912693E-02 
741	 9.42338292415828E-02 
742	 9.43210453699362E-02 
743	 9.45469617146527E-02 
744	 9.46916166984926E-02 
745	 9.45798144646367E-02 
746	 0.094516293892773 
747	 9.45339088451337E-02 
748	 9.45453708713308E-02 
749	 9.47300876896979E-02 
750	 9.50235767602815E-02 
751	 9.47402491109428E-02 
752	 9.44128129389738E-02 
753	 9.46397984366583E-02 
754	 9.50620410937764E-02 
755	 9.53788813993465E-02 
756	 9.50009703854193E-02 
757	 9.44098218925941E-02 
758	 9.39102104249475E-02 
759	 9.43332550428956E-02 
760	 9.58081547510256E-02 
761	 9.67427759898833E-02 
762	 9.68361927553981E-02 
763	 9.65992255798597E-02 
764	 9.71939677989052E-02 
765	 9.72503007927995E-02 
766	 9.65299331973708E-02 
767	 0.096162754975773 
768	 0.096037988918811 
769	 9.59563684537998E-02 
770	 9.59632153998243E-02 
771	 9.60381476369654E-02 
772	 9.60903349675176E-02 
773	 9.61711606404383E-02 
774	 0.096324879431053 
775	 9.66571658844404E-02 
776	 9.69437298160456E-02 
777	 9.67696491374844E-02 
778	 9.65800033897844E-02 
779	 9.65307950097495E-02 
780	 9.66006182858909E-02 
781	 9.67817437657274E-02 
782	 9.70237719657145E-02 
783	 9.68816181976679E-02 
784	 9.65873069200928E-02 
785	 9.68026552289649E-02 
786	 9.68963709967273E-02 
787	 9.67619123238237E-02 
788	 9.69088177060947E-02 
789	 9.72218023376093E-02 
790	 9.75408430228111E-02 
791	 9.75397581689458E-02 
792	 9.73530875593354E-02 
793	 9.74798057219401E-02 
794	 0.097529710085129 
795	 9.74278115695605E-02 
796	 9.74843610654447E-02 
797	 9.76356736233342E-02 
798	 0.097793597883521 
799	 9.79247627620896E-02 
800	 9.79476508650556E-02 
801	 9.75859947391969E-02 
802	 9.77217361440193E-02 
803	 9.84689499818909E-02 
804	 9.83388495737571E-02 
805	 9.79266006139408E-02 
806	 9.79926884250759E-02 
807	 9.83979546247221E-02 
808	 9.88100398617272E-02 
809	 9.82955594999385E-02 
810	 9.79426385566274E-02 
811	 9.82767169790833E-02 
812	 9.93500291466924E-02 
813	 0.099972770633088 
814	 9.86479240063121E-02 
815	 9.85216473264364E-02 
816	 9.96187731639229E-02 
817	 9.92464419295614E-02 
818	 0.098642094470053 
819	 9.84006339035243E-02 
820	 9.86083486556371E-02 
821	 9.90863137584997E-02 
822	 9.95945054559988E-02 
823	 9.92864520969624E-02 
824	 9.85716497839178E-02 
825	 9.91628350312453E-02 
826	 0.099705680335441 
827	 9.96939968179384E-02 
828	 9.97212555628476E-02 
829	 9.97028962863008E-02 
830	 9.94967943528145E-02 
831	 9.95613406255247E-02 
832	 9.99474956712474E-02 
833	 0.100679277277168 
834	 0.100374928177153 
835	 9.88606369954526E-02 
836	 9.88306574687881E-02 
837	 9.94879438317365E-02 
838	 0.099671771495033 
839	 9.97399519128626E-02 
840	 9.98617989526905E-02 
841	 0.100524616273461 
842	 0.100429817839438 
843	 9.93023853850329E-02 
844	 9.90185372531656E-02 
845	 9.93943472508368E-02 
846	 0.100004376209536 
847	 0.100248955367499 
848	 0.100178874688639 
849	 0.10041626113874 
850	 0.100654406189186 
851	 0.100630304566881 
852	 9.95126501988902E-02 
853	 0.098667387004077 
854	 9.95241613341396E-02 
855	 0.100053387148438 
856	 0.100197946230101 
857	 0.101031795836847 
858	 0.101179524980507 
859	 0.10038867732803 
860	 9.98591477141982E-02 
861	 9.95657954458162E-02 
862	 0.099461630723683 
863	 0.100110346417401 
864	 0.100986345949466 
865	 0.100613546665059 
866	 0.100585165737215 
867	 0.101148461135407 
868	 0.100730215336584 
869	 0.100444024670354 
870	 0.101070310928704 
871	 0.100398238370562 
872	 9.94097925895089E-02 
873	 0.100686389086438 
874	 0.101225015870178 
875	 0.100585231237297 
876	 0.100973413692862 
877	 0.10140412461606 
878	 0.101212873174627 
879	 0.101200709552743 
880	 0.101145926168278 
881	 0.100498486832035 
882	 0.101026275910403 
883	 0.102337587833234 
884	 0.101239315253834 
885	 0.100594008544007 
886	 0.101628170590149 
887	 0.100657560446969 
888	 9.95464511936718E-02 
889	 0.101184095537479 
890	 0.101948702376375 
891	 0.101378882799165 
892	 0.100767364844815 
893	 0.100651517122193 
894	 0.101103318374216 
895	 0.100184008581724 
896	 9.95106775942047E-02 
897	 0.101045708560792 
898	 0.101785999079571 
899	 0.101811572917383 
900	 0.103169652874815 
901	 0.103357732706024 
902	 0.102137441559944 
903	 0.10222954510442 
904	 0.102558065225699 
905	 0.102216642888346 
906	 0.101370565822431 
907	 0.100870665436393 
908	 0.10219938878631 
909	 0.102476370629195 
910	 0.101609284039429 
911	 0.102908580097546 
912	 0.103557585974376 
913	 0.102128807443308 
914	 0.100614931016479 
915	 0.100547208924019 
916	 0.103269871047339 
917	 0.104549906958866 
918	 0.103803927258657 
919	 0.102128613665204 
920	 0.100496429270168 
921	 9.96243592172159E-02 
922	 0.100376485711928 
923	 0.101657792271411 
924	 0.102384820533255 
925	 0.102358801478004 
926	 0.101819354293952 
927	 0.101395996301684 
928	 0.101583640782022 
929	 0.102092459367641 
930	 0.100029446578262 
931	 9.97437777039327E-02 
932	 0.103707203796909 
933	 9.95981259117954E-02 
934	 9.50912875922082E-02 
935	 0.103699937009504 
936	 0.110072563646144 
937	 0.111653581966793 
938	 0.112416196569166 
939	 0.109197266497893 
940	 0.1030447083279 
941	 0.101025671707735 
942	 0.10211804483643 
943	 0.104771338716675 
944	 0.104315698661994 
945	 0.101731403299097 
946	 9.97492473362601E-02 
947	 9.90871440784758E-02 
948	 9.99019740515646E-02 
949	 0.101536148278187 
950	 0.103676618120513 
951	 0.105467636303833 
952	 0.104364196782178 
953	 0.100141418805031 
954	 9.37824540761348E-02 
955	 9.61753703210105E-02 
956	 0.103692317898811 
957	 0.106891279040728 
958	 0.10592192597069 
959	 0.102759993298475 
960	 0.104324430602002 
961	 0.105221357613738 
962	 0.103254368705071 
963	 0.101646357219322 
964	 9.99792774650616E-02 
965	 9.79492776039581E-02 
966	 0.101329899652624 
967	 0.106278371428046 
968	 0.103633300872719 
969	 0.102143805390893 
970	 0.103366767604033 
971	 0.103149275007997 
972	 0.105008847345004 
973	 0.109667355706623 
974	 0.10945093321715 
975	 0.105934970627577 
976	 0.101908355500518 
977	 0.099250945307632 
978	 9.95514093740859E-02 
979	 0.104988081648423 
980	 0.108388805150372 
981	 0.107636941073505 
982	 0.104609324169467 
983	 9.89300682133347E-02 
984	 9.26479159872557E-02 
985	 9.76171182168206E-02 
986	 0.104194602939341 
987	 0.101692665028806 
988	 0.102123949784765 
989	 0.105136245075268 
990	 0.105929447900405 
991	 0.105438318082738 
992	 0.103836504237354 
993	 0.100687770261265 
994	 9.99917223803357E-02 
995	 0.103223887410735 
996	 0.10602972547625 
997	 0.106937617395382 
998	 0.104997894819885 
999	 0.102110598793866 
1000	 0.100233825073682 
1001	 0.102019371188003 
1002	 0.102715160058824 
1003	 0.101481798517045 
1004	 9.95848459587999E-02 
1005	 0.100593578988392 
1006	 0.104977970252836 
1007	 0.107571311982506 
1008	 0.105634225867913 
1009	 9.87292240061101E-02 
1010	 9.99017557224194E-02 
1011	 0.103919464217945 
1012	 0.101394067983037 
1013	 9.97723238536681E-02 
1014	 9.93706359358314E-02 
1015	 9.72612250085733E-02 
1016	 9.38892171439756E-02 
1017	 9.07352550558144E-02 
1018	 9.26189012832366E-02 
1019	 9.46244814934283E-02 
1020	 9.51377466901541E-02 
1021	 0.1030129159245 
1022	 0.110332612644158 
1023	 0.109147547779078 
1024	 0.106710778914901 
1025	 0.10644431765133 
1026	 0.111655886134411 
1027	 0.115830530784328 
1028	 0.115516897089125 
1029	 0.105547186680165 
1030	 9.86175858108928E-02 
1031	 9.82955511895883E-02 
1032	 9.75642058347636E-02 
1033	 9.77064803163278E-02 
1034	 9.88990653542818E-02 
1035	 9.79552275901873E-02 
1036	 9.32668459288703E-02 
1037	 8.44486496955573E-02 
1038	 8.22535790547478E-02 
1039	 8.84932500960835E-02 
1040	 0.101463114222741 
1041	 9.76821490165009E-02 
1042	 8.15290928335117E-02 
1043	 8.25502170892893E-02 
1044	 9.33287713373315E-02 
1045	 0.106912145724461 
1046	 0.10585216710251 
1047	 9.58643649724523E-02 
1048	 8.39783510781715E-02 
1049	 8.80396298814335E-02 
1050	 0.10003753795381 
1051	 0.109499413848081 
1052	 9.73310880170795E-02 
1053	 8.41611531168968E-02 
1054	 0.104809408470023 
1055	 0.119264396370729 
1056	 0.115244776687424 
1057	 8.26338049860362E-02 
1058	 6.86597403062275E-02 
1059	 8.20970439371809E-02 
1060	 0.093258696113307 
1061	 0.104995556186741 
1062	 0.113867983618958 
1063	 0.107342012579213 
1064	 0.102420077706326 
1065	 0.109032928088367 
1066	 0.095673322372985 
1067	 0.07483881077145 
1068	 6.66457809325182E-02 
1069	 6.39528692300783E-02 
1070	 7.54395295310761E-02 
1071	 0.115167932134829 
1072	 0.110843885165379 
1073	 0.073834708641469 
1074	 7.19485158872176E-02 
1075	 8.54596408993627E-02 
