Wavelength	AVEI200094.asd
325	 2.94765015047855E-02 
326	 2.37383371852721E-02 
327	 2.33889775941698E-02 
328	 2.95131057683341E-02 
329	 0.031773580598007 
330	 2.75578111631879E-02 
331	 2.61491499680074E-02 
332	 2.63145956691656E-02 
333	 2.62985600638277E-02 
334	 2.83317502971641E-02 
335	 3.08306182803798E-02 
336	 2.92709707253168E-02 
337	 0.029477820212559 
338	 3.14810171884455E-02 
339	 2.63465070771562E-02 
340	 0.02263350011247 
341	 2.68052688632607E-02 
342	 2.71326443421676E-02 
343	 2.48169692541197E-02 
344	 2.56046105103079E-02 
345	 2.63948050723184E-02 
346	 2.63919401385416E-02 
347	 2.60389360832437E-02 
348	 2.42581899617641E-02 
349	 2.10151827189737E-02 
350	 2.23092952870287E-02 
351	 2.52033215857867E-02 
352	 2.39559831456455E-02 
353	 2.42182960671074E-02 
354	 2.59065403612603E-02 
355	 2.36253452406942E-02 
356	 2.13702357062577E-02 
357	 2.16304697754535E-02 
358	 2.35063416833642E-02 
359	 2.50088608553807E-02 
360	 2.34628725408794E-02 
361	 2.20609066781047E-02 
362	 2.17711190846835E-02 
363	 2.28697685964304E-02 
364	 2.37914862794521E-02 
365	 2.36710319021121E-02 
366	 0.023202577418421 
367	 2.23962119658162E-02 
368	 2.11434271766247E-02 
369	 2.09093545286613E-02 
370	 0.021684337993359 
371	 2.21442522587347E-02 
372	 2.30120044113064E-02 
373	 2.42388205133827E-02 
374	 2.29749648890238E-02 
375	 0.020982378211275 
376	 0.021025783793572 
377	 0.021785369052801 
378	 2.24686914717253E-02 
379	 2.14761016927704E-02 
380	 2.10052353109283E-02 
381	 2.19419766331828E-02 
382	 2.20880508151695E-02 
383	 2.17965231732052E-02 
384	 2.17962638044472E-02 
385	 2.15124713608277E-02 
386	 2.12397150747076E-02 
387	 2.22502943614316E-02 
388	 2.31002181171349E-02 
389	 2.30560468755312E-02 
390	 2.21696807607659E-02 
391	 2.15209891611261E-02 
392	 2.22651868089101E-02 
393	 2.20270377015591E-02 
394	 2.12469187611409E-02 
395	 2.27495043129476E-02 
396	 2.36796959994686E-02 
397	 2.30146865955283E-02 
398	 2.24244700408434E-02 
399	 0.022066200859622 
400	 2.19048402676478E-02 
401	 2.14289532941583E-02 
402	 2.09822397059115E-02 
403	 0.021731660537212 
404	 2.21210285889377E-02 
405	 2.17072310192832E-02 
406	 2.20452349470386E-02 
407	 2.23592953939102E-02 
408	 2.15715494060618E-02 
409	 2.12021456107116E-02 
410	 2.13961900519601E-02 
411	 2.15710628996781E-02 
412	 2.14188127244506E-02 
413	 0.02095963868278 
414	 2.13873008217609E-02 
415	 2.20507777514206E-02 
416	 2.19919137730193E-02 
417	 2.14545825016942E-02 
418	 2.08918720929052E-02 
419	 2.15772638702354E-02 
420	 2.19596487059675E-02 
421	 0.021309022816301 
422	 2.08354851180597E-02 
423	 2.08301674626724E-02 
424	 2.15007535655603E-02 
425	 2.17281201090499E-02 
426	 0.021408409388983 
427	 2.13103859873593E-02 
428	 2.14368562122908E-02 
429	 2.17212701561574E-02 
430	 2.15593725088953E-02 
431	 2.12756594573216E-02 
432	 2.15563207539354E-02 
433	 2.16313582983388E-02 
434	 2.13957674513946E-02 
435	 2.12225854539085E-02 
436	 2.12648525237317E-02 
437	 0.021588904044793 
438	 2.19189317345814E-02 
439	 2.20521619706274E-02 
440	 0.021672016255439 
441	 2.16410206334469E-02 
442	 2.20259195057699E-02 
443	 2.18864118745242E-02 
444	 2.15952478818582E-02 
445	 2.15036416167845E-02 
446	 2.17933316857323E-02 
447	 2.21547340455943E-02 
448	 2.18177160347041E-02 
449	 2.15925975357374E-02 
450	 2.16880891795664E-02 
451	 2.16540387764877E-02 
452	 2.15902743129804E-02 
453	 2.16295008482508E-02 
454	 2.19826249164107E-02 
455	 2.24433796006458E-02 
456	 2.23247457677888E-02 
457	 2.23183577997504E-02 
458	 2.26191706228576E-02 
459	 2.25905374908315E-02 
460	 2.24154418408911E-02 
461	 2.23698694883521E-02 
462	 2.23700139115204E-02 
463	 2.23738847695281E-02 
464	 2.22806027423645E-02 
465	 2.22389130069281E-02 
466	 2.23255680087685E-02 
467	 2.25461445897624E-02 
468	 2.25410289553822E-02 
469	 2.17900181107059E-02 
470	 2.19084476362445E-02 
471	 2.28033190042564E-02 
472	 2.25114177499336E-02 
473	 2.22569466364524E-02 
474	 0.022741447041281 
475	 2.29064696917424E-02 
476	 2.28130663557435E-02 
477	 2.28149347506697E-02 
478	 2.28329654722673E-02 
479	 2.28404521905381E-02 
480	 2.27490808199126E-02 
481	 2.27639853952531E-02 
482	 2.30101396487185E-02 
483	 2.28692980236397E-02 
484	 2.26003357451725E-02 
485	 2.30764377791631E-02 
486	 2.35425574062303E-02 
487	 2.37428256858861E-02 
488	 2.39950017066547E-02 
489	 2.40001300756461E-02 
490	 2.34869975066828E-02 
491	 2.32299491091039E-02 
492	 2.33234293767353E-02 
493	 2.36008684498069E-02 
494	 2.36675702487761E-02 
495	 2.34184476275548E-02 
496	 2.34922795166798E-02 
497	 0.023668669878909 
498	 2.35873179517157E-02 
499	 2.34049050463192E-02 
500	 2.33058121146718E-02 
501	 2.38043272187152E-02 
502	 2.41264307735413E-02 
503	 2.38871300867586E-02 
504	 2.41039244905898E-02 
505	 2.44842164551009E-02 
506	 2.43211100330712E-02 
507	 2.42163016411618E-02 
508	 2.42952090179258E-02 
509	 2.43155624158563E-02 
510	 2.44078347479109E-02 
511	 2.46609285692272E-02 
512	 2.48227734445405E-02 
513	 2.49107688651869E-02 
514	 2.50917682608281E-02 
515	 2.51241036111212E-02 
516	 2.50486716432032E-02 
517	 2.55822012189985E-02 
518	 2.61059169838848E-02 
519	 2.59188785017976E-02 
520	 2.55525163038748E-02 
521	 2.53358699074098E-02 
522	 2.57861520156447E-02 
523	 2.63443762011532E-02 
524	 2.66688681010274E-02 
525	 2.64052394170566E-02 
526	 2.60387817611276E-02 
527	 2.62947243151763E-02 
528	 2.66544186060126E-02 
529	 2.69433874479715E-02 
530	 2.70897592778952E-02 
531	 2.71432514039872E-02 
532	 2.71702159531942E-02 
533	 2.74387275399907E-02 
534	 2.77970774725028E-02 
535	 2.78807635543092E-02 
536	 2.78811834799325E-02 
537	 2.78760323853149E-02 
538	 2.79215742251286E-02 
539	 2.80362102164214E-02 
540	 2.82206708944923E-02 
541	 2.82397522366657E-02 
542	 2.81711927430718E-02 
543	 2.83495981199675E-02 
544	 0.028551986470363 
545	 2.86878856025249E-02 
546	 2.88341212679883E-02 
547	 2.89082588153401E-02 
548	 2.87983872047899E-02 
549	 2.88368127460553E-02 
550	 2.90276332703414E-02 
551	 2.90634918264168E-02 
552	 2.91269476829957E-02 
553	 2.93099432860282E-02 
554	 2.93524812350406E-02 
555	 2.93753078312264E-02 
556	 2.96780814597701E-02 
557	 2.99015037274803E-02 
558	 2.99206206966344E-02 
559	 2.97536097021495E-02 
560	 2.96143594869232E-02 
561	 2.96974357679128E-02 
562	 2.98751490520642E-02 
563	 3.00850734558358E-02 
564	 3.02486104352967E-02 
565	 3.03957855208987E-02 
566	 3.04936790758511E-02 
567	 3.03017188296541E-02 
568	 3.00859873129804E-02 
569	 3.02059330021027E-02 
570	 3.03308913563837E-02 
571	 0.03037494051517 
572	 3.03526885971099E-02 
573	 3.03005930942536E-02 
574	 3.02836105921164E-02 
575	 3.06258711008871E-02 
576	 3.10307305146072E-02 
577	 0.030888015409214 
578	 3.07081814270728E-02 
579	 3.06458037581777E-02 
580	 3.05780250301135E-02 
581	 3.06426320653485E-02 
582	 3.09372226291563E-02 
583	 3.10992614670481E-02 
584	 3.11405936836738E-02 
585	 3.13013483122472E-02 
586	 3.13641306134507E-02 
587	 3.12675674457028E-02 
588	 0.031175339730187 
589	 3.11977501416213E-02 
590	 3.14492462292038E-02 
591	 3.14576474120458E-02 
592	 3.12652678679989E-02 
593	 3.14025260232801E-02 
594	 3.16275467070286E-02 
595	 3.17833494933051E-02 
596	 3.18077657772139E-02 
597	 3.17773645564974E-02 
598	 3.18471310614432E-02 
599	 0.031842151816466 
600	 3.18312363501346E-02 
601	 3.23833345754968E-02 
602	 0.032722890865734 
603	 3.22324298369348E-02 
604	 3.23022670581223E-02 
605	 3.28071210614966E-02 
606	 3.27534366742235E-02 
607	 3.27871742679067E-02 
608	 3.30852994599794E-02 
609	 3.32093018224623E-02 
610	 3.31247891482635E-02 
611	 3.28465216897817E-02 
612	 3.29083348083999E-02 
613	 0.033318757705136 
614	 3.36501882788042E-02 
615	 3.37713466347211E-02 
616	 3.36116252378542E-02 
617	 3.34069824792025E-02 
618	 3.32599625616048E-02 
619	 3.32443015108878E-02 
620	 3.35666498054974E-02 
621	 3.41069351535293E-02 
622	 0.034150045144874 
623	 3.38826624060623E-02 
624	 3.35418930502921E-02 
625	 3.36885613936012E-02 
626	 3.41453555273391E-02 
627	 3.41531918876384E-02 
628	 3.41254137424378E-02 
629	 3.42099014277733E-02 
630	 3.43086904349557E-02 
631	 3.44631251439428E-02 
632	 0.034726612886073 
633	 3.48517229155867E-02 
634	 3.48569644371231E-02 
635	 3.49745066597222E-02 
636	 3.53046920189941E-02 
637	 3.58067112145788E-02 
638	 0.035638620661289 
639	 3.52321908765779E-02 
640	 3.55554634199672E-02 
641	 3.57971684146414E-02 
642	 3.57317246886467E-02 
643	 3.55114099638287E-02 
644	 3.53741964566368E-02 
645	 3.55150678083277E-02 
646	 3.56595202940142E-02 
647	 3.57772366916329E-02 
648	 3.59396411673038E-02 
649	 3.61101408118059E-02 
650	 3.62444984524597E-02 
651	 3.62658695265127E-02 
652	 3.60554599541467E-02 
653	 3.54904239276091E-02 
654	 3.53613171826434E-02 
655	 3.57468766220371E-02 
656	 3.61643224393051E-02 
657	 3.64108518243937E-02 
658	 3.63770781733606E-02 
659	 3.63923088448489E-02 
660	 3.64025024122404E-02 
661	 3.62439865076166E-02 
662	 3.61110829452391E-02 
663	 3.60958081775159E-02 
664	 3.63234931629966E-02 
665	 0.036495882616532 
666	 3.63637707433203E-02 
667	 3.60598356628347E-02 
668	 3.58039435758129E-02 
669	 0.036050816454439 
670	 3.63378275480695E-02 
671	 3.65065906040845E-02 
672	 3.67408633966991E-02 
673	 0.036947459610989 
674	 3.70132278855084E-02 
675	 0.037073548955684 
676	 3.71472709716612E-02 
677	 3.71513267227512E-02 
678	 0.037309094691514 
679	 3.76976479485189E-02 
680	 3.79651482855591E-02 
681	 3.80272026115935E-02 
682	 3.78119349172072E-02 
683	 3.78543114698075E-02 
684	 3.83263783143746E-02 
685	 3.92597833035123E-02 
686	 4.00538937051303E-02 
687	 4.01717254235523E-02 
688	 4.02947536664791E-02 
689	 4.07696656664565E-02 
690	 4.21280081015902E-02 
691	 4.28389952915588E-02 
692	 0.042732810409179 
693	 4.35362595076393E-02 
694	 4.45534706813723E-02 
695	 4.49501242011304E-02 
696	 0.045797207846813 
697	 4.70268073200463E-02 
698	 0.04796295312235 
699	 4.89076691149457E-02 
700	 4.99378937831849E-02 
701	 5.07626473511757E-02 
702	 5.15453529172911E-02 
703	 5.25597885162743E-02 
704	 5.32725092401883E-02 
705	 5.37974254245109E-02 
706	 5.49478390500186E-02 
707	 0.056061003537627 
708	 5.67322913286124E-02 
709	 5.74420989029833E-02 
710	 5.82523861367584E-02 
711	 5.91747056268202E-02 
712	 5.98487662894749E-02 
713	 6.02925653965857E-02 
714	 6.12009423972785E-02 
715	 6.19924107790078E-02 
716	 6.21595846427535E-02 
717	 6.25645122443871E-02 
718	 6.33857484106204E-02 
719	 6.42796220004179E-02 
720	 6.53109947077058E-02 
721	 6.62429312288978E-02 
722	 6.64436769102436E-02 
723	 6.65295753140458E-02 
724	 6.71650696589635E-02 
725	 6.79203278138362E-02 
726	 6.86335425705428E-02 
727	 6.93747977649719E-02 
728	 6.98259767162402E-02 
729	 6.99021191737734E-02 
730	 7.01125000811565E-02 
731	 7.07223764508504E-02 
732	 7.19702472348854E-02 
733	 7.26051537039047E-02 
734	 7.25989450589928E-02 
735	 7.27764456357942E-02 
736	 7.31971965398504E-02 
737	 7.38702113148329E-02 
738	 7.45034545765639E-02 
739	 7.50376712289269E-02 
740	 7.54440655452786E-02 
741	 7.60001744406644E-02 
742	 0.076749561259028 
743	 7.75349941080562E-02 
744	 7.80177312997165E-02 
745	 7.79928185384944E-02 
746	 7.84691117476725E-02 
747	 7.92633358176136E-02 
748	 7.95085563715169E-02 
749	 0.079646134396958 
750	 7.98524341015337E-02 
751	 8.02062415585613E-02 
752	 8.07100325379487E-02 
753	 8.13266551672827E-02 
754	 0.081367131519742 
755	 8.11310213150165E-02 
756	 8.19501328466386E-02 
757	 8.24323171314801E-02 
758	 8.20546235977768E-02 
759	 8.20035308743977E-02 
760	 8.25258704206053E-02 
761	 8.34163916634857E-02 
762	 8.42562260771957E-02 
763	 8.47955738629008E-02 
764	 8.52120470183308E-02 
765	 0.08541380106384 
766	 0.08547660206988 
767	 8.58148534629671E-02 
768	 8.63567384447165E-02 
769	 0.08702397915229 
770	 8.75228116804355E-02 
771	 8.78551201138485E-02 
772	 0.088339572775995 
773	 8.89044241189719E-02 
774	 8.94823444560481E-02 
775	 8.99867084996141E-02 
776	 9.03401124821544E-02 
777	 9.04314669162692E-02 
778	 9.06167788751716E-02 
779	 0.090992415262884 
780	 9.13845221911298E-02 
781	 9.18856187034839E-02 
782	 9.25210747761271E-02 
783	 0.092726078504744 
784	 9.27160456941655E-02 
785	 9.31469895348983E-02 
786	 9.35716061171593E-02 
787	 9.38848240126808E-02 
788	 9.43092400934709E-02 
789	 9.46622041795102E-02 
790	 9.48022721012054E-02 
791	 9.53738100013745E-02 
792	 0.096112629221777 
793	 9.60347089096531E-02 
794	 9.63737734762321E-02 
795	 9.72859885460513E-02 
796	 9.71790952059144E-02 
797	 9.68264420088063E-02 
798	 9.70982479049356E-02 
799	 9.77251759540634E-02 
800	 9.84985306393105E-02 
801	 0.098983143630869 
802	 0.099416715054095 
803	 9.98971578595966E-02 
804	 0.100520990769069 
805	 0.100979110151541 
806	 0.100981939461153 
807	 0.101560941107192 
808	 0.102412380362795 
809	 0.101928066999777 
810	 0.101902000476839 
811	 0.102874799209804 
812	 0.102751175538664 
813	 0.102464004021637 
814	 0.103447618144575 
815	 0.103193700817323 
816	 0.102206067296126 
817	 0.104284823612355 
818	 0.105662354831191 
819	 0.105126424556662 
820	 0.105890179569051 
821	 0.106935126571265 
822	 0.10683064890556 
823	 0.107184677480832 
824	 0.10815938721662 
825	 0.109301632826547 
826	 0.109868640576714 
827	 0.109734098648206 
828	 0.110299215689047 
829	 0.110871949081232 
830	 0.110497326682502 
831	 0.111150139671543 
832	 0.112575197338681 
833	 0.112791985269245 
834	 0.113016469215329 
835	 0.113691251752111 
836	 0.114431654333399 
837	 0.114525526175113 
838	 0.113314688105744 
839	 0.113786258309963 
840	 0.115598699074029 
841	 0.11590406613748 
842	 0.115988133272478 
843	 0.116351256073964 
844	 0.116844739286487 
845	 0.117245239954956 
846	 0.117326137006029 
847	 0.117491418213017 
848	 0.117801070553451 
849	 0.118118808444074 
850	 0.118664305571218 
851	 0.119365621421159 
852	 0.119208117181144 
853	 0.119340298956479 
854	 0.120899741374493 
855	 0.120564588460623 
856	 0.119332381813322 
857	 0.121409488473853 
858	 0.123064069285728 
859	 0.123229733949364 
860	 0.123405727960134 
861	 0.123642430294694 
862	 0.123882334403445 
863	 0.123501906225086 
864	 0.122899903893788 
865	 0.12319628653196 
866	 0.124120104131483 
867	 0.125265713002505 
868	 0.125246344365815 
869	 0.125173101780606 
870	 0.125976134008941 
871	 0.126937974315667 
872	 0.127914288525147 
873	 0.128877947597958 
874	 0.129446624260231 
875	 0.129499753086799 
876	 0.128877452291901 
877	 0.129373342928923 
878	 0.131883019759863 
879	 0.132699523398134 
880	 0.132420199868976 
881	 0.132888641046762 
882	 0.133659062416077 
883	 0.134406108155472 
884	 0.134294300264323 
885	 0.133982480253194 
886	 0.133992746236001 
887	 0.134938678261464 
888	 0.136241960560608 
889	 0.137050259356512 
890	 0.137383277300941 
891	 0.13733333752747 
892	 0.137174747811709 
893	 0.137461650370449 
894	 0.138198710921568 
895	 0.137349403977879 
896	 0.136261973407406 
897	 0.136802285609281 
898	 0.138581730279967 
899	 0.1408601512359 
900	 0.14239445804232 
901	 0.141678316131435 
902	 0.139066062582502 
903	 0.138209921782256 
904	 0.138588437237241 
905	 0.139575792770894 
906	 0.140113955462225 
907	 0.140557911338475 
908	 0.141910044264775 
909	 0.143048885532573 
910	 0.143382308137461 
911	 0.141946171184822 
912	 0.141700183706867 
913	 0.14376469040884 
914	 0.142937933230005 
915	 0.141607026068269 
916	 0.143187287533791 
917	 0.145074035328511 
918	 0.145933006520883 
919	 0.143474950596335 
920	 0.142899612226508 
921	 0.145424144895442 
922	 0.147267555521108 
923	 0.146167424611774 
924	 0.140935812499166 
925	 0.141336610004945 
926	 0.144950982040153 
927	 0.142154387033895 
928	 0.141865618243839 
929	 0.14539120125309 
930	 0.14275869929521 
931	 0.136796116604759 
932	 0.131430011348958 
933	 0.136617428952819 
934	 0.145137476815729 
935	 0.143152413710477 
936	 0.14111768351962 
937	 0.141173683413392 
938	 0.14346203623695 
939	 0.137275474164002 
940	 0.124024662935156 
941	 0.123588529732539 
942	 0.130302261002359 
943	 0.138096939670519 
944	 0.138846543437155 
945	 0.132834852550971 
946	 0.122634863961558 
947	 0.124990779921977 
948	 0.137621683396077 
949	 0.139038978536764 
950	 0.132277731535326 
951	 0.122051619002137 
952	 0.126506796339959 
953	 0.13611772587596 
954	 0.141189444389561 
955	 0.143767395145246 
956	 0.142245405030096 
957	 0.133526847251681 
958	 0.129641743774741 
959	 0.131808611343076 
960	 0.132088640280381 
961	 0.131744244359251 
962	 0.131032779536077 
963	 0.128476246554987 
964	 0.125736642250824 
965	 0.124640658025191 
966	 0.127635864147577 
967	 0.132712514627484 
968	 0.135840568014874 
969	 0.136182640918686 
970	 0.134849185870793 
971	 0.13769627931644 
972	 0.137348482461153 
973	 0.131861809960162 
974	 0.136141150273423 
975	 0.141020085514169 
976	 0.135828528307852 
977	 0.136153670729474 
978	 0.139591783520552 
979	 0.134738723893707 
980	 0.12975891747401 
981	 0.127692926179233 
982	 0.12957510353051 
983	 0.135269259943475 
984	 0.142565159805474 
985	 0.140088297152 
986	 0.132999456891374 
987	 0.128542059218668 
988	 0.133009466951022 
989	 0.141497974393362 
990	 0.142036604936448 
991	 0.143057210211935 
992	 0.145443483090564 
993	 0.144053962653182 
994	 0.142495674787591 
995	 0.142706268796554 
996	 0.143645671607187 
997	 0.145349239620125 
998	 0.147775254689146 
999	 0.149940022439044 
1000	 0.151163221842686 
1001	 0.150690405066742 
1002	 0.152757602486602 
1003	 0.155926705934549 
1004	 0.151568230477775 
1005	 0.148700997477727 
1006	 0.150250172635948 
1007	 0.149876399157369 
1008	 0.151294939477771 
1009	 0.15677160714562 
1010	 0.161764991460076 
1011	 0.159886736026658 
1012	 0.144066867125135 
1013	 0.143539899105059 
1014	 0.156223570596508 
1015	 0.160537797921201 
1016	 0.156418240904781 
1017	 0.146882077409106 
1018	 0.146668257411561 
1019	 0.149408531685676 
1020	 0.152882533282634 
1021	 0.169283415775011 
1022	 0.178224741526748 
1023	 0.162089973018301 
1024	 0.155437094515877 
1025	 0.160801587528258 
1026	 0.171177022697766 
1027	 0.163688449179578 
1028	 0.143785003693234 
1029	 0.148293844871051 
1030	 0.159315749847886 
1031	 0.167792589987803 
1032	 0.16180296150733 
1033	 0.154258322145719 
1034	 0.154235638525975 
1035	 0.163740780701843 
1036	 0.168513484465758 
1037	 0.156010385606399 
1038	 0.165802404367986 
1039	 0.183917285577414 
1040	 0.177916508706286 
1041	 0.173311869711874 
1042	 0.173589752907377 
1043	 0.168134664150993 
1044	 0.166901586025223 
1045	 0.170790711771877 
1046	 0.168583936341081 
1047	 0.165320220851514 
1048	 0.163219279801108 
1049	 0.154298745556812 
1050	 0.14778051988254 
1051	 0.15332664911018 
1052	 0.168900860502435 
1053	 0.185906234634709 
1054	 0.193552573626348 
1055	 0.184472974881729 
1056	 0.167269657012609 
1057	 0.168040268932998 
1058	 0.175534148152274 
1059	 0.181891265089034 
1060	 0.168589286092837 
1061	 0.166261772543875 
1062	 0.182371783507598 
1063	 0.179486240459588 
1064	 0.160681019269015 
1065	 0.138830958965377 
1066	 0.170806287721855 
1067	 0.212235031570593 
1068	 0.207500443627937 
1069	 0.21281640354413 
1070	 0.222532060823897 
1071	 0.211088515814576 
1072	 0.189545023007963 
1073	 0.167245140879558 
1074	 0.165465997645945 
1075	 0.159974327245601 
