Wavelength	AVEI200294.asd
325	 3.82609057547426E-02 
326	 4.07908496515504E-02 
327	 3.33658884380906E-02 
328	 2.99648178647188E-02 
329	 0.032438037812357 
330	 3.93135722882076E-02 
331	 4.07540822342197E-02 
332	 3.89318716847419E-02 
333	 3.65603846243643E-02 
334	 3.04579878100936E-02 
335	 2.53661184475671E-02 
336	 3.38696935736404E-02 
337	 3.73370016450038E-02 
338	 3.24753675713279E-02 
339	 3.28133439876697E-02 
340	 3.45461764159566E-02 
341	 3.41542772672835E-02 
342	 3.36902396953733E-02 
343	 3.28037315755882E-02 
344	 3.02306249879178E-02 
345	 2.81559686373885E-02 
346	 0.027542404876867 
347	 2.94744323329032E-02 
348	 3.04540872742498E-02 
349	 0.028648875302498 
350	 2.91870729893332E-02 
351	 3.11218689298437E-02 
352	 3.20558173929955E-02 
353	 3.20148050918013E-02 
354	 3.11556786958835E-02 
355	 2.99947223848022E-02 
356	 2.97214593626652E-02 
357	 3.08029332763437E-02 
358	 3.09448227922672E-02 
359	 3.11217215674627E-02 
360	 3.32652265799952E-02 
361	 3.23883934260096E-02 
362	 2.92678253235723E-02 
363	 3.03606530790089E-02 
364	 3.24944710062855E-02 
365	 3.34989488347449E-02 
366	 3.15985303222735E-02 
367	 2.86177045204464E-02 
368	 2.70771301860009E-02 
369	 0.02738358433524 
370	 2.88645044568624E-02 
371	 2.89119613205899E-02 
372	 2.91589192299957E-02 
373	 3.01469180101422E-02 
374	 2.95660237667211E-02 
375	 2.84297298356464E-02 
376	 2.84021974755724E-02 
377	 0.029644095749542 
378	 3.13109867403567E-02 
379	 3.07972085945379E-02 
380	 2.93177875874709E-02 
381	 2.76804874212724E-02 
382	 2.64817238963691E-02 
383	 2.58320263503644E-02 
384	 0.025740634003591 
385	 2.55680267282732E-02 
386	 0.025290456917836 
387	 2.53442815622901E-02 
388	 2.57406307325758E-02 
389	 2.63830886585846E-02 
390	 2.69266999576404E-02 
391	 2.68273647048655E-02 
392	 2.55674833185261E-02 
393	 2.45458484880506E-02 
394	 2.44022374745959E-02 
395	 2.58967632401224E-02 
396	 2.71936314905375E-02 
397	 2.75027957616797E-02 
398	 2.75643984208958E-02 
399	 2.73046737564368E-02 
400	 2.66202096239329E-02 
401	 2.61592385210187E-02 
402	 2.58635992495945E-02 
403	 0.025102290831162 
404	 2.50937106766524E-02 
405	 2.60413867562904E-02 
406	 2.60419773248127E-02 
407	 2.56771501992214E-02 
408	 2.58562112813494E-02 
409	 2.57724181098339E-02 
410	 2.54537032755254E-02 
411	 2.54623319830922E-02 
412	 2.55132124349541E-02 
413	 0.025415824316183 
414	 2.48011330020116E-02 
415	 0.024373169259713 
416	 2.50512140049356E-02 
417	 2.49573282168678E-02 
418	 0.024162717826578 
419	 2.43154415855451E-02 
420	 2.45211796474993E-02 
421	 2.43344406900738E-02 
422	 2.41921039206609E-02 
423	 2.41586765904032E-02 
424	 2.42621557347861E-02 
425	 2.41578719692109E-02 
426	 2.39466336641789E-02 
427	 2.43588660424577E-02 
428	 2.46344908863662E-02 
429	 2.43451906766566E-02 
430	 2.43311904351974E-02 
431	 0.02437813845829 
432	 0.023932551360073 
433	 2.37882712508163E-02 
434	 2.40564443435827E-02 
435	 2.44034835807403E-02 
436	 2.42611744511751E-02 
437	 2.34261116377185E-02 
438	 2.35849661417292E-02 
439	 2.42848588233345E-02 
440	 2.42820831577839E-02 
441	 2.40384018176821E-02 
442	 2.37759198024682E-02 
443	 2.38838557345343E-02 
444	 2.40971461464495E-02 
445	 2.41835377050037E-02 
446	 2.41778939992106E-02 
447	 2.41481348896934E-02 
448	 2.42750055479348E-02 
449	 2.41501677710592E-02 
450	 2.37555780152418E-02 
451	 2.36821685381088E-02 
452	 2.38510385835488E-02 
453	 2.41344616967593E-02 
454	 2.43137321131964E-02 
455	 2.43633663777881E-02 
456	 2.44113264598111E-02 
457	 2.42090292347788E-02 
458	 2.38143222162975E-02 
459	 0.024127229666353 
460	 2.45780835439652E-02 
461	 2.44192202990146E-02 
462	 2.41159406005756E-02 
463	 2.39055025485396E-02 
464	 2.41804996131955E-02 
465	 2.44014054433364E-02 
466	 2.43321746413965E-02 
467	 2.45106054162196E-02 
468	 2.46822941974003E-02 
469	 2.43982323536043E-02 
470	 2.43275151827456E-02 
471	 0.02454677314461 
472	 2.46795906717395E-02 
473	 2.46838701582581E-02 
474	 2.45502520872608E-02 
475	 2.44381272395453E-02 
476	 2.44549521750851E-02 
477	 2.47638582115223E-02 
478	 2.47109966270905E-02 
479	 2.43112924278592E-02 
480	 2.44592547805108E-02 
481	 2.48461382142933E-02 
482	 2.51651698562001E-02 
483	 2.51056167253843E-02 
484	 2.47842252356738E-02 
485	 2.45963322606189E-02 
486	 0.024538213158564 
487	 2.46344755138667E-02 
488	 2.48845910748716E-02 
489	 2.50933323866926E-02 
490	 2.50728489419558E-02 
491	 2.49203531830555E-02 
492	 0.024779757557504 
493	 2.49864227453398E-02 
494	 2.50905765618014E-02 
495	 2.49263158511311E-02 
496	 2.47666327977581E-02 
497	 2.47686572124459E-02 
498	 2.50935554048632E-02 
499	 2.51903217510512E-02 
500	 2.50632673165936E-02 
501	 0.025249899365844 
502	 2.54030811417705E-02 
503	 2.53713093766739E-02 
504	 2.57197850552882E-02 
505	 2.61737953993087E-02 
506	 2.61657575542427E-02 
507	 2.62321525196752E-02 
508	 2.64255662832732E-02 
509	 2.62671793171425E-02 
510	 2.63162754012326E-02 
511	 2.69289529422334E-02 
512	 2.67478744355273E-02 
513	 2.61780199195602E-02 
514	 2.66745451655902E-02 
515	 2.72869819419306E-02 
516	 2.77086005685401E-02 
517	 2.82256091262849E-02 
518	 0.028550172328594 
519	 2.83864517045875E-02 
520	 0.028246990268027 
521	 2.83476902365457E-02 
522	 2.89627430652209E-02 
523	 2.93993022464217E-02 
524	 2.93965265878867E-02 
525	 2.95899792468098E-02 
526	 2.98705332679241E-02 
527	 2.99865774013237E-02 
528	 3.01614618058077E-02 
529	 3.03807644696437E-02 
530	 0.030363939088539 
531	 3.05271937599186E-02 
532	 3.10813392821884E-02 
533	 3.12777546561595E-02 
534	 3.11920869357662E-02 
535	 3.11962761618119E-02 
536	 3.11401689987259E-02 
537	 3.11080010349979E-02 
538	 3.16479874281547E-02 
539	 3.21173081272308E-02 
540	 3.19147499250741E-02 
541	 0.03201323570528 
542	 3.23631890300226E-02 
543	 3.23123557168633E-02 
544	 3.21939811931315E-02 
545	 3.21643986875335E-02 
546	 0.032271008069409 
547	 3.24816273801741E-02 
548	 0.032744530760496 
549	 3.29123438730894E-02 
550	 3.29915093944052E-02 
551	 3.31748033524281E-02 
552	 3.32885863623022E-02 
553	 3.32561897727228E-02 
554	 3.34046041949239E-02 
555	 3.36453634053168E-02 
556	 3.37375366195427E-02 
557	 3.37572587834141E-02 
558	 3.37340400176176E-02 
559	 3.37276890505719E-02 
560	 3.36709388117475E-02 
561	 3.35142762304346E-02 
562	 3.34748405210601E-02 
563	 3.35285403902463E-02 
564	 3.34785858827676E-02 
565	 3.35557768388759E-02 
566	 3.37883232897024E-02 
567	 3.37768193681302E-02 
568	 3.36382993458057E-02 
569	 3.35696243900117E-02 
570	 3.33935908477399E-02 
571	 3.31416557573318E-02 
572	 0.032995197136864 
573	 3.30826485572604E-02 
574	 3.34105289787193E-02 
575	 0.033346145345355 
576	 3.30786132128758E-02 
577	 3.31242933228014E-02 
578	 3.31046267281353E-02 
579	 3.29551996017638E-02 
580	 3.28684957609524E-02 
581	 3.29366643212274E-02 
582	 3.31996419348432E-02 
583	 3.31878475033089E-02 
584	 3.29438788734566E-02 
585	 3.28214282121658E-02 
586	 3.26017334009184E-02 
587	 3.23385577931142E-02 
588	 3.28384670943906E-02 
589	 3.34210705558411E-02 
590	 3.31115523362754E-02 
591	 3.29594342772891E-02 
592	 3.31091860460339E-02 
593	 3.31269505627546E-02 
594	 3.31961095962057E-02 
595	 3.33974970946588E-02 
596	 3.35552124533037E-02 
597	 3.35339050950742E-02 
598	 3.31188042382669E-02 
599	 3.29778811701835E-02 
600	 3.32557369597216E-02 
601	 3.35721098211261E-02 
602	 3.37096853668973E-02 
603	 3.35049031320416E-02 
604	 3.32046765872527E-02 
605	 3.29893038296523E-02 
606	 3.32023194827479E-02 
607	 3.32470161526463E-02 
608	 3.29281779048737E-02 
609	 3.26763161375953E-02 
610	 3.25992305556788E-02 
611	 3.27726111919814E-02 
612	 3.27126324812744E-02 
613	 3.24664003417449E-02 
614	 0.032638173102782 
615	 3.28211051130061E-02 
616	 3.27654907837788E-02 
617	 3.26088677145924E-02 
618	 3.24541791154336E-02 
619	 3.24466891355455E-02 
620	 0.032391518648974 
621	 3.22759390462623E-02 
622	 3.22753432135305E-02 
623	 3.24463525621543E-02 
624	 3.28034366239244E-02 
625	 3.29672187715325E-02 
626	 3.28404844944528E-02 
627	 3.23205882978512E-02 
628	 3.21063032307452E-02 
629	 3.24127862290518E-02 
630	 3.25247035383297E-02 
631	 3.25106793718824E-02 
632	 3.25374005516908E-02 
633	 0.03233942706965 
634	 3.20705186341896E-02 
635	 3.24080083404303E-02 
636	 3.27772105989385E-02 
637	 3.28049143220121E-02 
638	 3.24717899113869E-02 
639	 3.21146090952668E-02 
640	 3.23431395675223E-02 
641	 3.24295895520279E-02 
642	 3.21766695402941E-02 
643	 3.17886131600957E-02 
644	 3.14791810738034E-02 
645	 3.14289944862185E-02 
646	 3.15429294948758E-02 
647	 3.16719148237468E-02 
648	 3.15078119759508E-02 
649	 3.12341086427628E-02 
650	 3.09972749969405E-02 
651	 3.11132009332585E-02 
652	 3.14199995490301E-02 
653	 3.16896976527466E-02 
654	 3.13696131490602E-02 
655	 3.06629515761485E-02 
656	 3.08919701845519E-02 
657	 3.10559280980264E-02 
658	 3.06075224477663E-02 
659	 3.02134800356825E-02 
660	 2.99228272628343E-02 
661	 2.96850819683763E-02 
662	 2.94857224782857E-02 
663	 2.93313949660391E-02 
664	 2.93031093633649E-02 
665	 2.91923485966386E-02 
666	 2.88510069378466E-02 
667	 2.87132046842985E-02 
668	 2.86954228646712E-02 
669	 2.83460846652091E-02 
670	 0.028307159857588 
671	 2.86401862410013E-02 
672	 2.82783577541513E-02 
673	 2.78064426660618E-02 
674	 2.79732418554056E-02 
675	 2.82199205962466E-02 
676	 0.028383545366198 
677	 2.83620004658975E-02 
678	 2.83856614545713E-02 
679	 2.85902933771964E-02 
680	 2.89392872911346E-02 
681	 2.93325845256567E-02 
682	 2.96134389741675E-02 
683	 3.01673286440854E-02 
684	 3.09357909712938E-02 
685	 0.031229418843426 
686	 3.16418014790415E-02 
687	 3.26910532487633E-02 
688	 3.38855375544313E-02 
689	 3.48713167609603E-02 
690	 3.53275980846766E-02 
691	 3.59747805967425E-02 
692	 3.70346640209204E-02 
693	 3.81319645194735E-02 
694	 3.94349547199311E-02 
695	 0.041054154425122 
696	 4.24118780706381E-02 
697	 4.35168385464057E-02 
698	 4.47596548557445E-02 
699	 4.61206795763633E-02 
700	 4.75623551334403E-02 
701	 4.88936304439453E-02 
702	 5.02540740453491E-02 
703	 0.05187019031638 
704	 5.32140028073455E-02 
705	 5.42513669221539E-02 
706	 5.51992485015764E-02 
707	 5.65197091159936E-02 
708	 5.83745901706698E-02 
709	 5.93932647610258E-02 
710	 6.00216223266316E-02 
711	 6.14472102883436E-02 
712	 6.29266065746677E-02 
713	 6.41413246954112E-02 
714	 6.47767367730177E-02 
715	 6.52050913485951E-02 
716	 6.58588326590771E-02 
717	 6.73204417257297E-02 
718	 6.92554021762901E-02 
719	 6.98461349063629E-02 
720	 7.01967509068094E-02 
721	 0.07078324376594 
722	 7.16956895515868E-02 
723	 7.26649486347241E-02 
724	 7.33269608196097E-02 
725	 7.39826364912572E-02 
726	 7.46182258089215E-02 
727	 7.50996196341243E-02 
728	 7.57875014178552E-02 
729	 7.67225586287442E-02 
730	 7.68647699318432E-02 
731	 7.68140563813298E-02 
732	 7.75250456700276E-02 
733	 7.80926749494726E-02 
734	 7.84885221643231E-02 
735	 7.93638009182891E-02 
736	 8.00757255503724E-02 
737	 8.02221004847601E-02 
738	 8.05028744607138E-02 
739	 8.09613511790923E-02 
740	 8.14991760320908E-02 
741	 8.17754542428046E-02 
742	 8.18095208979262E-02 
743	 8.21468614098086E-02 
744	 8.27808675241553E-02 
745	 0.083607261538988 
746	 8.35433617871093E-02 
747	 8.30373571990009E-02 
748	 8.36214722746995E-02 
749	 8.42137468212764E-02 
750	 8.45166248434817E-02 
751	 8.51015656414582E-02 
752	 8.56121050626149E-02 
753	 0.085658885105979 
754	 8.57165666320189E-02 
755	 8.58608040045564E-02 
756	 8.59527504726276E-02 
757	 8.62798012004757E-02 
758	 8.69407680387735E-02 
759	 8.72717035604356E-02 
760	 8.73965160250342E-02 
761	 8.76818500136283E-02 
762	 8.79195233483623E-02 
763	 8.80696549963944E-02 
764	 8.80572308843886E-02 
765	 8.85225948824314E-02 
766	 8.94213240528463E-02 
767	 8.95974710642602E-02 
768	 8.95744346805522E-02 
769	 9.00162096864972E-02 
770	 9.05496532879181E-02 
771	 9.10272885456979E-02 
772	 9.12675931280723E-02 
773	 9.14085829661991E-02 
774	 9.15486781563774E-02 
775	 9.16556524914468E-02 
776	 9.18127115986091E-02 
777	 9.21771469558909E-02 
778	 9.23899653358008E-02 
779	 0.092491242230035 
780	 9.31769750680344E-02 
781	 0.093726437651868 
782	 9.36382637534574E-02 
783	 9.41039535011154E-02 
784	 9.47924851016319E-02 
785	 9.45853582133295E-02 
786	 9.43451753221204E-02 
787	 9.44256313559457E-02 
788	 9.50035413146274E-02 
789	 9.56755284900016E-02 
790	 9.60227783001007E-02 
791	 9.58970424680515E-02 
792	 9.56156607715641E-02 
793	 9.59974405686625E-02 
794	 9.64215309432036E-02 
795	 9.67300531019275E-02 
796	 9.73136269463098E-02 
797	 9.78347876547428E-02 
798	 9.79502884777857E-02 
799	 9.79161282966868E-02 
800	 9.77967529702464E-02 
801	 9.75406998921576E-02 
802	 0.097622850185806 
803	 9.81611263635734E-02 
804	 9.85999709380326E-02 
805	 0.098940020269783 
806	 9.92373034962267E-02 
807	 9.95574076117773E-02 
808	 0.099949403899164 
809	 0.100559019763359 
810	 0.100802153885055 
811	 0.1005536880331 
812	 0.100847358902176 
813	 0.101379237015587 
814	 0.101626402797442 
815	 0.101856529367063 
816	 0.10226051450784 
817	 0.103331140028089 
818	 0.103835178627298 
819	 0.103395445640121 
820	 0.103137615765391 
821	 0.103225783668146 
822	 0.103722508418416 
823	 0.103608944832655 
824	 0.103350916612613 
825	 0.105054994595008 
826	 0.10613568664702 
827	 0.105708666759313 
828	 0.10549542693855 
829	 0.105782776555727 
830	 0.106668489475629 
831	 0.106858836217687 
832	 0.106440437932159 
833	 0.106508870072413 
834	 0.106848705569218 
835	 0.107326850994555 
836	 0.10763088744102 
837	 0.107785838553656 
838	 0.10787164588807 
839	 0.108302645874817 
840	 0.108945407841613 
841	 0.109258314950733 
842	 0.108993487151302 
843	 0.108264061040342 
844	 0.108405259142307 
845	 0.108891034805143 
846	 0.10901962694698 
847	 0.109496298425179 
848	 0.110165304889989 
849	 0.110157873737253 
850	 0.110467476464572 
851	 0.111255297678435 
852	 0.111040327660893 
853	 0.110220609829048 
854	 0.109430713138624 
855	 0.109561980509642 
856	 0.110341676097453 
857	 0.110620706584658 
858	 0.110769889076538 
859	 0.110927536160553 
860	 0.111319152986901 
861	 0.111628431128468 
862	 0.111551978564514 
863	 0.111355410218486 
864	 0.111215982243621 
865	 0.111356783853612 
866	 0.111934571518154 
867	 0.112832977810919 
868	 0.113291470953883 
869	 0.113704419935184 
870	 0.114342136719025 
871	 0.114138056293015 
872	 0.113865094545866 
873	 0.115337822618329 
874	 0.116199362382192 
875	 0.115992960778672 
876	 0.115952524979819 
877	 0.116501145128678 
878	 0.117848502696039 
879	 0.119343924310196 
880	 0.120071669684617 
881	 0.118762548902829 
882	 0.118816297955229 
883	 0.120280869967262 
884	 0.119649218809426 
885	 0.119200322990901 
886	 0.120175460096327 
887	 0.121614613517219 
888	 0.122904156330764 
889	 0.123391301316332 
890	 0.123346525488772 
891	 0.122976422204412 
892	 0.122485279463485 
893	 0.123152447383842 
894	 0.125128477000303 
895	 0.124965082298337 
896	 0.124151275811256 
897	 0.124751746251591 
898	 0.124813444730293 
899	 0.12448761275007 
900	 0.125029942798769 
901	 0.126353428814929 
902	 0.127687502348035 
903	 0.125687701264409 
904	 0.124411635329088 
905	 0.126553143976935 
906	 0.125524446013043 
907	 0.123209879536121 
908	 0.124599754644652 
909	 0.127412876259655 
910	 0.129872197066974 
911	 0.127998503106887 
912	 0.126306105158179 
913	 0.127193316374491 
914	 0.127063535794151 
915	 0.126648281888998 
916	 0.127232473826982 
917	 0.128323268389146 
918	 0.129262793033278 
919	 0.128702116290736 
920	 0.127690044328442 
921	 0.127055786017613 
922	 0.128538490028978 
923	 0.130560366408537 
924	 0.131462782609731 
925	 0.12980070852618 
926	 0.127317742648636 
927	 0.128534811762021 
928	 0.128823171691265 
929	 0.126914780064865 
930	 0.125371360002049 
931	 0.124240016355247 
932	 0.123861489299945 
933	 0.125075227106386 
934	 0.128233343862745 
935	 0.132792198807302 
936	 0.127256295431451 
937	 0.116059288704325 
938	 0.117010679495265 
939	 0.121174608418179 
940	 0.124541176294998 
941	 0.123718943365279 
942	 0.120784226378299 
943	 0.117743438319493 
944	 0.11724253937901 
945	 0.117766634539776 
946	 0.116275368749119 
947	 0.115766283311326 
948	 0.115930717712743 
949	 0.113009470698875 
950	 0.112506126609259 
951	 0.115553816619963 
952	 0.11518650955434 
953	 0.112451492347661 
954	 0.109258072044376 
955	 0.109351550919319 
956	 0.110965987267869 
957	 0.109845120554662 
958	 0.110943623900354 
959	 0.113019744129438 
960	 0.106972391271438 
961	 0.106111536381679 
962	 0.11374713569084 
963	 0.110971651392408 
964	 0.107537842356517 
965	 0.113264895467738 
966	 0.113304645360802 
967	 0.109381207764194 
968	 0.109533148836168 
969	 0.111875092401559 
970	 0.113928732965551 
971	 0.107437093201912 
972	 0.105442967546366 
973	 0.112999758195729 
974	 0.112812859942686 
975	 0.108347779555215 
976	 0.105439321635244 
977	 0.10776015319979 
978	 0.111908220319509 
979	 0.108606406784519 
980	 0.110280782044608 
981	 0.117059730320792 
982	 0.115740312629038 
983	 0.113348814049658 
984	 0.113466542698457 
985	 0.111923153510541 
986	 0.111740047698657 
987	 0.115986732873889 
988	 0.118259842844186 
989	 0.118777298852595 
990	 0.120621899234497 
991	 0.119439177153364 
992	 0.115544196378876 
993	 0.11436950799098 
994	 0.114511417478748 
995	 0.11492666501072 
996	 0.113967445690473 
997	 0.112540563366462 
998	 0.111787644198339 
999	 0.112628549996776 
1000	 0.114251271453148 
1001	 0.114938318902476 
1002	 0.117713879430429 
1003	 0.12138890436546 
1004	 0.11949708313652 
1005	 0.119525349797427 
1006	 0.122975063125372 
1007	 0.12011412075482 
1008	 0.119581400324246 
1009	 0.126989729632081 
1010	 0.127767192062158 
1011	 0.124331494533467 
1012	 0.122637916252532 
1013	 0.12380386235064 
1014	 0.126513188466294 
1015	 0.126570044381104 
1016	 0.126494753152391 
1017	 0.126774799719256 
1018	 0.125917556715212 
1019	 0.127173806565901 
1020	 0.130924558732298 
1021	 0.129216722972546 
1022	 0.121775711953499 
1023	 0.110759931843923 
1024	 0.116311140641052 
1025	 0.129538186558853 
1026	 0.130399571795298 
1027	 0.135536507116096 
1028	 0.143915390653901 
1029	 0.142011371108417 
1030	 0.142022803266531 
1031	 0.144543447989677 
1032	 0.132238142161251 
1033	 0.120764236837062 
1034	 0.121390761393958 
1035	 0.130095469383423 
1036	 0.13721343088798 
1037	 0.134358826935567 
1038	 0.13905587931587 
1039	 0.14597220834189 
1040	 0.140434994820748 
1041	 0.142881971243434 
1042	 0.150975995755008 
1043	 0.143285370680884 
1044	 0.133141985397176 
1045	 0.128645653924923 
1046	 0.140080593952632 
1047	 0.14518021271563 
1048	 0.134443457095391 
1049	 0.134761918925405 
1050	 0.141561257019952 
1051	 0.146907953200069 
1052	 0.148969017163207 
1053	 0.146040903749646 
1054	 0.136613474540347 
1055	 0.124109559292032 
1056	 0.119685164629275 
1057	 0.146984228163861 
1058	 0.152643478648205 
1059	 0.135643084616494 
1060	 0.152928556579374 
1061	 0.166819584783108 
1062	 0.161420683496855 
1063	 0.151845250733157 
1064	 0.145795238789462 
1065	 0.148418939245251 
1066	 0.15632007642072 
1067	 0.149003823037127 
1068	 0.110636414981338 
1069	 0.125414830201373 
1070	 0.16188710528299 
1071	 0.147905238361668 
1072	 0.152029224220203 
1073	 0.167069063506431 
1074	 0.13740549567928 
1075	 0.109929033017181 
