Wavelength	AVEI200241.asd
325	 0.043949359041219 
326	 4.54835260696125E-02 
327	 4.78410131711293E-02 
328	 4.80213690280256E-02 
329	 4.86624892771193E-02 
330	 5.07962566175713E-02 
331	 5.46275442890572E-02 
332	 0.057177828927883 
333	 5.60127800384087E-02 
334	 5.39761810521443E-02 
335	 5.05164080154167E-02 
336	 4.18507255780367E-02 
337	 3.83305605180283E-02 
338	 4.18924497123349E-02 
339	 0.04470528002769 
340	 4.64221730789818E-02 
341	 4.71590154820331E-02 
342	 4.77567457148575E-02 
343	 4.77765818032752E-02 
344	 4.59427643453617E-02 
345	 4.53055561675877E-02 
346	 4.58336422467705E-02 
347	 4.37854483073035E-02 
348	 4.22477801489389E-02 
349	 4.31824004248589E-02 
350	 4.44359425027428E-02 
351	 4.51982945076955E-02 
352	 4.47521334438956E-02 
353	 4.41158463872136E-02 
354	 4.35629553828974E-02 
355	 4.28852747725683E-02 
356	 4.26133478410252E-02 
357	 4.30319483535747E-02 
358	 4.38034218051223E-02 
359	 4.45110670559954E-02 
360	 0.044643357408163 
361	 4.48932252970216E-02 
362	 4.51356109871731E-02 
363	 0.044382045971605 
364	 4.35030608647014E-02 
365	 4.30645206663469E-02 
366	 4.31452334192312E-02 
367	 4.36886284827031E-02 
368	 0.044630441918269 
369	 4.45290692938799E-02 
370	 4.35352463282578E-02 
371	 4.35055955583319E-02 
372	 0.042768673929517 
373	 4.08243473262606E-02 
374	 4.06019757738881E-02 
375	 4.14367919184025E-02 
376	 4.19623982176434E-02 
377	 4.27233342829119E-02 
378	 4.34236059574321E-02 
379	 0.042994224335538 
380	 4.19179221735526E-02 
381	 4.08303887103536E-02 
382	 4.18487992765612E-02 
383	 4.30680347314351E-02 
384	 4.18479412941039E-02 
385	 4.20237269422535E-02 
386	 4.32362906150495E-02 
387	 4.15620017181464E-02 
388	 3.93300736729244E-02 
389	 3.80283552105356E-02 
390	 3.92053168152486E-02 
391	 4.07618644911777E-02 
392	 4.02414297169086E-02 
393	 4.09978935961825E-02 
394	 4.26606414914066E-02 
395	 4.24790704501304E-02 
396	 4.10538399204109E-02 
397	 3.90485107060121E-02 
398	 3.82379238591758E-02 
399	 0.038497227604635 
400	 3.94016312903464E-02 
401	 3.91702472032973E-02 
402	 3.83383234866504E-02 
403	 3.91091918853482E-02 
404	 3.98568241372742E-02 
405	 3.98841833843794E-02 
406	 0.039284054366171 
407	 3.84791199618465E-02 
408	 3.79713966719383E-02 
409	 3.85230727413234E-02 
410	 3.95856274502464E-02 
411	 0.039122334444253 
412	 3.86569991520936E-02 
413	 3.88171805586858E-02 
414	 3.85775237904177E-02 
415	 3.83833714282738E-02 
416	 3.89120981437633E-02 
417	 3.91119644810346E-02 
418	 3.88955961746275E-02 
419	 3.88314494415472E-02 
420	 0.038642917610407 
421	 3.82958035430225E-02 
422	 0.038603243274796 
423	 3.90907328039138E-02 
424	 3.89719595547215E-02 
425	 3.83359486696808E-02 
426	 3.75858001847723E-02 
427	 3.80757077347081E-02 
428	 3.85589217102382E-02 
429	 0.038289835464108 
430	 3.82870114118491E-02 
431	 0.038533851149035 
432	 3.87923632807842E-02 
433	 3.87599635268666E-02 
434	 3.84845275559849E-02 
435	 0.038491349812153 
436	 0.038467379565148 
437	 3.82560512229414E-02 
438	 3.84437377101676E-02 
439	 3.88635954994245E-02 
440	 3.91070782249122E-02 
441	 3.89741312876922E-02 
442	 3.85405618741083E-02 
443	 3.84400215583077E-02 
444	 3.84404963500447E-02 
445	 3.83505872963211E-02 
446	 3.84559462845331E-02 
447	 3.86271659404199E-02 
448	 3.84848799293128E-02 
449	 3.83684652507246E-02 
450	 3.83599357273659E-02 
451	 3.82038705615057E-02 
452	 3.82471075841834E-02 
453	 3.87940486360522E-02 
454	 3.88366990339782E-02 
455	 3.85360535374762E-02 
456	 3.89496148023201E-02 
457	 3.91724066585742E-02 
458	 3.89454518568959E-02 
459	 3.90476874938725E-02 
460	 3.92777890904239E-02 
461	 3.93210982049666E-02 
462	 3.91226182749019E-02 
463	 3.87888301241864E-02 
464	 3.86437452851747E-02 
465	 3.87781037660933E-02 
466	 3.91249517989167E-02 
467	 3.88172674104619E-02 
468	 3.83412091176658E-02 
469	 3.85440962809365E-02 
470	 3.88590909395926E-02 
471	 3.91017515704775E-02 
472	 3.91866144597867E-02 
473	 3.92393889831095E-02 
474	 3.93609086819246E-02 
475	 3.96824697938405E-02 
476	 0.039970138759476 
477	 0.03978839407455 
478	 3.96744913567742E-02 
479	 0.039708167929302 
480	 3.95056639103256E-02 
481	 3.91963346277569E-02 
482	 3.89506442230637E-02 
483	 3.94265206975472E-02 
484	 4.02207697664113E-02 
485	 4.01458228848003E-02 
486	 3.98688765308865E-02 
487	 3.96321377145105E-02 
488	 0.039365730520463 
489	 3.93519139006058E-02 
490	 3.98237363988189E-02 
491	 3.99490015097072E-02 
492	 0.039750689611328 
493	 0.03976692468234 
494	 0.039811329495625 
495	 3.98213296471163E-02 
496	 3.97936629949914E-02 
497	 3.99635380229527E-02 
498	 4.06281486890582E-02 
499	 4.10296659208811E-02 
500	 4.10630623172859E-02 
501	 4.10393104707954E-02 
502	 4.13687855531129E-02 
503	 4.21423615536369E-02 
504	 4.18878195097298E-02 
505	 4.14116571626802E-02 
506	 4.23802978905646E-02 
507	 4.30249306229979E-02 
508	 4.30568867492607E-02 
509	 4.34712918756322E-02 
510	 4.39052690076557E-02 
511	 4.40816158952133E-02 
512	 4.44443521888522E-02 
513	 4.49865887891981E-02 
514	 4.55218169138635E-02 
515	 4.61031084252576E-02 
516	 4.67007230895711E-02 
517	 4.71036611952224E-02 
518	 4.75613144260752E-02 
519	 0.048326642330622 
520	 4.87685876708203E-02 
521	 4.89369683227455E-02 
522	 4.92932836618641E-02 
523	 4.97986109018592E-02 
524	 5.04687046303458E-02 
525	 0.051453928295494 
526	 5.23348521165893E-02 
527	 5.25081914266787E-02 
528	 5.28288183134337E-02 
529	 5.34249230765065E-02 
530	 5.39019932654307E-02 
531	 5.43450075402135E-02 
532	 5.48099565895427E-02 
533	 5.52698003568868E-02 
534	 5.56561748454735E-02 
535	 5.58343656898725E-02 
536	 5.60949058080889E-02 
537	 5.64660143633549E-02 
538	 5.65284801108909E-02 
539	 5.67595858132154E-02 
540	 5.75905581774902E-02 
541	 5.81322445561051E-02 
542	 5.82803292191289E-02 
543	 0.058264560035638 
544	 0.058267082549924 
545	 5.84275733000108E-02 
546	 5.89041869109288E-02 
547	 0.059424455395744 
548	 5.96197796636354E-02 
549	 6.00609194135348E-02 
550	 0.060628288516256 
551	 6.03829211255225E-02 
552	 6.03367751848481E-02 
553	 6.10408918213278E-02 
554	 6.13759728129401E-02 
555	 6.13143873021089E-02 
556	 6.10766361835728E-02 
557	 6.10868954775083E-02 
558	 6.14207623584114E-02 
559	 6.16814795054814E-02 
560	 6.15867373349399E-02 
561	 0.060964545908428 
562	 6.08169779490245E-02 
563	 6.11484419870068E-02 
564	 6.14687744893679E-02 
565	 6.16356843167576E-02 
566	 6.15395153986753E-02 
567	 6.11885325654753E-02 
568	 6.07207382175451E-02 
569	 6.03070225044106E-02 
570	 5.99871795925646E-02 
571	 5.97575930219801E-02 
572	 5.94955288813373E-02 
573	 5.94328358381891E-02 
574	 5.96234086094558E-02 
575	 5.92977476851833E-02 
576	 5.87652056284123E-02 
577	 5.87917521017586E-02 
578	 5.87371011331419E-02 
579	 5.85089069983091E-02 
580	 5.86092602677575E-02 
581	 0.05869047284398 
582	 5.84537410317959E-02 
583	 5.83582880741704E-02 
584	 5.82998020173406E-02 
585	 5.77375412349639E-02 
586	 5.74093735933234E-02 
587	 5.75570381308237E-02 
588	 5.76120956215247E-02 
589	 5.75526771042024E-02 
590	 5.74249180779717E-02 
591	 5.73529853960142E-02 
592	 5.74082881273861E-02 
593	 5.77254361879232E-02 
594	 5.78960846334041E-02 
595	 5.76748772220779E-02 
596	 5.71535307017012E-02 
597	 5.68099123281221E-02 
598	 0.057478829280417 
599	 5.75885751811786E-02 
600	 5.69466993776825E-02 
601	 5.70391067290925E-02 
602	 5.72954739124656E-02 
603	 5.71874511475218E-02 
604	 5.71925025232306E-02 
605	 5.72916965802613E-02 
606	 5.73304994453434E-02 
607	 5.68293082437331E-02 
608	 5.58163732121226E-02 
609	 5.57272765917651E-02 
610	 5.60793378151443E-02 
611	 5.60915883267397E-02 
612	 5.61435695327958E-02 
613	 5.61468104033212E-02 
614	 5.55754432051167E-02 
615	 5.50094598732156E-02 
616	 5.48259607376866E-02 
617	 0.054890096420781 
618	 5.50083091540209E-02 
619	 5.48902073338805E-02 
620	 5.46544351068202E-02 
621	 5.44601979533961E-02 
622	 5.48759274635472E-02 
623	 5.51535804853643E-02 
624	 5.46436240843561E-02 
625	 5.41791989682412E-02 
626	 0.054001971627246 
627	 5.42941315769067E-02 
628	 5.45238137698621E-02 
629	 5.45264941395691E-02 
630	 5.49019893394859E-02 
631	 5.51469671851275E-02 
632	 5.46029232570652E-02 
633	 5.43348492163538E-02 
634	 5.44687331630404E-02 
635	 0.054515979873624 
636	 5.44916330905743E-02 
637	 5.43427478615099E-02 
638	 5.36967819622649E-02 
639	 5.28611247879938E-02 
640	 5.24314893594666E-02 
641	 5.22549922994567E-02 
642	 5.22204313288781E-02 
643	 5.20636367146452E-02 
644	 5.16241636876368E-02 
645	 5.08415382343579E-02 
646	 5.08524123784906E-02 
647	 5.13565503320405E-02 
648	 5.09884714987811E-02 
649	 5.04829906460168E-02 
650	 0.050129458837435 
651	 4.99042161929203E-02 
652	 4.96570687800468E-02 
653	 4.92070179439613E-02 
654	 4.89970955575992E-02 
655	 4.91214938796527E-02 
656	 4.95468593608343E-02 
657	 4.97577317626706E-02 
658	 4.94576577709903E-02 
659	 4.89227299466384E-02 
660	 4.85682980929572E-02 
661	 4.90534152240803E-02 
662	 4.86522281661325E-02 
663	 4.72043158423305E-02 
664	 4.62394464947294E-02 
665	 0.045927418100364 
666	 4.62761225035077E-02 
667	 4.61145652310934E-02 
668	 4.55303173967678E-02 
669	 4.52585884349587E-02 
670	 4.52545073622022E-02 
671	 4.54944954017139E-02 
672	 4.58014490560124E-02 
673	 4.58772340397796E-02 
674	 4.54385708860304E-02 
675	 4.57945701641302E-02 
676	 4.66810172438196E-02 
677	 4.62790457720249E-02 
678	 4.60991659911733E-02 
679	 4.68717779400336E-02 
680	 4.76286449465492E-02 
681	 0.048064296904681 
682	 4.78551408255508E-02 
683	 4.83931779962894E-02 
684	 4.98985572211905E-02 
685	 5.16284247299985E-02 
686	 0.052973168268317 
687	 0.053422564192095 
688	 5.46170765051581E-02 
689	 5.64330414394232E-02 
690	 5.80294348233381E-02 
691	 5.98477905797679E-02 
692	 6.21236003950026E-02 
693	 6.51085013183091E-02 
694	 6.81774644061639E-02 
695	 0.070569090767456 
696	 0.073234991694977 
697	 7.61816253136034E-02 
698	 7.89440211471299E-02 
699	 8.21998577199612E-02 
700	 8.61244395792158E-02 
701	 8.98708107749178E-02 
702	 9.33337314299937E-02 
703	 9.65534404521342E-02 
704	 9.99204248339477E-02 
705	 0.103364553665057 
706	 0.106025748119203 
707	 0.109043822503428 
708	 0.113040265635683 
709	 0.116769565146741 
710	 0.120126136603182 
711	 0.12325602434486 
712	 0.1264892986705 
713	 0.129816855705095 
714	 0.132785282669922 
715	 0.135590799661164 
716	 0.138552326685416 
717	 0.14092867687463 
718	 0.143163772027467 
719	 0.146844854451393 
720	 0.150011681048742 
721	 0.151944450458692 
722	 0.153803201134445 
723	 0.155838871797121 
724	 0.158086310503864 
725	 0.160103419668505 
726	 0.161733161870063 
727	 0.163431817704865 
728	 0.164947936723174 
729	 0.166207618987364 
730	 0.1674946306347 
731	 0.168822908982028 
732	 0.170166789377599 
733	 0.170947716702654 
734	 0.171430797736897 
735	 0.17287382107989 
736	 0.174173446435091 
737	 0.174615718167962 
738	 0.175203474442463 
739	 0.176042948277296 
740	 0.177052791281194 
741	 0.178052015517503 
742	 0.178862534343886 
743	 0.179016471311844 
744	 0.179414556936882 
745	 0.180753589280306 
746	 0.181823268162072 
747	 0.182397716065952 
748	 0.18238022270266 
749	 0.182914491944775 
750	 0.184236674808847 
751	 0.185099430130645 
752	 0.185275934109974 
753	 0.184711634173847 
754	 0.185096454612886 
755	 0.186253815969337 
756	 0.186463579256811 
757	 0.187368132514734 
758	 0.189559941945261 
759	 0.190476212739338 
760	 0.190451989803156 
761	 0.191145335652167 
762	 0.192215243858674 
763	 0.192889308228166 
764	 0.191830568507055 
765	 0.191321255716586 
766	 0.191926231818768 
767	 0.192254731346126 
768	 0.192547954210323 
769	 0.193209829900613 
770	 0.193629755463737 
771	 0.193853660299278 
772	 0.194609366162232 
773	 0.195414352415557 
774	 0.19592903840903 
775	 0.196277119827355 
776	 0.19645797385993 
777	 0.196430770850592 
778	 0.196540526811221 
779	 0.19691748537423 
780	 0.197472655721391 
781	 0.19834031616218 
782	 0.199531018800869 
783	 0.200048187057683 
784	 0.200112333864842 
785	 0.200581597306864 
786	 0.200793049266322 
787	 0.200817980252777 
788	 0.201987748762088 
789	 0.203149769907991 
790	 0.203187505893761 
791	 0.203013687649889 
792	 0.202951172478656 
793	 0.20332933156112 
794	 0.203702678892252 
795	 0.203998774153904 
796	 0.204729254527962 
797	 0.205505950946756 
798	 0.205896091405286 
799	 0.205456071099855 
800	 0.204846666365521 
801	 0.206090191457493 
802	 0.207235860474415 
803	 0.207591184239708 
804	 0.208089941001238 
805	 0.208339071015998 
806	 0.207947901391271 
807	 0.208996819486546 
808	 0.210801906713256 
809	 0.210042953194633 
810	 0.209536581017183 
811	 0.210504911422182 
812	 0.212212250189823 
813	 0.213680135956643 
814	 0.213657518284111 
815	 0.213264253504508 
816	 0.213039604408794 
817	 0.213592548569466 
818	 0.214108157603334 
819	 0.214451833897183 
820	 0.216299339471756 
821	 0.217850744272958 
822	 0.216913669762763 
823	 0.215812401843726 
824	 0.215665452273184 
825	 0.217987116310679 
826	 0.219139788845354 
827	 0.217973443619503 
828	 0.217700673864135 
829	 0.218576306455441 
830	 0.220424697663447 
831	 0.221050931146397 
832	 0.220581879620336 
833	 0.220972551471285 
834	 0.221256043314003 
835	 0.221149366767671 
836	 0.221327707525028 
837	 0.22153012338974 
838	 0.221414257437981 
839	 0.22118005268991 
840	 0.221130522390593 
841	 0.222085457033893 
842	 0.222466958094526 
843	 0.221790854971819 
844	 0.221558753983204 
845	 0.221885767298026 
846	 0.22273359142672 
847	 0.223820399228471 
848	 0.224717458184747 
849	 0.224539485965493 
850	 0.224054041337124 
851	 0.223604075984586 
852	 0.223013143541873 
853	 0.222839604784838 
854	 0.223559474786006 
855	 0.223044550050833 
856	 0.222063416584712 
857	 0.223638040848211 
858	 0.225089412314758 
859	 0.225531018833316 
860	 0.22550689044391 
861	 0.22542400406793 
862	 0.225642929584316 
863	 0.225882296147639 
864	 0.226110889734082 
865	 0.226355146369785 
866	 0.226720436380467 
867	 0.227118543535187 
868	 0.226915902949125 
869	 0.227063615095426 
870	 0.228217778810188 
871	 0.228623406754027 
872	 0.228859697268305 
873	 0.230617947336375 
874	 0.231787711518515 
875	 0.231959773222111 
876	 0.232365371959864 
877	 0.232660897963428 
878	 0.232769173710646 
879	 0.234162124519559 
880	 0.236007898907325 
881	 0.236670359071812 
882	 0.237171605373267 
883	 0.237557106867874 
884	 0.236934352766879 
885	 0.236839237808439 
886	 0.238109973462767 
887	 0.239936920616708 
888	 0.241322443468269 
889	 0.241165509792637 
890	 0.241673097132245 
891	 0.242645880856319 
892	 0.24156028450479 
893	 0.240723495895788 
894	 0.24149403803791 
895	 0.244694004763853 
896	 0.247057098654534 
897	 0.2448366501503 
898	 0.244060881188523 
899	 0.245384934090295 
900	 0.246926083233032 
901	 0.247522772335085 
902	 0.247169996398986 
903	 0.248239078742066 
904	 0.248988938358115 
905	 0.248181617819554 
906	 0.247994189090021 
907	 0.248195549958118 
908	 0.247753076368622 
909	 0.247811283559748 
910	 0.248674785287455 
911	 0.250108316283548 
912	 0.251509180603441 
913	 0.252328510292351 
914	 0.252175184039066 
915	 0.250485110306497 
916	 0.246870953129641 
917	 0.246651733844621 
918	 0.249112202167573 
919	 0.24903952468332 
920	 0.250001011468934 
921	 0.252013421908373 
922	 0.248930170311327 
923	 0.246825404778649 
924	 0.250865491888706 
925	 0.251722337146529 
926	 0.250018693710094 
927	 0.250840779688658 
928	 0.251492273562713 
929	 0.250814105939169 
930	 0.247807050043708 
931	 0.244879243974093 
932	 0.24387877013323 
933	 0.241138191862694 
934	 0.236607742392173 
935	 0.231195256523472 
936	 0.233119274078543 
937	 0.239477605964467 
938	 0.237734519278739 
939	 0.237235013589755 
940	 0.238786639342244 
941	 0.232702915615947 
942	 0.227781031780233 
943	 0.229499907518689 
944	 0.226528754867098 
945	 0.222602923105089 
946	 0.226140715595507 
947	 0.225870761392939 
948	 0.221223016242953 
949	 0.219489807526327 
950	 0.220334890702497 
951	 0.222512124151309 
952	 0.219593454914661 
953	 0.217184464160293 
954	 0.219638817261541 
955	 0.211549822985402 
956	 0.201928856616899 
957	 0.211512146049229 
958	 0.211265719969708 
959	 0.201500126682862 
960	 0.208277020584842 
961	 0.21381154482363 
962	 0.210318201065412 
963	 0.204781872961486 
964	 0.200993827898436 
965	 0.201987657821004 
966	 0.205768165778221 
967	 0.209813027587085 
968	 0.21089613342708 
969	 0.206776445658654 
970	 0.200042118857061 
971	 0.202965028880275 
972	 0.203661272813939 
973	 0.197721624379834 
974	 0.201274505792896 
975	 0.207095930308399 
976	 0.206063193851409 
977	 0.207365103278275 
978	 0.208924181513667 
979	 0.202535939594818 
980	 0.201835943062086 
981	 0.207681908182307 
982	 0.206858667513192 
983	 0.206968770657294 
984	 0.210970094835176 
985	 0.210497834920402 
986	 0.208769669877472 
987	 0.209619291469167 
988	 0.207344339037819 
989	 0.205267354178578 
990	 0.211813922875449 
991	 0.215047075326115 
992	 0.212777248868248 
993	 0.210471853409921 
994	 0.210800328492747 
995	 0.214440969197617 
996	 0.215340222895946 
997	 0.216219562397633 
998	 0.219821952061838 
999	 0.220822097142731 
1000	 0.220703501774588 
1001	 0.223623236389194 
1002	 0.225728503963342 
1003	 0.226402679057959 
1004	 0.227195925747463 
1005	 0.226757618860198 
1006	 0.225636711410047 
1007	 0.228897730032567 
1008	 0.232546786464095 
1009	 0.232693526095857 
1010	 0.226086493786105 
1011	 0.220539820088695 
1012	 0.226902968267602 
1013	 0.226184824502548 
1014	 0.218952939716241 
1015	 0.216438672529611 
1016	 0.22170817326084 
1017	 0.23224204107456 
1018	 0.23281024482607 
1019	 0.229548437885569 
1020	 0.226706491040038 
1021	 0.225574095171138 
1022	 0.224815984151836 
1023	 0.223990141277807 
1024	 0.235493738603859 
1025	 0.247789539559661 
1026	 0.237551395580583 
1027	 0.230575543234919 
1028	 0.231243687716186 
1029	 0.232073798182886 
1030	 0.236789300636061 
1031	 0.244305575196641 
1032	 0.244781719735687 
1033	 0.245078524328324 
1034	 0.248973678352058 
1035	 0.250191736092139 
1036	 0.245438841127105 
1037	 0.233279406679926 
1038	 0.231604554289761 
1039	 0.235666755768481 
1040	 0.231636765481559 
1041	 0.242653460579101 
1042	 0.266279816693291 
1043	 0.278545972863558 
1044	 0.283624996511206 
1045	 0.277963287889023 
1046	 0.237709509106142 
1047	 0.224472156955939 
1048	 0.265000079995504 
1049	 0.271858171553274 
1050	 0.261600208469146 
1051	 0.256505880924678 
1052	 0.246415920094686 
1053	 0.236607844036295 
1054	 0.237635277157875 
1055	 0.240177441988314 
1056	 0.248769127213823 
1057	 0.279861613594358 
1058	 0.293562116102693 
1059	 0.279099848985011 
1060	 0.245866656207771 
1061	 0.240439067812826 
1062	 0.26648899984692 
1063	 0.238187676032482 
1064	 0.216028904357696 
1065	 0.240911085208988 
1066	 0.253989533049602 
1067	 0.247263576994337 
1068	 0.220801580261469 
1069	 0.223169089949673 
1070	 0.23619128119334 
1071	 0.21525513309084 
1072	 0.258723411923442 
1073	 0.327304404971593 
1074	 0.273256625217125 
1075	 0.223522108999408 
