Wavelength	AVEI200379.asd
325	 8.64949090300486E-02 
326	 8.45267088054882E-02 
327	 7.23225503138223E-02 
328	 7.17193602847727E-02 
329	 7.65510223993978E-02 
330	 8.26985438317974E-02 
331	 8.22173490793503E-02 
332	 7.92268935028917E-02 
333	 7.81607794509708E-02 
334	 7.74353672362209E-02 
335	 7.65394760738465E-02 
336	 7.46661649625714E-02 
337	 7.32673261703518E-02 
338	 7.27389251613546E-02 
339	 7.25726556109716E-02 
340	 7.20292679359844E-02 
341	 0.070778706186231 
342	 0.071441633878979 
343	 7.33983124272878E-02 
344	 7.47764019622436E-02 
345	 7.70177152241487E-02 
346	 7.89788707995369E-02 
347	 0.075035534800989 
348	 7.16787698685583E-02 
349	 7.30889116831408E-02 
350	 0.07440153596968 
351	 7.53848040922979E-02 
352	 7.68876797322411E-02 
353	 0.076502356671898 
354	 7.44463469081784E-02 
355	 7.35261899389844E-02 
356	 7.37006682833743E-02 
357	 7.45439676991211E-02 
358	 0.073002815600434 
359	 7.15094080374269E-02 
360	 7.41456803248774E-02 
361	 7.54318435679972E-02 
362	 7.44955658493507E-02 
363	 7.32155117073058E-02 
364	 7.26240707746123E-02 
365	 7.30099432534944E-02 
366	 0.072135553187273 
367	 0.071229419508593 
368	 7.22149828217587E-02 
369	 7.15192450027993E-02 
370	 6.97406550824244E-02 
371	 7.16205040255231E-02 
372	 7.37439718728054E-02 
373	 7.40128426740466E-02 
374	 7.19480079920651E-02 
375	 6.98493966576811E-02 
376	 7.07663093361859E-02 
377	 7.08406635792131E-02 
378	 6.98150922973435E-02 
379	 6.99903741485728E-02 
380	 7.01861694564847E-02 
381	 6.99998712478466E-02 
382	 7.09404789535971E-02 
383	 7.14404088180996E-02 
384	 6.93613625206868E-02 
385	 6.97371091912925E-02 
386	 7.20188976863646E-02 
387	 7.08046625275026E-02 
388	 6.90630931218246E-02 
389	 6.82287090671563E-02 
390	 6.81594218861129E-02 
391	 6.86796932649905E-02 
392	 6.95576900286972E-02 
393	 6.92396495873139E-02 
394	 6.84421315320114E-02 
395	 0.070430649912992 
396	 7.08877883392683E-02 
397	 6.86449575153433E-02 
398	 6.78078875412589E-02 
399	 6.80134426901343E-02 
400	 6.84586962307954E-02 
401	 6.82551432130239E-02 
402	 6.76684760604474E-02 
403	 0.067807085847202 
404	 6.79648658209879E-02 
405	 6.78927413175187E-02 
406	 6.79121357031193E-02 
407	 6.80601338194379E-02 
408	 6.83420804197795E-02 
409	 6.82509262620458E-02 
410	 6.79393857052716E-02 
411	 6.82182324354681E-02 
412	 6.82907402991064E-02 
413	 6.78950640124836E-02 
414	 6.79121745505885E-02 
415	 6.80475067983789E-02 
416	 6.78185415305057E-02 
417	 6.78484961989244E-02 
418	 6.82121594697703E-02 
419	 6.87805977672111E-02 
420	 6.88926977580217E-02 
421	 6.83552283891371E-02 
422	 6.85810949164264E-02 
423	 6.90864773981631E-02 
424	 6.89427162981462E-02 
425	 6.89233913051322E-02 
426	 6.91317531101773E-02 
427	 6.92280759791124E-02 
428	 6.93206089213881E-02 
429	 6.94239334946381E-02 
430	 6.90257907677594E-02 
431	 6.86876860712157E-02 
432	 6.94565031968143E-02 
433	 6.94777973922488E-02 
434	 6.87634955389521E-02 
435	 6.92186712773716E-02 
436	 6.98242414707371E-02 
437	 6.98918471091307E-02 
438	 6.97427054945161E-02 
439	 6.95610772500601E-02 
440	 6.95834619217423E-02 
441	 6.97714460368695E-02 
442	 7.00893468617249E-02 
443	 0.07043839529656 
444	 0.070744604820219 
445	 7.09325521708608E-02 
446	 7.07414609346009E-02 
447	 7.04217720871854E-02 
448	 7.05932314980781E-02 
449	 0.07085797159531 
450	 7.10441739446108E-02 
451	 7.10211280224314E-02 
452	 7.08925091158572E-02 
453	 7.07999012436047E-02 
454	 7.12974248998225E-02 
455	 7.20518801812698E-02 
456	 7.18399282103897E-02 
457	 7.17106187235008E-02 
458	 7.20222108627351E-02 
459	 7.21972353876267E-02 
460	 7.22389706223223E-02 
461	 7.22070210317322E-02 
462	 7.20958716062413E-02 
463	 0.071950764987956 
464	 7.18225714413022E-02 
465	 7.20050559155802E-02 
466	 7.25522080696559E-02 
467	 7.26476668397433E-02 
468	 7.26365262955389E-02 
469	 7.31570442986751E-02 
470	 7.34524163259452E-02 
471	 7.34248853181594E-02 
472	 7.35038276406951E-02 
473	 7.33921193693769E-02 
474	 7.29852783504428E-02 
475	 7.30080224288762E-02 
476	 7.32215944023267E-02 
477	 7.30053516960952E-02 
478	 7.32330527215963E-02 
479	 7.38399092114907E-02 
480	 7.35040189232722E-02 
481	 7.30713314058136E-02 
482	 7.32522321990558E-02 
483	 7.37142655965096E-02 
484	 7.42146028853762E-02 
485	 7.42960432883031E-02 
486	 7.45271310882064E-02 
487	 7.49319505048151E-02 
488	 7.45253863536171E-02 
489	 7.40613781131481E-02 
490	 7.43296818980071E-02 
491	 7.45459816303351E-02 
492	 7.46151251719234E-02 
493	 7.47241113654919E-02 
494	 7.47651652692778E-02 
495	 7.47337755035343E-02 
496	 7.48691170463436E-02 
497	 7.50857320980056E-02 
498	 7.52460644046833E-02 
499	 7.52804190525393E-02 
500	 7.52146428044427E-02 
501	 7.52024345381734E-02 
502	 7.52217033490292E-02 
503	 7.52764318814921E-02 
504	 7.55042035524302E-02 
505	 7.57235437752248E-02 
506	 7.56225108024984E-02 
507	 7.54138114559647E-02 
508	 7.53004358856198E-02 
509	 7.57953041482769E-02 
510	 0.076329168772985 
511	 7.64438042011309E-02 
512	 7.64635328484441E-02 
513	 7.64527171356782E-02 
514	 7.63706353753888E-02 
515	 7.66447397866444E-02 
516	 7.72900080912772E-02 
517	 7.74871593830408E-02 
518	 7.73893761468117E-02 
519	 7.72476272858915E-02 
520	 7.72232776444768E-02 
521	 7.73073289256944E-02 
522	 7.73045132304176E-02 
523	 7.75169336855026E-02 
524	 7.79782979292512E-02 
525	 7.79490887283256E-02 
526	 7.77556768743287E-02 
527	 7.79607447752716E-02 
528	 7.83358751756874E-02 
529	 0.078684964376162 
530	 7.85543697564511E-02 
531	 0.078429814708264 
532	 7.86153426957746E-02 
533	 7.87113583594484E-02 
534	 7.87484939189486E-02 
535	 0.078916205715067 
536	 7.89235177303437E-02 
537	 7.87956087519217E-02 
538	 7.90832980632539E-02 
539	 7.94496861532152E-02 
540	 0.079546554540279 
541	 7.95276724611542E-02 
542	 7.95208200747104E-02 
543	 0.079785843573291 
544	 8.00555156377782E-02 
545	 8.01764393008854E-02 
546	 7.99753802916272E-02 
547	 7.97739181063074E-02 
548	 8.00000756004022E-02 
549	 8.02508574893397E-02 
550	 8.04413039013356E-02 
551	 8.06978677593901E-02 
552	 8.07731660990551E-02 
553	 8.05552149305999E-02 
554	 8.04953472190775E-02 
555	 8.05716219382326E-02 
556	 8.06054797534187E-02 
557	 8.07387169605433E-02 
558	 8.09716790212445E-02 
559	 8.11290416736434E-02 
560	 8.12345175697384E-02 
561	 8.13148985153455E-02 
562	 8.12747772977119E-02 
563	 8.12871192770604E-02 
564	 8.18931190347519E-02 
565	 8.22116741501449E-02 
566	 8.19765430513037E-02 
567	 8.20760171543163E-02 
568	 8.22212397630968E-02 
569	 8.19486590685996E-02 
570	 8.17917872538679E-02 
571	 8.18847899465528E-02 
572	 8.22356750361159E-02 
573	 8.23577172257994E-02 
574	 8.20308800863465E-02 
575	 8.21631847939303E-02 
576	 8.24564034670152E-02 
577	 0.082100157278819 
578	 8.21778831679324E-02 
579	 8.28030710377307E-02 
580	 8.29344291719841E-02 
581	 8.28467154270606E-02 
582	 8.28235155699007E-02 
583	 8.28438186544493E-02 
584	 8.29431459735382E-02 
585	 8.32310294462967E-02 
586	 8.33554972782506E-02 
587	 8.32014266547661E-02 
588	 8.30835007990147E-02 
589	 8.30327860867248E-02 
590	 0.083049373622643 
591	 8.30886463082485E-02 
592	 8.31991240376933E-02 
593	 8.36407554556853E-02 
594	 8.38325125968755E-02 
595	 8.34975680846657E-02 
596	 8.33888420487725E-02 
597	 8.34842347407806E-02 
598	 8.35607102082053E-02 
599	 0.083575852083892 
600	 8.35242515987561E-02 
601	 8.34784770973549E-02 
602	 0.083536172340527 
603	 8.37542278848341E-02 
604	 8.37907893285927E-02 
605	 8.36318274264093E-02 
606	 0.083347246404331 
607	 8.33695387431915E-02 
608	 8.37786471621485E-02 
609	 8.37960043683509E-02 
610	 8.36977581342985E-02 
611	 8.39175406498238E-02 
612	 8.40121191981947E-02 
613	 8.39578919641622E-02 
614	 8.40452474967204E-02 
615	 8.41057944207762E-02 
616	 8.40618670059983E-02 
617	 8.41542297977443E-02 
618	 8.42914020882854E-02 
619	 8.42713259368117E-02 
620	 8.41199803043456E-02 
621	 8.39343897158757E-02 
622	 8.41379017693015E-02 
623	 8.41914611459546E-02 
624	 8.36674552228279E-02 
625	 8.37589994665724E-02 
626	 0.084271410983092 
627	 8.41098662532845E-02 
628	 8.39365861824631E-02 
629	 8.40218870087814E-02 
630	 8.43977442760574E-02 
631	 8.46957400651949E-02 
632	 8.44707362987191E-02 
633	 8.46165209120612E-02 
634	 8.50108088664793E-02 
635	 8.45106801815982E-02 
636	 8.40366994303233E-02 
637	 8.41157172667185E-02 
638	 8.42332576655109E-02 
639	 8.42664764803067E-02 
640	 8.40867036955024E-02 
641	 8.43431849052791E-02 
642	 8.50043843717649E-02 
643	 0.085030106222932 
644	 8.48484008710329E-02 
645	 0.084862276403106 
646	 8.48149328782752E-02 
647	 8.47553870730367E-02 
648	 8.49314151537849E-02 
649	 8.49765904669348E-02 
650	 8.48280537976823E-02 
651	 8.50324297764354E-02 
652	 8.53380256900845E-02 
653	 8.53976468592925E-02 
654	 8.52475931587372E-02 
655	 8.49444413333254E-02 
656	 8.46901922319143E-02 
657	 8.45482325879977E-02 
658	 8.45326944632946E-02 
659	 8.44298097885184E-02 
660	 8.42612353519205E-02 
661	 8.40936014701384E-02 
662	 8.41098882119379E-02 
663	 8.42634315634176E-02 
664	 8.41172669048017E-02 
665	 8.39226077489621E-02 
666	 8.38926267516719E-02 
667	 8.38723338871377E-02 
668	 8.37287015832667E-02 
669	 8.31556200062555E-02 
670	 8.27517587448039E-02 
671	 8.27805362009539E-02 
672	 8.32178910502488E-02 
673	 8.37683649655888E-02 
674	 8.40992527131808E-02 
675	 8.41611938662331E-02 
676	 0.083968000253614 
677	 8.35486715337188E-02 
678	 8.34322053863917E-02 
679	 0.083830219230458 
680	 0.083862192872318 
681	 8.38985698830334E-02 
682	 8.47228381682363E-02 
683	 8.49742579470969E-02 
684	 8.45734065566076E-02 
685	 8.48046103533069E-02 
686	 8.54520628525141E-02 
687	 0.08622833417685 
688	 8.60804683542744E-02 
689	 8.55008173678465E-02 
690	 8.59949242122036E-02 
691	 8.65366195954526E-02 
692	 8.68253992418591E-02 
693	 8.69730915292953E-02 
694	 8.71411789760525E-02 
695	 0.087477780982381 
696	 8.77858032714312E-02 
697	 8.80327893245535E-02 
698	 8.83069515609516E-02 
699	 8.83332817751776E-02 
700	 8.80322333700675E-02 
701	 0.08781829179666 
702	 8.79038117853839E-02 
703	 8.84880672332163E-02 
704	 8.88168467925752E-02 
705	 8.88351277542585E-02 
706	 8.91099228404971E-02 
707	 8.92725144184327E-02 
708	 8.91581235299172E-02 
709	 8.95400377688801E-02 
710	 9.00597231672633E-02 
711	 8.98563284094688E-02 
712	 8.97301727508434E-02 
713	 8.98407055915312E-02 
714	 8.96752783111677E-02 
715	 8.96485238294926E-02 
716	 9.01490409452112E-02 
717	 0.090545629444609 
718	 9.07307001159208E-02 
719	 9.08541724057967E-02 
720	 9.08569160143876E-02 
721	 9.08055866257521E-02 
722	 9.09654190414756E-02 
723	 9.12344669943102E-02 
724	 9.14766341612346E-02 
725	 9.14648107008879E-02 
726	 9.12815222043547E-02 
727	 9.13446431746111E-02 
728	 9.15393806665488E-02 
729	 9.17885119495003E-02 
730	 9.19669227741057E-02 
731	 9.20494097427526E-02 
732	 9.20373614837683E-02 
733	 9.19616962261738E-02 
734	 9.18002512968052E-02 
735	 9.13723766910327E-02 
736	 9.11485342800681E-02 
737	 9.14042231405034E-02 
738	 9.14607758201692E-02 
739	 9.14530332973296E-02 
740	 9.18303555107694E-02 
741	 9.21379948166101E-02 
742	 9.22378681681373E-02 
743	 0.092190735163507 
744	 9.22236026638067E-02 
745	 9.24981750030445E-02 
746	 9.25637081736375E-02 
747	 0.092468563945413 
748	 9.25131100536227E-02 
749	 0.092609705967114 
750	 9.27274071680656E-02 
751	 9.28314939908983E-02 
752	 9.29020812477396E-02 
753	 9.29257385248165E-02 
754	 9.29700876165911E-02 
755	 9.30236775033385E-02 
756	 9.30395951299671E-02 
757	 9.28510685470037E-02 
758	 9.24671185911526E-02 
759	 0.092820827264143 
760	 9.40469232311848E-02 
761	 9.48353343323706E-02 
762	 9.48332346019738E-02 
763	 9.45060467197739E-02 
764	 9.48551267256426E-02 
765	 9.51458379855546E-02 
766	 9.50822551770748E-02 
767	 9.45664976314707E-02 
768	 9.39684967773865E-02 
769	 9.36874566429267E-02 
770	 9.36793641879957E-02 
771	 9.38762090489911E-02 
772	 9.40402165241151E-02 
773	 9.41463729343534E-02 
774	 9.42037546375023E-02 
775	 9.45138792901672E-02 
776	 9.48093591659495E-02 
777	 9.45433073125317E-02 
778	 9.42205456646685E-02 
779	 9.41042526506598E-02 
780	 9.45795816514041E-02 
781	 9.49152597943722E-02 
782	 9.45764315295408E-02 
783	 9.44322034142274E-02 
784	 9.44973286808574E-02 
785	 9.44753522136372E-02 
786	 9.45052438771372E-02 
787	 9.46642380577573E-02 
788	 9.51324671825827E-02 
789	 9.55595927708081E-02 
790	 9.55951637287334E-02 
791	 9.51339087692788E-02 
792	 9.46638028415636E-02 
793	 9.54578829699049E-02 
794	 9.58062891050156E-02 
795	 9.53039316790083E-02 
796	 9.52873465092453E-02 
797	 9.55718904710662E-02 
798	 9.58815173624207E-02 
799	 9.61812308614668E-02 
800	 9.62920599469732E-02 
801	 9.56906199136842E-02 
802	 9.56363753444697E-02 
803	 9.64037658859931E-02 
804	 9.64371880141307E-02 
805	 9.61436268361762E-02 
806	 9.60829291199582E-02 
807	 9.59385220522013E-02 
808	 9.57742715040039E-02 
809	 9.59107440382077E-02 
810	 9.60727489683318E-02 
811	 9.61880803846936E-02 
812	 9.67104168000264E-02 
813	 9.69217589521978E-02 
814	 9.58932158972778E-02 
815	 9.59358494901399E-02 
816	 9.70701447265892E-02 
817	 9.73939515120936E-02 
818	 9.70220221772193E-02 
819	 9.62501142566093E-02 
820	 9.64461587170263E-02 
821	 9.70606402628435E-02 
822	 9.73212357775627E-02 
823	 0.097138095153805 
824	 9.68252242482776E-02 
825	 9.73939517128762E-02 
826	 9.77500745264668E-02 
827	 9.74991416611093E-02 
828	 9.72652259754858E-02 
829	 9.70989129884513E-02 
830	 9.70061812762966E-02 
831	 9.74828324653353E-02 
832	 0.098211785392959 
833	 9.80575627606009E-02 
834	 9.76808180237222E-02 
835	 9.74352478713993E-02 
836	 0.097572191420163 
837	 9.78086620295907E-02 
838	 9.78022363309369E-02 
839	 9.77628508378752E-02 
840	 9.77760719085061E-02 
841	 9.80095045803318E-02 
842	 9.80244960345715E-02 
843	 9.76464735861236E-02 
844	 9.70231916613576E-02 
845	 9.67607528506668E-02 
846	 0.097460319886032 
847	 9.78494609868266E-02 
848	 9.78730026520366E-02 
849	 9.82044725783758E-02 
850	 9.87171835810528E-02 
851	 9.91503444425676E-02 
852	 9.82696210873475E-02 
853	 9.73349758461582E-02 
854	 9.77538497091441E-02 
855	 9.83567968818988E-02 
856	 0.098637987728409 
857	 9.78670107241658E-02 
858	 0.097729422181027 
859	 9.85103276864587E-02 
860	 9.84327086357862E-02 
861	 9.80068647674019E-02 
862	 9.78308266206511E-02 
863	 9.79339731996713E-02 
864	 9.83204275730851E-02 
865	 9.89883462229623E-02 
866	 9.93612739856391E-02 
867	 9.92242057339988E-02 
868	 9.86805060845524E-02 
869	 9.85467335926654E-02 
870	 9.93466768424427E-02 
871	 9.95540461449669E-02 
872	 9.91317744324599E-02 
873	 0.098481966304686 
874	 9.80034532890124E-02 
875	 0.098010456595404 
876	 9.91124607912594E-02 
877	 0.099717873977957 
878	 9.88893319363342E-02 
879	 9.89742330923769E-02 
880	 9.94192389515212E-02 
881	 9.87966522691991E-02 
882	 9.86111782544036E-02 
883	 9.90969509880594E-02 
884	 9.96781412869936E-02 
885	 9.98298905177277E-02 
886	 9.92524369270242E-02 
887	 9.80748606367518E-02 
888	 9.75833636644981E-02 
889	 9.93399179056794E-02 
890	 0.10024380494794 
891	 9.98942625133568E-02 
892	 9.95461170278142E-02 
893	 9.94816046599153E-02 
894	 9.96154237796372E-02 
895	 9.79889113932457E-02 
896	 9.64601657999429E-02 
897	 0.097420915514869 
898	 0.100094013379549 
899	 0.102813697822333 
900	 0.102263548458329 
901	 0.100950000128856 
902	 9.98366546220075E-02 
903	 9.86805861488967E-02 
904	 9.89455186923054E-02 
905	 0.101262775726289 
906	 0.100655800359164 
907	 9.85773297601322E-02 
908	 9.89270985691375E-02 
909	 9.98091111334557E-02 
910	 0.100473203167857 
911	 9.99029379737532E-02 
912	 0.100316486850978 
913	 0.102359165757298 
914	 0.100970580908474 
915	 9.96282909640757E-02 
916	 0.102850759906424 
917	 0.102563968930243 
918	 9.94879413840365E-02 
919	 0.100267669860002 
920	 0.100644755539218 
921	 9.96039613250525E-02 
922	 9.96843018335324E-02 
923	 9.94994992237421E-02 
924	 9.79723330493782E-02 
925	 9.87349534892618E-02 
926	 0.100703105389667 
927	 0.100180834135969 
928	 9.91119655610305E-02 
929	 9.81277645166487E-02 
930	 9.68575771233348E-02 
931	 9.73400788896411E-02 
932	 0.100856292910527 
933	 0.102363871450418 
934	 0.103364379902944 
935	 0.107129734967749 
936	 0.109404664882782 
937	 0.109249238162156 
938	 0.10682376817568 
939	 0.10478970886102 
940	 0.104178068962955 
941	 0.104614003921172 
942	 0.104512083894788 
943	 0.102874893845096 
944	 0.101761194410431 
945	 0.100504515734166 
946	 0.097591608136638 
947	 9.79102680990249E-02 
948	 0.101763169425661 
949	 0.106344751222469 
950	 0.106876477331349 
951	 0.102267436950941 
952	 9.89752378970099E-02 
953	 9.62072872233615E-02 
954	 9.31441165436032E-02 
955	 9.38243017846004E-02 
956	 9.70806065981278E-02 
957	 9.97189398245388E-02 
958	 0.102413674715531 
959	 0.10462036825056 
960	 0.104812666548727 
961	 0.103464441200262 
962	 0.101617605995078 
963	 0.103104453859752 
964	 0.104848804251339 
965	 0.103900373510542 
966	 0.105825208340864 
967	 0.107560415464864 
968	 0.101197825281814 
969	 9.84326076084476E-02 
970	 0.101155307153073 
971	 0.103299016754477 
972	 0.104643262724771 
973	 0.105147365551126 
974	 0.106479344591487 
975	 0.10656080682672 
976	 0.103108871260613 
977	 9.79632465031935E-02 
978	 0.096185518567666 
979	 0.107667512973104 
980	 0.112507057481541 
981	 0.1071595237277 
982	 0.10240100746231 
983	 9.86522829945173E-02 
984	 9.68436941080083E-02 
985	 9.94219461904776E-02 
986	 0.101133278844439 
987	 9.70989207282402E-02 
988	 0.101511205786829 
989	 0.109292986383332 
990	 0.105690862260927 
991	 0.102431445888868 
992	 0.10183109234049 
993	 9.90472347191295E-02 
994	 9.94148532228988E-02 
995	 0.104164667502213 
996	 0.10414572108615 
997	 0.101951461479925 
998	 0.101007142177262 
999	 0.101489878161607 
1000	 0.102788941239209 
1001	 0.103596493338497 
1002	 0.104968106325779 
1003	 0.106463414703524 
1004	 0.105599309140352 
1005	 0.106236264095767 
1006	 0.108999610085885 
1007	 0.109184421079289 
1008	 0.105384059263398 
1009	 9.79818970366346E-02 
1010	 9.79901338309246E-02 
1011	 0.100560572405266 
1012	 9.72087663046065E-02 
1013	 9.61994203648276E-02 
1014	 9.85840188703602E-02 
1015	 0.102592129843906 
1016	 0.106564910438866 
1017	 0.108003190423073 
1018	 0.100524381445401 
1019	 0.094414872797928 
1020	 9.61882355552496E-02 
1021	 0.10575561892186 
1022	 0.113330850286596 
1023	 0.110194001917067 
1024	 0.108694152813631 
1025	 0.109894852281906 
1026	 0.11189239216803 
1027	 0.11027130859915 
1028	 0.105077804333826 
1029	 9.98371716161892E-02 
1030	 9.85351528416938E-02 
1031	 0.100994497090847 
1032	 9.83814698754264E-02 
1033	 0.097810657984001 
1034	 0.102181997358289 
1035	 9.88260708293389E-02 
1036	 9.46972075869845E-02 
1037	 9.74310842131547E-02 
1038	 9.26685914256711E-02 
1039	 8.65322665365073E-02 
1040	 0.093786896581529 
1041	 9.89256586341025E-02 
1042	 0.10106175812771 
1043	 0.108879343850036 
1044	 0.115509453046204 
1045	 0.116278311569536 
1046	 0.102242759316847 
1047	 9.39695625567956E-02 
1048	 0.101426985306529 
1049	 9.77328831742282E-02 
1050	 9.22859782157883E-02 
1051	 9.58390863593312E-02 
1052	 0.108053035060288 
1053	 0.123810388199955 
1054	 0.134288443883602 
1055	 0.128826010416138 
1056	 0.113582393458737 
1057	 0.11217202023973 
1058	 9.73499064851853E-02 
1059	 7.32080422794794E-02 
1060	 0.083453897146722 
1061	 9.83574292337693E-02 
1062	 0.104229218265558 
1063	 0.115485526946307 
1064	 0.112880193194175 
1065	 8.64259789610551E-02 
1066	 8.06383601916278E-02 
1067	 9.40769007424613E-02 
1068	 0.111852057393997 
1069	 8.49999398086285E-02 
1070	 5.15768790432161E-02 
1071	 9.49688129994291E-02 
1072	 0.112596102043082 
1073	 9.72736971345656E-02 
1074	 9.03391870232777E-02 
1075	 0.10009036888456 
