Wavelength	AVEI200082.asd
325	 0.024471413131046 
326	 3.21049396795421E-02 
327	 4.41230895589628E-02 
328	 3.63235922250736E-02 
329	 2.72132081089221E-02 
330	 2.38592807128907E-02 
331	 2.15563139346359E-02 
332	 2.02687109769238E-02 
333	 2.02481663823374E-02 
334	 2.32183866270816E-02 
335	 2.70059890097431E-02 
336	 2.62430135201879E-02 
337	 2.57647137356605E-02 
338	 2.64853525671691E-02 
339	 0.024938737338734 
340	 2.43792681542211E-02 
341	 2.71279899344317E-02 
342	 2.75310563427723E-02 
343	 2.61637301692646E-02 
344	 2.58439505234629E-02 
345	 2.50414069592431E-02 
346	 2.37579899565878E-02 
347	 2.32008417231666E-02 
348	 2.31863698021381E-02 
349	 2.35266818661706E-02 
350	 0.024173949899487 
351	 2.43731647114857E-02 
352	 2.30044197098925E-02 
353	 2.20972912524135E-02 
354	 2.19943964907474E-02 
355	 2.18347523822543E-02 
356	 2.16084934480115E-02 
357	 2.14712171699605E-02 
358	 2.28162229050407E-02 
359	 2.41664824597251E-02 
360	 2.31895753439473E-02 
361	 0.021511486619513 
362	 2.01801469451179E-02 
363	 2.09966319148736E-02 
364	 2.22919011505863E-02 
365	 2.29526003348615E-02 
366	 2.24665943580933E-02 
367	 2.17093780715382E-02 
368	 2.18881460421677E-02 
369	 2.15793256143298E-02 
370	 2.11330231767646E-02 
371	 0.022919749196259 
372	 2.38904453081391E-02 
373	 2.25588965340225E-02 
374	 2.10851957823684E-02 
375	 2.00186173717363E-02 
376	 1.97188195865346E-02 
377	 2.10570925306448E-02 
378	 2.30465214250129E-02 
379	 2.20593228918407E-02 
380	 2.06620436944461E-02 
381	 2.01976555331282E-02 
382	 1.98364595766119E-02 
383	 0.019785006453636 
384	 2.03800196879248E-02 
385	 2.13538677490884E-02 
386	 2.24132340128753E-02 
387	 0.023265224407651 
388	 2.26383720477441E-02 
389	 2.05943449385572E-02 
390	 2.09810091127317E-02 
391	 2.20094574085928E-02 
392	 0.021258861595049 
393	 2.02433322178658E-02 
394	 1.98235437665038E-02 
395	 2.15414236866952E-02 
396	 2.27450363208781E-02 
397	 2.24386534324762E-02 
398	 2.21923257669068E-02 
399	 2.19791034898716E-02 
400	 2.16225877598298E-02 
401	 2.10178343842729E-02 
402	 2.04729800533007E-02 
403	 2.07744731836624E-02 
404	 2.10689143941129E-02 
405	 2.10415776398344E-02 
406	 2.10978266537072E-02 
407	 2.12069374795862E-02 
408	 2.12905756301896E-02 
409	 2.10380624778699E-02 
410	 2.06363670371639E-02 
411	 2.08346081481547E-02 
412	 2.08906319799199E-02 
413	 2.06025518478869E-02 
414	 0.021137196093707 
415	 0.021677870417106 
416	 0.021068150853672 
417	 2.06873409548298E-02 
418	 2.08410444408416E-02 
419	 2.15154776570324E-02 
420	 2.16516399575786E-02 
421	 2.08090459083065E-02 
422	 2.02632171487847E-02 
423	 2.02614047519178E-02 
424	 2.09201828684863E-02 
425	 2.13067410602858E-02 
426	 2.12036840866477E-02 
427	 2.08476690115518E-02 
428	 2.05804251889457E-02 
429	 2.06266618582465E-02 
430	 2.07426726761731E-02 
431	 2.08878757394409E-02 
432	 2.10592807716608E-02 
433	 2.11408976148352E-02 
434	 2.11016446606467E-02 
435	 2.09713434638402E-02 
436	 2.08080155733105E-02 
437	 0.020680743782107 
438	 2.08430420412863E-02 
439	 2.11131255964516E-02 
440	 2.10948221639579E-02 
441	 0.021126385475858 
442	 2.12607636785382E-02 
443	 2.13198113946656E-02 
444	 2.12146834770067E-02 
445	 2.09203546965075E-02 
446	 2.09054406042285E-02 
447	 2.11304552967788E-02 
448	 2.13368255254659E-02 
449	 2.15041928522191E-02 
450	 2.15673256282786E-02 
451	 2.13207285260124E-02 
452	 0.021163291606338 
453	 2.14694849069849E-02 
454	 2.16246814569646E-02 
455	 2.15640838555946E-02 
456	 2.14061524943962E-02 
457	 2.16083663429411E-02 
458	 2.21915777291575E-02 
459	 2.20342625902822E-02 
460	 2.16405933491933E-02 
461	 2.17114413431323E-02 
462	 2.18934831217542E-02 
463	 0.022003594307377 
464	 2.16737372938601E-02 
465	 2.15638974030197E-02 
466	 2.19387536119151E-02 
467	 2.20301710929384E-02 
468	 0.021873305906929 
469	 2.16506493007406E-02 
470	 2.17133587533153E-02 
471	 2.20377558817388E-02 
472	 0.022205668002531 
473	 2.20836306192452E-02 
474	 2.16926605959892E-02 
475	 2.19575263079266E-02 
476	 2.24880576709974E-02 
477	 2.23825378122545E-02 
478	 2.22965560507148E-02 
479	 2.23482982234782E-02 
480	 2.22052510621707E-02 
481	 2.21102948647091E-02 
482	 2.22403110452597E-02 
483	 2.21906134428063E-02 
484	 0.022070398864485 
485	 2.22787209937666E-02 
486	 2.26800607477229E-02 
487	 0.023147723815827 
488	 2.33788987835613E-02 
489	 2.32950647578922E-02 
490	 2.28824586621179E-02 
491	 2.26681138010682E-02 
492	 2.27184176046268E-02 
493	 2.29055214164212E-02 
494	 0.022946080192868 
495	 2.27749359744064E-02 
496	 0.022936401991839 
497	 2.31084815940187E-02 
498	 2.28158031117576E-02 
499	 2.27352193261284E-02 
500	 2.29632282477076E-02 
501	 2.32599638786416E-02 
502	 2.33001947891139E-02 
503	 2.29962411224252E-02 
504	 2.34057371546504E-02 
505	 2.39733843670954E-02 
506	 2.35286410053867E-02 
507	 2.34745525289509E-02 
508	 2.40224660907288E-02 
509	 2.43657076641618E-02 
510	 2.44117660983911E-02 
511	 2.41489561999651E-02 
512	 2.41446618612744E-02 
513	 2.43485176787613E-02 
514	 2.44205891020037E-02 
515	 2.43113670901647E-02 
516	 2.41237769922926E-02 
517	 2.45639513108796E-02 
518	 0.025117065801106 
519	 2.51793966021657E-02 
520	 2.51504991058486E-02 
521	 2.51470493278195E-02 
522	 2.52224432529456E-02 
523	 2.54249994775208E-02 
524	 2.57246803302972E-02 
525	 2.57718753321322E-02 
526	 2.57052827642523E-02 
527	 2.57715316949611E-02 
528	 2.58509140465476E-02 
529	 2.59961812048299E-02 
530	 2.65383278071425E-02 
531	 2.68237907762924E-02 
532	 2.65037510681038E-02 
533	 2.66421363647992E-02 
534	 2.70550439825193E-02 
535	 2.70809504835407E-02 
536	 2.69634187694128E-02 
537	 2.68546600517537E-02 
538	 2.71070991386469E-02 
539	 2.74545389848909E-02 
540	 2.76214832084514E-02 
541	 2.77065037009233E-02 
542	 2.77386243759726E-02 
543	 2.77603220112455E-02 
544	 2.77204368663468E-02 
545	 2.76653860612363E-02 
546	 2.80090810856459E-02 
547	 2.83204262349573E-02 
548	 2.80011483621491E-02 
549	 2.78818697359312E-02 
550	 2.80685760397196E-02 
551	 2.81226149491811E-02 
552	 0.02832216289231 
553	 2.87701385615346E-02 
554	 0.02880216532259 
555	 2.86634357928399E-02 
556	 2.89948405292718E-02 
557	 2.92078812698177E-02 
558	 2.91412204968632E-02 
559	 2.89731127856821E-02 
560	 2.87953538880012E-02 
561	 2.87143949655154E-02 
562	 2.91184525867442E-02 
563	 2.96800269951758E-02 
564	 2.93213264505222E-02 
565	 2.92678848447231E-02 
566	 2.98466518401779E-02 
567	 2.97621927963889E-02 
568	 2.94082001765929E-02 
569	 2.94330955532189E-02 
570	 2.94226368967875E-02 
571	 2.93333444148658E-02 
572	 0.029329348352456 
573	 2.93550536728957E-02 
574	 2.94033735629395E-02 
575	 0.029702336620616 
576	 3.00700923711436E-02 
577	 3.01321805452849E-02 
578	 3.01618321501557E-02 
579	 3.01944418057689E-02 
580	 2.99674941601395E-02 
581	 2.98888923985138E-02 
582	 0.030272506414383 
583	 3.02493841008912E-02 
584	 2.99894768089637E-02 
585	 3.03660671399454E-02 
586	 3.07054667407028E-02 
587	 3.07379665230814E-02 
588	 3.06074840371984E-02 
589	 3.03984779310808E-02 
590	 3.02172735580079E-02 
591	 3.03402197935282E-02 
592	 3.06832539633562E-02 
593	 3.07302013255864E-02 
594	 3.08823968361284E-02 
595	 3.12903382593715E-02 
596	 3.11541331688101E-02 
597	 3.09012328319864E-02 
598	 3.14980374050758E-02 
599	 3.15419544203685E-02 
600	 3.09404036593363E-02 
601	 3.12949932744802E-02 
602	 3.16676421683061E-02 
603	 3.12638049235607E-02 
604	 3.15682336890538E-02 
605	 3.22665609592659E-02 
606	 3.18550941234796E-02 
607	 3.16474951042455E-02 
608	 3.20492294409437E-02 
609	 3.21668323142246E-02 
610	 3.20761345191784E-02 
611	 0.031975094590976 
612	 3.21027833801188E-02 
613	 0.032442698637202 
614	 3.27381888786486E-02 
615	 0.032843301905419 
616	 3.27060172062497E-02 
617	 3.27784893703619E-02 
618	 3.28792242129647E-02 
619	 3.25381587552822E-02 
620	 3.27242554183013E-02 
621	 0.033432363798196 
622	 3.33368859271116E-02 
623	 3.29704884469688E-02 
624	 0.032861373443819 
625	 3.29049860995719E-02 
626	 3.30670469837753E-02 
627	 3.32964681212813E-02 
628	 3.34530455376958E-02 
629	 3.34872658477338E-02 
630	 3.35578730961507E-02 
631	 3.36239492984232E-02 
632	 3.36190589324619E-02 
633	 3.37773642119412E-02 
634	 3.40639938396034E-02 
635	 3.41571664710839E-02 
636	 3.43621584901599E-02 
637	 3.47753043884032E-02 
638	 3.46475340210675E-02 
639	 3.43177723310663E-02 
640	 3.45738537984612E-02 
641	 3.45577046443242E-02 
642	 0.034239843338072 
643	 3.47059149545137E-02 
644	 3.50779384018136E-02 
645	 3.46152930189303E-02 
646	 3.45159691756137E-02 
647	 3.48326793603671E-02 
648	 3.50933417493149E-02 
649	 3.53169199142991E-02 
650	 3.54492500247087E-02 
651	 3.53522267755179E-02 
652	 3.51705807687431E-02 
653	 0.03508489357055 
654	 3.49793529994992E-02 
655	 3.49069415894485E-02 
656	 3.51482672783749E-02 
657	 3.53386442967436E-02 
658	 3.52786881449841E-02 
659	 3.53081457381164E-02 
660	 3.53798201732218E-02 
661	 3.53496130057639E-02 
662	 3.53895629941907E-02 
663	 3.55101911623278E-02 
664	 3.55318975884431E-02 
665	 3.55849498177287E-02 
666	 3.57533911374239E-02 
667	 3.56308847479293E-02 
668	 3.53423155708145E-02 
669	 3.53391902747481E-02 
670	 3.54572472262731E-02 
671	 3.56173259605761E-02 
672	 3.56773107872964E-02 
673	 3.56904372736981E-02 
674	 3.57372294615969E-02 
675	 3.59725291298565E-02 
676	 3.62764359384177E-02 
677	 3.61450168759394E-02 
678	 3.61401787733871E-02 
679	 3.65460844790372E-02 
680	 3.70603508122445E-02 
681	 3.74507913547865E-02 
682	 3.74215781814315E-02 
683	 3.73762890589419E-02 
684	 3.75322133329242E-02 
685	 0.038228935285859 
686	 0.038953737708784 
687	 3.92553677913156E-02 
688	 3.97581399383549E-02 
689	 4.03132164996309E-02 
690	 4.03818466383402E-02 
691	 4.08978859955211E-02 
692	 4.20118315717665E-02 
693	 4.28736784541912E-02 
694	 4.33974504755672E-02 
695	 4.35657596663757E-02 
696	 4.43285137726155E-02 
697	 4.55634392301954E-02 
698	 0.046449653254297 
699	 0.04737716429824 
700	 4.84515632844622E-02 
701	 4.93097863404201E-02 
702	 5.00599381047327E-02 
703	 5.09151466043678E-02 
704	 5.15956462638487E-02 
705	 5.22527248725383E-02 
706	 0.053640106784753 
707	 5.47565920652278E-02 
708	 5.50487034891317E-02 
709	 5.57489541800925E-02 
710	 5.67603448457076E-02 
711	 5.75802063209431E-02 
712	 5.83734120516176E-02 
713	 5.91022108926744E-02 
714	 5.94953113472651E-02 
715	 5.97430858345466E-02 
716	 6.00476598701923E-02 
717	 6.02670411620961E-02 
718	 6.05918264771067E-02 
719	 6.15675625659759E-02 
720	 6.26050989796298E-02 
721	 6.33602688198345E-02 
722	 6.39107889541845E-02 
723	 6.44137296114735E-02 
724	 6.49825257902058E-02 
725	 6.56308370302728E-02 
726	 6.62518906094686E-02 
727	 0.066680945619578 
728	 6.70717130344837E-02 
729	 6.74977415103256E-02 
730	 6.77913411616842E-02 
731	 6.82732367077168E-02 
732	 6.93743373662428E-02 
733	 6.99810016632429E-02 
734	 7.01362786784484E-02 
735	 7.08618765207488E-02 
736	 7.14711738537705E-02 
737	 7.15716371989685E-02 
738	 7.21721424850362E-02 
739	 7.29601310664663E-02 
740	 7.30706743289674E-02 
741	 7.34745175299475E-02 
742	 7.42929623788169E-02 
743	 7.47637894200768E-02 
744	 7.50155181843956E-02 
745	 7.52088537391822E-02 
746	 7.56615768211358E-02 
747	 7.62440119445706E-02 
748	 7.64960068479559E-02 
749	 7.67687749953737E-02 
750	 7.71622231028875E-02 
751	 7.74693831291416E-02 
752	 7.79136573465873E-02 
753	 7.87076567008107E-02 
754	 7.89880590745889E-02 
755	 7.89155571267711E-02 
756	 7.95210253471295E-02 
757	 7.99017982186928E-02 
758	 0.079714657438296 
759	 7.95374459082366E-02 
760	 7.96662069004357E-02 
761	 8.06734553179533E-02 
762	 8.15323194095678E-02 
763	 8.19322571789563E-02 
764	 8.23807524554098E-02 
765	 8.28308368334852E-02 
766	 0.083247142987758 
767	 8.36306485959004E-02 
768	 8.39651924396763E-02 
769	 8.42077152800596E-02 
770	 8.46900527911102E-02 
771	 8.53459312916477E-02 
772	 8.56682275460248E-02 
773	 8.58082734330841E-02 
774	 8.59532470321407E-02 
775	 8.68366509120412E-02 
776	 8.78411122774373E-02 
777	 8.76855180882646E-02 
778	 8.75952196450799E-02 
779	 8.78878738484268E-02 
780	 8.81601006585473E-02 
781	 8.85849453732573E-02 
782	 8.92557702338561E-02 
783	 8.96177269902075E-02 
784	 8.97683693484397E-02 
785	 9.01212622076817E-02 
786	 9.04266534116622E-02 
787	 9.07249050272346E-02 
788	 9.16051925205999E-02 
789	 9.22547449252293E-02 
790	 9.19913662943759E-02 
791	 9.26953421752203E-02 
792	 9.38181331024228E-02 
793	 0.093062704141273 
794	 0.09299162241457 
795	 9.41896969605743E-02 
796	 9.46241819313132E-02 
797	 9.46837114486923E-02 
798	 9.48800224190394E-02 
799	 9.49743843896183E-02 
800	 9.51792389952598E-02 
801	 0.096226991062248 
802	 9.67539335834017E-02 
803	 9.64583628622263E-02 
804	 9.70030606383717E-02 
805	 9.78092274219391E-02 
806	 9.81507070503653E-02 
807	 9.87190466937807E-02 
808	 9.93567760337303E-02 
809	 9.92106698674394E-02 
810	 9.90855790589068E-02 
811	 9.93175111025167E-02 
812	 0.099540410741982 
813	 9.97328190777089E-02 
814	 0.099893924513563 
815	 9.98774810339182E-02 
816	 9.99528952991123E-02 
817	 0.101100130099691 
818	 0.10185320182635 
819	 0.101741326391139 
820	 0.102079106014313 
821	 0.102609411771046 
822	 0.102922737080765 
823	 0.103415492157335 
824	 0.104160601451429 
825	 0.105188334826285 
826	 0.106184636085475 
827	 0.106916347925588 
828	 0.106695419869439 
829	 0.106465219071931 
830	 0.107403827587558 
831	 0.107981501760616 
832	 0.10810618617644 
833	 0.108477173832088 
834	 0.109119401839728 
835	 0.109935437142882 
836	 0.110258554645016 
837	 0.110396282914515 
838	 0.110754878843556 
839	 0.111157659200903 
840	 0.111607356939752 
841	 0.112210961549525 
842	 0.112724726506799 
843	 0.113084242101465 
844	 0.113657017659453 
845	 0.114095488759124 
846	 0.114002730730402 
847	 0.113861734166762 
848	 0.113853826655937 
849	 0.114122491407461 
850	 0.114569916240417 
851	 0.115092706216746 
852	 0.115308212887358 
853	 0.115790839560905 
854	 0.117072609377037 
855	 0.117085236566708 
856	 0.11654809144408 
857	 0.118466336450216 
858	 0.119320166474554 
859	 0.118407342956927 
860	 0.118670414963015 
861	 0.119229249199013 
862	 0.11913155005857 
863	 0.119025175963225 
864	 0.11917080537513 
865	 0.119948802337192 
866	 0.120348772143951 
867	 0.120227515557347 
868	 0.120678401273239 
869	 0.121487286079346 
870	 0.122425661415862 
871	 0.123508799486941 
872	 0.124445605462782 
873	 0.124705148127598 
874	 0.125068866925714 
875	 0.12552072573281 
876	 0.124797794684742 
877	 0.124672025322546 
878	 0.126245033718599 
879	 0.127470289117253 
880	 0.128222158868163 
881	 0.128806582672277 
882	 0.129468357223955 
883	 0.130030875930152 
884	 0.129456927673957 
885	 0.129469164570547 
886	 0.130809481709531 
887	 0.13126290446933 
888	 0.131171996465443 
889	 0.131324322673663 
890	 0.131583517182788 
891	 0.131956632308625 
892	 0.132538101200851 
893	 0.132892418152622 
894	 0.132656978281894 
895	 0.131106605371857 
896	 0.129928117820098 
897	 0.131150561985399 
898	 0.132754834262577 
899	 0.134174228438567 
900	 0.135430911523299 
901	 0.135626549337867 
902	 0.134810771056453 
903	 0.134418734733292 
904	 0.134607904370181 
905	 0.135428585272349 
906	 0.136503066027411 
907	 0.137450619453455 
908	 0.137771587773809 
909	 0.13777361002107 
910	 0.137205384571553 
911	 0.134215539749189 
912	 0.134545549946263 
913	 0.140135929820135 
914	 0.140410741925668 
915	 0.13785469176324 
916	 0.136915170936666 
917	 0.138175911378308 
918	 0.140275841817213 
919	 0.138968361925613 
920	 0.138177526272078 
921	 0.13912215329253 
922	 0.14084257179501 
923	 0.140614753778984 
924	 0.136639318267051 
925	 0.13797475323403 
926	 0.141629657259412 
927	 0.137146334305788 
928	 0.133867828468817 
929	 0.134493297525262 
930	 0.134490258312891 
931	 0.131357765485503 
932	 0.124172471789489 
933	 0.125538202073286 
934	 0.131091906275378 
935	 0.130525894562709 
936	 0.130174809013015 
937	 0.130915555876685 
938	 0.131829629902607 
939	 0.129827102955154 
940	 0.12526239881224 
941	 0.123581829871344 
942	 0.124480628603687 
943	 0.126772770821461 
944	 0.123988484592739 
945	 0.118221604722019 
946	 0.114251620783614 
947	 0.117179774782413 
948	 0.124847498032111 
949	 0.126712619135315 
950	 0.121575035689205 
951	 0.112752915541887 
952	 0.120661328437578 
953	 0.13229191803829 
954	 0.134924277369867 
955	 0.129675135301619 
956	 0.122557769725715 
957	 0.123742046312464 
958	 0.123509752888021 
959	 0.120536230897823 
960	 0.118159884412517 
961	 0.12063088148952 
962	 0.127480638571455 
963	 0.125793891361559 
964	 0.122933113520033 
965	 0.12617505921621 
966	 0.123849698810509 
967	 0.11992883967446 
968	 0.125691876465041 
969	 0.127534263274298 
970	 0.123531026136067 
971	 0.120585531591644 
972	 0.121452950295683 
973	 0.126782902972758 
974	 0.131139619579969 
975	 0.131625876729082 
976	 0.126420524584279 
977	 0.124805152125946 
978	 0.126543623365903 
979	 0.126840807672304 
980	 0.126185432980605 
981	 0.125074067876414 
982	 0.124756820045268 
983	 0.127850767127516 
984	 0.133968118869941 
985	 0.132358913054786 
986	 0.126736948495659 
987	 0.122764841469216 
988	 0.127666861943658 
989	 0.136647748629873 
990	 0.137955481293639 
991	 0.134838780984615 
992	 0.13078613790098 
993	 0.13499049615419 
994	 0.13949599617112 
995	 0.139582604282093 
996	 0.134337940087059 
997	 0.131614984664304 
998	 0.137689177963361 
999	 0.132990352935344 
1000	 0.124267179124777 
1001	 0.12868889409572 
1002	 0.139628296525318 
1003	 0.150089197372158 
1004	 0.143660492266182 
1005	 0.136159377684334 
1006	 0.135055743441714 
1007	 0.140788707698634 
1008	 0.146180922598262 
1009	 0.146136713561676 
1010	 0.150947537302296 
1011	 0.152590678950584 
1012	 0.139133106440781 
1013	 0.141976674142467 
1014	 0.155283523032028 
1015	 0.147220082250692 
1016	 0.140218418976841 
1017	 0.140357646927416 
1018	 0.142481347411426 
1019	 0.147392884573759 
1020	 0.15437325919864 
1021	 0.16050353389833 
1022	 0.156489635869401 
1023	 0.136801793461724 
1024	 0.139786698873819 
1025	 0.156066695564559 
1026	 0.159069779860558 
1027	 0.146508863010831 
1028	 0.129102427361571 
1029	 0.144298472310941 
1030	 0.155143933174565 
1031	 0.151356741158266 
1032	 0.14844003618562 
1033	 0.150742382185025 
1034	 0.158513382965054 
1035	 0.155473985681072 
1036	 0.14862352635198 
1037	 0.147480798733173 
1038	 0.154267764400775 
1039	 0.161204776192959 
1040	 0.15601059813514 
1041	 0.150602233113813 
1042	 0.148816347160786 
1043	 0.150423489778583 
1044	 0.156288963593116 
1045	 0.163405111914732 
1046	 0.160671802794078 
1047	 0.155354340321259 
1048	 0.153920049251001 
1049	 0.164906725976951 
1050	 0.174231284279873 
1051	 0.168167149955415 
1052	 0.156755489267483 
1053	 0.155400861986154 
1054	 0.182220107249504 
1055	 0.17747004936636 
1056	 0.145113914532297 
1057	 0.134845663102362 
1058	 0.135897565935569 
1059	 0.145937231687121 
1060	 0.166366496604648 
1061	 0.174767946518643 
1062	 0.164734609635528 
1063	 0.16207147954633 
1064	 0.164684391259982 
1065	 0.16847994916333 
1066	 0.16004876978786 
1067	 0.161929566481727 
1068	 0.193341405622071 
1069	 0.185159629593207 
1070	 0.161770808069546 
1071	 0.184399129829163 
1072	 0.154161459875229 
1073	 9.95384795507163E-02 
1074	 0.163228573463985 
1075	 0.168312764969969 
