Wavelength	AVEI200052.asd
325	 2.10791639713591E-02 
326	 2.00716848736569E-02 
327	 2.81540550231536E-02 
328	 2.58768551682215E-02 
329	 2.40554856330451E-02 
330	 2.56184950265516E-02 
331	 2.31623772404964E-02 
332	 2.16841754450107E-02 
333	 2.58677262868681E-02 
334	 2.91431712622309E-02 
335	 2.92669714235306E-02 
336	 2.28420282628149E-02 
337	 2.19637630008792E-02 
338	 2.78444127062943E-02 
339	 2.71525345150362E-02 
340	 2.49951812049263E-02 
341	 2.58919278238637E-02 
342	 2.61741752628512E-02 
343	 2.57128121966042E-02 
344	 2.53219083419457E-02 
345	 0.024434229699003 
346	 2.31772536974573E-02 
347	 2.20503404806123E-02 
348	 2.27226761292716E-02 
349	 2.57633974123644E-02 
350	 0.026573719849751 
351	 2.56551086912757E-02 
352	 0.024779650269021 
353	 2.43536211553998E-02 
354	 2.40780117183111E-02 
355	 2.20408596314758E-02 
356	 2.08753060853558E-02 
357	 2.19612027916144E-02 
358	 2.28338598015548E-02 
359	 2.32173333158794E-02 
360	 2.32789943246122E-02 
361	 2.14489299228499E-02 
362	 1.88328786303991E-02 
363	 2.00244831942674E-02 
364	 0.022217844818403 
365	 2.34661764105342E-02 
366	 2.22978847966943E-02 
367	 2.04829346012306E-02 
368	 2.04942380434705E-02 
369	 2.15813463046015E-02 
370	 0.022990403637695 
371	 2.28742310056611E-02 
372	 2.28964699573513E-02 
373	 2.36060108444875E-02 
374	 0.022199368564528 
375	 2.04319489100511E-02 
376	 0.02101854669132 
377	 2.13269702992604E-02 
378	 2.10995197918516E-02 
379	 2.16848770600716E-02 
380	 2.21201587224222E-02 
381	 2.19922382037593E-02 
382	 2.20608816581021E-02 
383	 2.22631082752195E-02 
384	 2.24188270425363E-02 
385	 2.22119859231977E-02 
386	 2.20126732440941E-02 
387	 2.33798401637048E-02 
388	 2.36828417088421E-02 
389	 2.20857314154857E-02 
390	 0.021279392102406 
391	 2.15436933018347E-02 
392	 0.022818440321116 
393	 2.14905068231508E-02 
394	 1.88939913553607E-02 
395	 2.10012395032916E-02 
396	 2.31999850963603E-02 
397	 2.35488914576082E-02 
398	 0.023331102307059 
399	 2.30330551489767E-02 
400	 2.30230050486913E-02 
401	 2.26493075869763E-02 
402	 0.022047432531557 
403	 2.17090363754925E-02 
404	 2.18962123279418E-02 
405	 2.24650504691395E-02 
406	 2.17800532564574E-02 
407	 2.10775701085505E-02 
408	 2.19941625370307E-02 
409	 2.20945619332119E-02 
410	 2.14456679566931E-02 
411	 2.18959780484232E-02 
412	 2.22866159554577E-02 
413	 2.21882353907569E-02 
414	 2.26817860456369E-02 
415	 2.29140674936263E-02 
416	 2.16965196887258E-02 
417	 2.11208966953476E-02 
418	 2.15292925204037E-02 
419	 2.24362358026682E-02 
420	 2.28226262675192E-02 
421	 2.22073451504422E-02 
422	 2.15268732616536E-02 
423	 2.12915066713431E-02 
424	 2.20411364467735E-02 
425	 2.26426391603037E-02 
426	 0.022672773353264 
427	 2.17520714596953E-02 
428	 2.12798616813699E-02 
429	 2.20272277429381E-02 
430	 2.22130990174366E-02 
431	 2.20149030085176E-02 
432	 2.21573704500539E-02 
433	 2.20637354012939E-02 
434	 2.17567809445788E-02 
435	 2.18257135564282E-02 
436	 0.021972632534363 
437	 2.19929502128549E-02 
438	 2.19506387397473E-02 
439	 2.19701940278028E-02 
440	 2.22790381706515E-02 
441	 2.24650413097127E-02 
442	 2.24661648314287E-02 
443	 0.022659314122305 
444	 2.26788930652658E-02 
445	 2.22820766094257E-02 
446	 0.022294083490256 
447	 2.25320326865431E-02 
448	 2.22539529488184E-02 
449	 2.21039757356706E-02 
450	 0.022261071494643 
451	 2.25083548961795E-02 
452	 2.26048433937465E-02 
453	 2.23563153250653E-02 
454	 2.23634301987048E-02 
455	 0.022646661244667 
456	 2.29458549041731E-02 
457	 2.30522197888168E-02 
458	 2.28991994063246E-02 
459	 2.27715526369499E-02 
460	 2.27030405350275E-02 
461	 2.27032108384549E-02 
462	 2.29987115604345E-02 
463	 2.33645497076361E-02 
464	 2.29622983251022E-02 
465	 2.26132288375722E-02 
466	 2.27334396870303E-02 
467	 2.29678108987398E-02 
468	 2.31383229617415E-02 
469	 2.30490261030156E-02 
470	 2.29643696067692E-02 
471	 2.29356215481896E-02 
472	 0.022866820209138 
473	 2.27581953184954E-02 
474	 2.26590548183193E-02 
475	 2.29331443870154E-02 
476	 2.34204899181985E-02 
477	 2.37954782491027E-02 
478	 2.37595905053041E-02 
479	 2.33776344038885E-02 
480	 2.33590786742625E-02 
481	 2.33654726401823E-02 
482	 2.31360497817205E-02 
483	 2.30977502957958E-02 
484	 2.32645086783097E-02 
485	 2.35063181094097E-02 
486	 2.37199226646506E-02 
487	 2.38624280459943E-02 
488	 2.40421681535301E-02 
489	 2.41648757984315E-02 
490	 2.41352334632456E-02 
491	 2.40228556286108E-02 
492	 2.39125877513536E-02 
493	 2.40083035746372E-02 
494	 2.39160000382169E-02 
495	 2.35655085135296E-02 
496	 2.36765258286347E-02 
497	 2.38877772021321E-02 
498	 2.36497684130358E-02 
499	 2.37223373334484E-02 
500	 2.41555257854674E-02 
501	 2.45112290652082E-02 
502	 2.46061256457791E-02 
503	 2.43788257432984E-02 
504	 2.43186949308873E-02 
505	 0.024451170696413 
506	 2.47030091182875E-02 
507	 2.48033551449546E-02 
508	 2.47961084660034E-02 
509	 2.52648455750411E-02 
510	 2.55915215009966E-02 
511	 2.53315428842237E-02 
512	 2.53904118451716E-02 
513	 0.025691253619757 
514	 2.56987342975932E-02 
515	 2.56576916595779E-02 
516	 2.56578040810187E-02 
517	 2.57307541373748E-02 
518	 2.58404493540836E-02 
519	 2.59443115722274E-02 
520	 2.61087289949289E-02 
521	 0.026389478352653 
522	 2.69745532906831E-02 
523	 2.72804590861936E-02 
524	 2.71060726179602E-02 
525	 2.70871889359677E-02 
526	 2.72009652009146E-02 
527	 2.73094017143991E-02 
528	 2.74740120741039E-02 
529	 2.76659148491188E-02 
530	 2.77479648049066E-02 
531	 2.78832943695672E-02 
532	 2.81716103747469E-02 
533	 0.028498079424457 
534	 2.87087864724648E-02 
535	 2.85399965702482E-02 
536	 2.83698236328971E-02 
537	 2.83818607317986E-02 
538	 2.87631216665333E-02 
539	 2.91030015604276E-02 
540	 2.90257986465852E-02 
541	 2.92219091012523E-02 
542	 2.95760447745408E-02 
543	 2.93869085666854E-02 
544	 2.93164216275373E-02 
545	 2.95896795309235E-02 
546	 2.97527127534191E-02 
547	 2.97996998059498E-02 
548	 2.97793624947631E-02 
549	 2.98251643234256E-02 
550	 0.029934271930141 
551	 2.99481449812183E-02 
552	 2.99875448505983E-02 
553	 3.01274535016614E-02 
554	 3.03306564408048E-02 
555	 3.04963065888186E-02 
556	 3.04491844244548E-02 
557	 3.04342180896286E-02 
558	 3.04968361837679E-02 
559	 3.04433352096423E-02 
560	 3.03565940034678E-02 
561	 3.03382441565276E-02 
562	 3.06410179521011E-02 
563	 3.10685998937382E-02 
564	 3.09888277687877E-02 
565	 3.09657035217875E-02 
566	 3.11591510901869E-02 
567	 3.10498855218464E-02 
568	 3.08862501678446E-02 
569	 3.10369714598081E-02 
570	 3.09835277069339E-02 
571	 3.07370400432222E-02 
572	 3.07769716248741E-02 
573	 0.030862488588027 
574	 3.08672414104154E-02 
575	 3.10354261780255E-02 
576	 3.12256468930313E-02 
577	 3.11189628384216E-02 
578	 0.031135462927635 
579	 3.13321122862013E-02 
580	 3.13531337867761E-02 
581	 3.12601241297048E-02 
582	 3.11380695997198E-02 
583	 3.12151002980339E-02 
584	 3.14105636310426E-02 
585	 3.14090946787021E-02 
586	 3.13769315710569E-02 
587	 3.13648843359833E-02 
588	 3.13193217363961E-02 
589	 3.11624528329061E-02 
590	 3.08111824548728E-02 
591	 3.10169054225146E-02 
592	 3.16712742490804E-02 
593	 3.18613857235186E-02 
594	 3.18238524589145E-02 
595	 3.16881048888801E-02 
596	 3.13337486151973E-02 
597	 0.031150855689783 
598	 3.18628488026754E-02 
599	 3.20393314498807E-02 
600	 3.15431826297223E-02 
601	 3.19071464638016E-02 
602	 3.23273241467296E-02 
603	 3.20991035758296E-02 
604	 3.22312865250119E-02 
605	 3.25884884065376E-02 
606	 3.23386291327933E-02 
607	 3.22428526058762E-02 
608	 3.25434913237729E-02 
609	 3.27895171422255E-02 
610	 3.27824442978227E-02 
611	 3.23399945142293E-02 
612	 3.21709947103238E-02 
613	 3.23510801009585E-02 
614	 3.24659119442374E-02 
615	 3.25469275738913E-02 
616	 3.25913893158143E-02 
617	 3.25200721804456E-02 
618	 3.23895524279538E-02 
619	 3.22824419460075E-02 
620	 3.25284314550188E-02 
621	 3.30583315389305E-02 
622	 3.31574735286875E-02 
623	 3.29955256517508E-02 
624	 3.27617103339389E-02 
625	 0.032536540779925 
626	 3.24740458795064E-02 
627	 3.29240866305304E-02 
628	 3.32150561201814E-02 
629	 3.31125065002768E-02 
630	 3.31042227042474E-02 
631	 3.31573504064103E-02 
632	 3.31780603853758E-02 
633	 3.32687295482533E-02 
634	 0.033436210860527 
635	 3.36253316075524E-02 
636	 3.38448257307739E-02 
637	 0.034055931140708 
638	 3.39746336087134E-02 
639	 0.033709535171869 
640	 3.34939871582307E-02 
641	 3.35271696595159E-02 
642	 3.37842522174857E-02 
643	 3.38459958165247E-02 
644	 3.37132691809744E-02 
645	 3.34445902328964E-02 
646	 3.36595235270082E-02 
647	 3.42128369740627E-02 
648	 3.44460784752324E-02 
649	 3.43584167064672E-02 
650	 3.40311976613032E-02 
651	 0.034095033151975 
652	 3.41571189073925E-02 
653	 3.36942078927137E-02 
654	 3.35165784957072E-02 
655	 3.37238311348803E-02 
656	 3.39163755661931E-02 
657	 3.41580618881803E-02 
658	 3.43912730853018E-02 
659	 3.41186624245947E-02 
660	 3.36612281175335E-02 
661	 3.35903440453101E-02 
662	 3.35863862274815E-02 
663	 3.35818206072894E-02 
664	 3.36490618782209E-02 
665	 3.37497521521222E-02 
666	 0.033828443877407 
667	 3.36286531200764E-02 
668	 3.32939038111999E-02 
669	 3.32717401389708E-02 
670	 3.32564973132541E-02 
671	 3.32060912809738E-02 
672	 3.35039052139254E-02 
673	 3.38170152557529E-02 
674	 3.37457220455377E-02 
675	 3.36866625025838E-02 
676	 3.37319996323711E-02 
677	 3.38321071180165E-02 
678	 3.41051281011094E-02 
679	 3.45518587864704E-02 
680	 3.47198605489585E-02 
681	 3.47423494746801E-02 
682	 3.49199313846788E-02 
683	 3.50671855428007E-02 
684	 0.035268219852077 
685	 3.60620798659657E-02 
686	 3.69090680149611E-02 
687	 3.73111397502061E-02 
688	 3.76007918079539E-02 
689	 3.79901022773146E-02 
690	 3.88541720087398E-02 
691	 0.039733395281457 
692	 4.04735129875655E-02 
693	 4.09934184296133E-02 
694	 0.041594467890591 
695	 4.25492905159206E-02 
696	 4.34765838116036E-02 
697	 4.43531884747741E-02 
698	 4.54069991260105E-02 
699	 0.046410961840366 
700	 4.72818002081228E-02 
701	 4.84018889069116E-02 
702	 4.94535160456007E-02 
703	 4.99655546063962E-02 
704	 5.06017871124579E-02 
705	 5.15285290781942E-02 
706	 5.27250073942536E-02 
707	 0.053579454751276 
708	 0.053814869928453 
709	 5.47729659537869E-02 
710	 5.60303343666308E-02 
711	 5.64445501167249E-02 
712	 5.69862616735891E-02 
713	 5.78339203423913E-02 
714	 5.84490679926964E-02 
715	 5.88703190055121E-02 
716	 5.91717453611498E-02 
717	 5.93886593862567E-02 
718	 5.96731451603977E-02 
719	 6.02850525322187E-02 
720	 6.13338648301907E-02 
721	 6.24934890016182E-02 
722	 6.27819679547525E-02 
723	 6.28298796252124E-02 
724	 6.33232394751732E-02 
725	 6.39938433938013E-02 
726	 6.46455349542767E-02 
727	 6.50297775350475E-02 
728	 6.53375604551891E-02 
729	 6.56833058104955E-02 
730	 0.066097673745132 
731	 6.65642783554884E-02 
732	 6.70513338570661E-02 
733	 6.73130309364141E-02 
734	 6.74874448559704E-02 
735	 6.81921905745764E-02 
736	 6.89173363079413E-02 
737	 6.93276300217291E-02 
738	 6.99084397039636E-02 
739	 7.04797696994721E-02 
740	 7.05923580723899E-02 
741	 7.06465385923043E-02 
742	 7.08392095051893E-02 
743	 7.14022405651779E-02 
744	 7.19621819155588E-02 
745	 7.22218819360378E-02 
746	 0.07261435324869 
747	 7.30530663616554E-02 
748	 7.31381645235816E-02 
749	 0.073303431990575 
750	 7.36847073048401E-02 
751	 7.40824284292306E-02 
752	 7.44372026432068E-02 
753	 7.47002786214963E-02 
754	 7.47904957433193E-02 
755	 7.48890881845815E-02 
756	 7.56085860275282E-02 
757	 7.60133440235008E-02 
758	 7.57200455399423E-02 
759	 7.52845738340798E-02 
760	 7.50474967981441E-02 
761	 7.61605474727506E-02 
762	 7.69559513839433E-02 
763	 0.077103288659862 
764	 7.76244124527286E-02 
765	 7.79654511341697E-02 
766	 7.80549671293619E-02 
767	 7.85677054837433E-02 
768	 0.079088248746892 
769	 0.079084252662021 
770	 7.92273122916074E-02 
771	 7.96455323756049E-02 
772	 8.01831117363935E-02 
773	 8.07209080632167E-02 
774	 8.11729702851291E-02 
775	 8.16325229189043E-02 
776	 8.20003161646706E-02 
777	 8.20625784849141E-02 
778	 0.082432259195787 
779	 8.30712541037345E-02 
780	 8.29587134890862E-02 
781	 8.28517120567255E-02 
782	 8.33128482954791E-02 
783	 8.33719604622254E-02 
784	 8.32524397469403E-02 
785	 8.37490651200773E-02 
786	 8.43421303989616E-02 
787	 8.48522897916973E-02 
788	 0.08534334332527 
789	 8.55924853702008E-02 
790	 8.54486493271916E-02 
791	 8.58063538548498E-02 
792	 8.63705227071896E-02 
793	 8.59274389301319E-02 
794	 8.59492739703929E-02 
795	 8.67406791028758E-02 
796	 8.69350023191412E-02 
797	 8.70236647196348E-02 
798	 8.75453177239667E-02 
799	 8.77262468526076E-02 
800	 8.76883284367217E-02 
801	 8.81751759210967E-02 
802	 8.85300067789996E-02 
803	 8.86158191563564E-02 
804	 0.089227503244272 
805	 8.97027860678339E-02 
806	 8.93411911388991E-02 
807	 8.96347831133061E-02 
808	 9.03453142948808E-02 
809	 8.97932908990633E-02 
810	 8.95754070414267E-02 
811	 9.02353557749568E-02 
812	 9.03841233087505E-02 
813	 0.090348631249663 
814	 9.07019977419124E-02 
815	 9.05721815777253E-02 
816	 9.02825217346207E-02 
817	 9.16348116465095E-02 
818	 9.23172792588564E-02 
819	 9.16701364947106E-02 
820	 9.20017732190473E-02 
821	 9.29960479668731E-02 
822	 0.094058804730311 
823	 9.41193757416503E-02 
824	 9.36834564309555E-02 
825	 9.50516500443428E-02 
826	 9.59586216654204E-02 
827	 9.56458214372908E-02 
828	 9.56175322656754E-02 
829	 9.56740902185368E-02 
830	 9.54313548586745E-02 
831	 9.56280661964172E-02 
832	 9.61664425718359E-02 
833	 9.62157640339819E-02 
834	 9.67717789925013E-02 
835	 9.79942415013678E-02 
836	 9.83537740069355E-02 
837	 9.82366997118779E-02 
838	 9.82401688537502E-02 
839	 9.87716919166114E-02 
840	 9.96909152493415E-02 
841	 0.100388345626762 
842	 0.100617290950274 
843	 0.100329102523053 
844	 0.100017843802846 
845	 0.10004035858252 
846	 0.100688577777918 
847	 0.100733079650298 
848	 0.100397403787324 
849	 0.101182377957371 
850	 0.10160733826613 
851	 0.101241808182065 
852	 0.101352861349666 
853	 0.101811425671644 
854	 0.102327629558873 
855	 0.10222595519435 
856	 0.102012982146398 
857	 0.103393834621256 
858	 0.104244395196457 
859	 0.10405746961104 
860	 0.104389347854982 
861	 0.104383130329493 
862	 0.103275775949352 
863	 0.102985974765994 
864	 0.103606789524296 
865	 0.104504479482315 
866	 0.104909538440025 
867	 0.104660652001161 
868	 0.104521976462143 
869	 0.10510935318273 
870	 0.106689311889914 
871	 0.107047106687379 
872	 0.10676611384969 
873	 0.10771229597889 
874	 0.108038064807498 
875	 0.107495620458698 
876	 0.107232110060304 
877	 0.107889930385326 
878	 0.10961255750384 
879	 0.109693696764353 
880	 0.109121315914522 
881	 0.1101283363214 
882	 0.110598384790568 
883	 0.110405876255972 
884	 0.111112978661894 
885	 0.112027214995207 
886	 0.112590924600183 
887	 0.111809937607205 
888	 0.111202487612273 
889	 0.112844024301613 
890	 0.114134815771416 
891	 0.114504202282546 
892	 0.114396770603938 
893	 0.113633103298892 
894	 0.112280446802751 
895	 0.110995424095835 
896	 0.110532804949851 
897	 0.111608486145084 
898	 0.112418942737853 
899	 0.112710141730095 
900	 0.112994544540871 
901	 0.113711773932411 
902	 0.114732446435602 
903	 0.114663552252261 
904	 0.114901718223814 
905	 0.116271554853791 
906	 0.115481477870453 
907	 0.113866456957849 
908	 0.114616183505467 
909	 0.116095805005114 
910	 0.116999490138562 
911	 0.114107314633635 
912	 0.112492928552141 
913	 0.11464583941282 
914	 0.115294792986076 
915	 0.114964202621365 
916	 0.115009559325134 
917	 0.116615000626189 
918	 0.118573327771668 
919	 0.116892613699625 
920	 0.115883806057395 
921	 0.116864928136943 
922	 0.118449525241961 
923	 0.118061635891298 
924	 0.113919881366308 
925	 0.113076157509155 
926	 0.115002512923149 
927	 0.115484040808576 
928	 0.11765100679378 
929	 0.121222051387082 
930	 0.120351579340631 
931	 0.115533739994337 
932	 0.10820277487143 
933	 0.106082218620668 
934	 0.107452760345923 
935	 0.10703661285831 
936	 0.108884826345525 
937	 0.112147014727317 
938	 0.113682140973297 
939	 0.108381307785362 
940	 9.85980240525558E-02 
941	 0.100792186332861 
942	 0.10524452043843 
943	 0.104583228236037 
944	 0.104221257450168 
945	 0.102337835781764 
946	 9.51608703238883E-02 
947	 9.47656630413275E-02 
948	 0.102207929923462 
949	 0.111645251231395 
950	 0.109803628739032 
951	 9.57379050088958E-02 
952	 0.097420361454489 
953	 0.104794260095423 
954	 0.107115622117796 
955	 0.106991264247986 
956	 0.106149177532346 
957	 0.107407827965395 
958	 0.104940942998942 
959	 0.100109368964789 
960	 0.101502289119574 
961	 0.105405169713976 
962	 0.108668282691621 
963	 0.105889268134412 
964	 0.101783356617784 
965	 0.10105549108808 
966	 9.99532275473497E-02 
967	 0.100769999837525 
968	 0.109585103206907 
969	 0.109258164480215 
970	 0.10009352757216 
971	 0.102776176252489 
972	 0.10321969380597 
973	 9.65650867152555E-02 
974	 0.104370154668281 
975	 0.113032561581801 
976	 0.106684052609003 
977	 0.10404406739572 
978	 0.105247929887576 
979	 0.102429838442653 
980	 0.102403035093313 
981	 0.105706222592103 
982	 0.107210929240781 
983	 0.106833628887651 
984	 0.105287602058496 
985	 0.107215168955417 
986	 0.109186657539348 
987	 0.107540782215379 
988	 0.108687470109841 
989	 0.111867688209716 
990	 0.113566630145181 
991	 0.111745350017005 
992	 0.107712209347391 
993	 0.10798820376339 
994	 0.111010979910856 
995	 0.114881882725865 
996	 0.114265480023873 
997	 0.113242211026205 
998	 0.115874400173873 
999	 0.117422700078785 
1000	 0.116681889317034 
1001	 0.112940406625822 
1002	 0.11853130613218 
1003	 0.12915902471352 
1004	 0.12005149224882 
1005	 0.112071242799163 
1006	 0.112394663098837 
1007	 0.108135289566391 
1008	 0.113738517737012 
1009	 0.135193706716319 
1010	 0.131356867161011 
1011	 0.114293082387738 
1012	 0.108296581534293 
1013	 0.112271571199906 
1014	 0.120693826695137 
1015	 0.119621882333532 
1016	 0.120886476604998 
1017	 0.124677011999864 
1018	 0.115917170165832 
1019	 0.111693172606296 
1020	 0.120553119963957 
1021	 0.131561109528903 
1022	 0.131717868507088 
1023	 0.112593857243805 
1024	 0.114027568466918 
1025	 0.126360915395575 
1026	 0.122156196912493 
1027	 0.113059712242652 
1028	 0.107051933278026 
1029	 0.12197070913444 
1030	 0.125584693502317 
1031	 0.112583441373607 
1032	 0.115676034817838 
1033	 0.114552088499982 
1034	 0.101660147029297 
1035	 0.117545532326498 
1036	 0.1330340612059 
1037	 0.116536434851565 
1038	 0.118556481144014 
1039	 0.134040566888688 
1040	 0.141017051319884 
1041	 0.130033893927094 
1042	 0.11164839267014 
1043	 0.124834493265911 
1044	 0.132953802033282 
1045	 0.127090939475204 
1046	 0.129389368708034 
1047	 0.125636672325976 
1048	 0.11136539929622 
1049	 0.112416857428303 
1050	 0.125765466240472 
1051	 0.143071844304751 
1052	 0.143639327030064 
1053	 0.133790369578165 
1054	 0.127304616860302 
1055	 0.119806055977234 
1056	 0.116628596570693 
1057	 0.131370741190151 
1058	 0.134596854181441 
1059	 0.122553912319334 
1060	 0.115640258767498 
1061	 0.115437632187022 
1062	 0.119040776604817 
1063	 0.103968146503724 
1064	 9.94786894036522E-02 
1065	 0.123321929486382 
1066	 0.135086972613848 
1067	 0.140396597907241 
1068	 0.148375277919855 
1069	 0.141138431379753 
1070	 0.130162289781342 
1071	 0.140226100241727 
1072	 0.119724877243824 
1073	 8.26657904576304E-02 
1074	 0.101443765883095 
1075	 0.114206653956136 
