Wavelength	AVEI200222.asd
325	 7.33956235634818E-02 
326	 7.70672404455397E-02 
327	 7.17686259677221E-02 
328	 7.02406156041253E-02 
329	 6.87786087519077E-02 
330	 6.63039922269395E-02 
331	 6.37563966759664E-02 
332	 6.15033478344617E-02 
333	 6.00014806006483E-02 
334	 6.47610342241766E-02 
335	 0.071834999280886 
336	 7.08118990379268E-02 
337	 6.77932152578709E-02 
338	 6.52149692105297E-02 
339	 6.46264017828972E-02 
340	 6.44609780005042E-02 
341	 6.35080978925653E-02 
342	 6.41130427097931E-02 
343	 6.54027862368285E-02 
344	 6.51816502533879E-02 
345	 0.065003637861785 
346	 0.065453502705569 
347	 6.74049109050996E-02 
348	 0.067794441559578 
349	 6.52531031400316E-02 
350	 6.66462165646527E-02 
351	 6.91199923963143E-02 
352	 6.67907682023287E-02 
353	 6.56370626349623E-02 
354	 6.64676878920634E-02 
355	 6.66589657663869E-02 
356	 6.64036680516635E-02 
357	 6.59361769674119E-02 
358	 6.59238767822133E-02 
359	 6.64763078661885E-02 
360	 6.76625175780719E-02 
361	 6.70940707982414E-02 
362	 6.54553261993069E-02 
363	 6.70282411372866E-02 
364	 6.87937764459307E-02 
365	 6.91478691966312E-02 
366	 6.92671337691258E-02 
367	 6.89589022800701E-02 
368	 6.78039436580638E-02 
369	 6.79591170854373E-02 
370	 6.91907412980239E-02 
371	 6.90213397975376E-02 
372	 6.85817133532094E-02 
373	 6.84646631067109E-02 
374	 6.83593284927816E-02 
375	 6.84901114234116E-02 
376	 6.91674857154022E-02 
377	 6.88250461115032E-02 
378	 6.78500299459003E-02 
379	 6.89443476481886E-02 
380	 6.92613750402682E-02 
381	 6.77743080913647E-02 
382	 0.06766791759621 
383	 0.068467848029091 
384	 6.91585801328615E-02 
385	 6.97566204332516E-02 
386	 7.00328650600786E-02 
387	 0.069591907854335 
388	 6.86284897641885E-02 
389	 6.76437601824981E-02 
390	 6.87177905952519E-02 
391	 7.00084019642646E-02 
392	 6.92727972486194E-02 
393	 6.96557178096221E-02 
394	 7.10606329880152E-02 
395	 7.15701576465422E-02 
396	 7.07556101723603E-02 
397	 6.89131144995956E-02 
398	 6.85569608745358E-02 
399	 6.90033351658367E-02 
400	 6.92834271182061E-02 
401	 6.95784856058374E-02 
402	 0.069975366477381 
403	 7.07816403291584E-02 
404	 7.11851989305046E-02 
405	 7.10061424353506E-02 
406	 0.071355997251651 
407	 7.17437520717299E-02 
408	 7.14615258471617E-02 
409	 7.12082359314918E-02 
410	 7.10799855688564E-02 
411	 7.07907037883292E-02 
412	 7.08556646847791E-02 
413	 7.13679207987195E-02 
414	 7.12330718238161E-02 
415	 7.11049966084956E-02 
416	 0.071938742508659 
417	 7.27474475493342E-02 
418	 7.31220425957356E-02 
419	 7.24995546661947E-02 
420	 7.22672225596233E-02 
421	 7.30533292587136E-02 
422	 7.34328520914272E-02 
423	 7.35328363314473E-02 
424	 7.37887453280868E-02 
425	 7.38421199932306E-02 
426	 7.37676176852061E-02 
427	 7.40725711201136E-02 
428	 7.46040276145238E-02 
429	 7.51654215185607E-02 
430	 7.51559288830383E-02 
431	 7.48290031093207E-02 
432	 7.47372758081288E-02 
433	 7.47228084410184E-02 
434	 7.48073106551219E-02 
435	 7.51818428212357E-02 
436	 7.54525050191072E-02 
437	 7.54230506281312E-02 
438	 7.58063520031713E-02 
439	 7.63868714240166E-02 
440	 7.65784400528081E-02 
441	 0.076909034149152 
442	 7.74068379080156E-02 
443	 7.75372358423968E-02 
444	 7.75841755956865E-02 
445	 7.77884761553835E-02 
446	 7.79863439113388E-02 
447	 0.078159972558212 
448	 7.83056836509583E-02 
449	 0.078544312834629 
450	 7.89049217528188E-02 
451	 7.93547981021646E-02 
452	 7.95730233587693E-02 
453	 7.92955626570082E-02 
454	 0.07941928648739 
455	 7.99803874513341E-02 
456	 8.05762195121951E-02 
457	 0.081004954467827 
458	 8.11776357664526E-02 
459	 8.13668621233205E-02 
460	 8.13858118770092E-02 
461	 8.10122525288742E-02 
462	 8.13133933831878E-02 
463	 8.21499700666201E-02 
464	 8.23588463804913E-02 
465	 8.22287604392404E-02 
466	 8.19766085152747E-02 
467	 8.21362414479518E-02 
468	 8.24369992225228E-02 
469	 0.082381506411202 
470	 8.25983516185608E-02 
471	 8.30383548569227E-02 
472	 8.29341025814322E-02 
473	 8.28867154924258E-02 
474	 8.32738133418234E-02 
475	 8.38474180620468E-02 
476	 0.084322301921223 
477	 0.084283118419994 
478	 8.41305880446825E-02 
479	 8.40811579714493E-02 
480	 8.44516871373842E-02 
481	 8.47587245800894E-02 
482	 8.46564761074094E-02 
483	 8.49822931614748E-02 
484	 0.085516572036244 
485	 8.54508600467611E-02 
486	 0.084947379283659 
487	 8.43169181375062E-02 
488	 8.48139158088919E-02 
489	 8.55598494939856E-02 
490	 8.55963952299946E-02 
491	 8.56992729751984E-02 
492	 8.59372836560562E-02 
493	 8.61116176576694E-02 
494	 8.61968534049094E-02 
495	 8.62089759595613E-02 
496	 8.63330759044999E-02 
497	 8.65443192345019E-02 
498	 0.086783422864201 
499	 8.72520367476346E-02 
500	 8.78587666538568E-02 
501	 8.82248339850795E-02 
502	 8.82079380920311E-02 
503	 8.78481734260625E-02 
504	 8.81446103426193E-02 
505	 8.87565442559293E-02 
506	 8.88876447578444E-02 
507	 8.91318168633496E-02 
508	 8.95386142927091E-02 
509	 8.96697284630412E-02 
510	 8.96807945984697E-02 
511	 8.97373901049037E-02 
512	 9.01638695125272E-02 
513	 9.07505108421549E-02 
514	 9.09099839454773E-02 
515	 9.09037025872049E-02 
516	 9.09045274212114E-02 
517	 9.13510319261514E-02 
518	 9.18005796265601E-02 
519	 9.17584231232609E-02 
520	 9.17964354788499E-02 
521	 0.092012220949755 
522	 9.23081288049339E-02 
523	 9.27292523197681E-02 
524	 0.093220900158863 
525	 9.33402730603854E-02 
526	 9.32924692695004E-02 
527	 0.09342636671897 
528	 9.36858826627616E-02 
529	 9.40224741151818E-02 
530	 9.43397379480628E-02 
531	 9.44965630504716E-02 
532	 9.44501078689512E-02 
533	 9.47064387303857E-02 
534	 0.095148452822509 
535	 9.54083497003655E-02 
536	 9.55639893012721E-02 
537	 9.56593646021108E-02 
538	 9.58060892368371E-02 
539	 9.60427228198616E-02 
540	 9.63768828864268E-02 
541	 9.63897002182817E-02 
542	 0.096240369634614 
543	 9.65381672061982E-02 
544	 9.70599889625915E-02 
545	 9.76392569975826E-02 
546	 9.79105024853078E-02 
547	 9.78924177751438E-02 
548	 9.76613705335844E-02 
549	 0.097910470234303 
550	 9.85197517727688E-02 
551	 9.84020362052779E-02 
552	 9.83194319441533E-02 
553	 9.87097597071472E-02 
554	 9.89486127613176E-02 
555	 9.90332487929377E-02 
556	 9.91085731530389E-02 
557	 9.92878183239236E-02 
558	 9.96020994063037E-02 
559	 9.99910684158552E-02 
560	 0.100232328898434 
561	 0.100151638681479 
562	 0.100174802596305 
563	 0.100335126576251 
564	 0.100484945153077 
565	 0.100640442118702 
566	 0.100787732419576 
567	 0.100850601471075 
568	 0.1009172875195 
569	 0.101106759653507 
570	 0.101231244382581 
571	 0.101284580775592 
572	 0.101393928391933 
573	 0.101620367792261 
574	 0.101954928656082 
575	 0.101982149633189 
576	 0.101869988632427 
577	 0.102034680100478 
578	 0.102134284639253 
579	 0.102113809494765 
580	 0.102167420938256 
581	 0.102396911079643 
582	 0.102836235221162 
583	 0.102782981047013 
584	 0.10243484391999 
585	 0.102622268404297 
586	 0.102912783166858 
587	 0.103137530703259 
588	 0.103338364867179 
589	 0.103387331571219 
590	 0.103128160009949 
591	 0.103123026208982 
592	 0.103363778927657 
593	 0.103303795716229 
594	 0.103333257137188 
595	 0.10362484850463 
596	 0.103614374703827 
597	 0.10352945677316 
598	 0.103923868282817 
599	 0.103989250213905 
600	 0.103620318435075 
601	 0.103497318559279 
602	 0.10352693992596 
603	 0.103590895175089 
604	 0.103471333045672 
605	 0.103396871959571 
606	 0.104165380750665 
607	 0.104415038600311 
608	 0.103787800009252 
609	 0.103817722995426 
610	 0.104090414227104 
611	 0.103913958188739 
612	 0.10378572116262 
613	 0.103811015918004 
614	 0.103996072909837 
615	 0.103909427090491 
616	 0.103402004844129 
617	 0.103589449698758 
618	 0.104090222125288 
619	 0.103974532511493 
620	 0.103894206162589 
621	 0.104006703334961 
622	 0.104163715967471 
623	 0.104236012961703 
624	 0.104132200653961 
625	 0.104199298474428 
626	 0.104435064894613 
627	 0.104695226095191 
628	 0.104754904176792 
629	 0.104546338391845 
630	 0.104341111368148 
631	 0.10423156211831 
632	 0.104292495612175 
633	 0.104501268524794 
634	 0.104757782301637 
635	 0.10483351200104 
636	 0.104689299443864 
637	 0.104373184642031 
638	 0.104413711035019 
639	 0.10476240686977 
640	 0.105221679838225 
641	 0.105419342917014 
642	 0.105311827071698 
643	 0.105330543662988 
644	 0.105523578022308 
645	 0.105892978053929 
646	 0.106056486022679 
647	 0.105961221797325 
648	 0.105631987272222 
649	 0.105609100665168 
650	 0.105951300658308 
651	 0.105523945652787 
652	 0.104996819546541 
653	 0.105258542926897 
654	 0.105363902008404 
655	 0.105211969177162 
656	 0.105396579089044 
657	 0.105080121433154 
658	 0.103966236217909 
659	 0.103428350966297 
660	 0.103349226061854 
661	 0.10329575735005 
662	 0.103179665126568 
663	 0.102961413895441 
664	 0.102724302432622 
665	 0.102473868853265 
666	 0.102213024903191 
667	 0.101914795732273 
668	 0.101644252297565 
669	 0.10153350832504 
670	 0.101630028408418 
671	 0.101839518559523 
672	 0.101516045064873 
673	 0.101255202133676 
674	 0.101759597104487 
675	 0.101515329447718 
676	 0.100767124408226 
677	 0.101356862218832 
678	 0.101902583603763 
679	 0.101766650381806 
680	 0.102089353886912 
681	 0.102609497669598 
682	 0.10270034768199 
683	 0.103047581422487 
684	 0.103729404212436 
685	 0.104296418840016 
686	 0.104836962686466 
687	 0.105426190084942 
688	 0.106261670362974 
689	 0.106928625990966 
690	 0.106559174154459 
691	 0.10672458849076 
692	 0.107746281309706 
693	 0.108454132320013 
694	 0.108906607632147 
695	 0.1092194675791 
696	 0.109445463049926 
697	 0.109653101646188 
698	 0.109945819572553 
699	 0.11034035575551 
700	 0.11076258410652 
701	 0.110663060868323 
702	 0.110545899891043 
703	 0.111169914132394 
704	 0.111674059627018 
705	 0.11189109226978 
706	 0.112052006970586 
707	 0.112084725299062 
708	 0.111987470397694 
709	 0.112092029702387 
710	 0.112388018789276 
711	 0.112809255879431 
712	 0.112727823382176 
713	 0.112241305327855 
714	 0.112728155945383 
715	 0.113472393900481 
716	 0.113797070751806 
717	 0.114212329832185 
718	 0.114518324642686 
719	 0.113702198427377 
720	 0.113468618612904 
721	 0.114168383731563 
722	 0.114239924449168 
723	 0.114286611406265 
724	 0.115042599766322 
725	 0.115005521605973 
726	 0.114367647244884 
727	 0.114945988039277 
728	 0.115236519222208 
729	 0.114698021249339 
730	 0.115146942135779 
731	 0.115740341281013 
732	 0.115091154096168 
733	 0.115030199352652 
734	 0.115545331453722 
735	 0.115074145501665 
736	 0.114945075112926 
737	 0.11585098410644 
738	 0.115549235786123 
739	 0.114707308265704 
740	 0.115149411600559 
741	 0.115460347707301 
742	 0.115383494369836 
743	 0.115752917402805 
744	 0.115993639806402 
745	 0.115643590239125 
746	 0.1153658316993 
747	 0.115307009831429 
748	 0.115501301906812 
749	 0.115784674009486 
750	 0.116057380306919 
751	 0.116259484729809 
752	 0.11629144911718 
753	 0.116079000992083 
754	 0.116039368376438 
755	 0.116226160498238 
756	 0.11654843303848 
757	 0.116646220490753 
758	 0.116478585566939 
759	 0.117405540181858 
760	 0.119446582899404 
761	 0.11981044284471 
762	 0.11952245629389 
763	 0.119220166303017 
764	 0.118980042884199 
765	 0.118665915433166 
766	 0.118305012131846 
767	 0.118130554129963 
768	 0.118039511221168 
769	 0.117910933821598 
770	 0.117882669783557 
771	 0.11796764792918 
772	 0.118067289156996 
773	 0.118282628155935 
774	 0.118630458142183 
775	 0.118675324989901 
776	 0.118545780584531 
777	 0.118581399051316 
778	 0.118718611205207 
779	 0.118885573837518 
780	 0.118805992609446 
781	 0.118805811988805 
782	 0.119144027382728 
783	 0.119665766971759 
784	 0.120108985584115 
785	 0.120027827637422 
786	 0.119617196824699 
787	 0.11914101150501 
788	 0.119434229560269 
789	 0.119919765573199 
790	 0.120025919076626 
791	 0.120320952158423 
792	 0.120585720438206 
793	 0.119944122935411 
794	 0.120104499926316 
795	 0.121221074020513 
796	 0.120618402109136 
797	 0.119838767868471 
798	 0.120508032675003 
799	 0.120925546725383 
800	 0.120861996708629 
801	 0.120536348524842 
802	 0.12060119270855 
803	 0.121174574738074 
804	 0.121214843515215 
805	 0.120988627250805 
806	 0.120872763577041 
807	 0.120800184419354 
808	 0.120867958772481 
809	 0.121435212481292 
810	 0.121577272084389 
811	 0.121044903697188 
812	 0.121202789736821 
813	 0.121691854090298 
814	 0.121869526219588 
815	 0.121982286833058 
816	 0.122262036219207 
817	 0.123381314319882 
818	 0.123807171945742 
819	 0.123074672612614 
820	 0.122557146904284 
821	 0.122377242458048 
822	 0.122556012137235 
823	 0.123065707996116 
824	 0.123481207967104 
825	 0.12271483614141 
826	 0.122315044928066 
827	 0.122771979014989 
828	 0.122669767113842 
829	 0.122546482345301 
830	 0.123158460420165 
831	 0.122703510444993 
832	 0.121633820274325 
833	 0.122462260837679 
834	 0.122713980983817 
835	 0.12175147836693 
836	 0.122343966340609 
837	 0.123444244537115 
838	 0.123633986439656 
839	 0.123236723463162 
840	 0.122531775535989 
841	 0.122014252925835 
842	 0.122246499263146 
843	 0.1231513097619 
844	 0.122654875301748 
845	 0.121922070983741 
846	 0.122404478837686 
847	 0.122626067399584 
848	 0.122531191495293 
849	 0.122833552585477 
850	 0.123198310511216 
851	 0.123542249800742 
852	 0.124262724400602 
853	 0.12457122375894 
854	 0.123682116468177 
855	 0.122940262514435 
856	 0.12265034776649 
857	 0.122753151075809 
858	 0.123043234655487 
859	 0.123285802999156 
860	 0.122785572911777 
861	 0.122573892322841 
862	 0.123552553100928 
863	 0.123737112261635 
864	 0.123343484936584 
865	 0.123831977457862 
866	 0.123918004325634 
867	 0.123373002459051 
868	 0.123140501407008 
869	 0.123391480159534 
870	 0.124074341683488 
871	 0.123525058956428 
872	 0.122622579915461 
873	 0.123554812773296 
874	 0.124666524775745 
875	 0.12534793546104 
876	 0.125460071047718 
877	 0.12506574361704 
878	 0.124279568141949 
879	 0.123394478779965 
880	 0.122968321050044 
881	 0.123765435531999 
882	 0.124303405073577 
883	 0.124126958738247 
884	 0.123108254152953 
885	 0.123131403588092 
886	 0.124881210214936 
887	 0.124990465853729 
888	 0.124519487786276 
889	 0.125337377980363 
890	 0.124766223820049 
891	 0.123233858233371 
892	 0.124131472429165 
893	 0.124957053039483 
894	 0.124725973358382 
895	 0.125173504101949 
896	 0.125862090849191 
897	 0.126167683919935 
898	 0.127787695444105 
899	 0.12941892696314 
900	 0.127024751187326 
901	 0.125439536875246 
902	 0.125923354551416 
903	 0.12635462472982 
904	 0.125842127657066 
905	 0.123978668773398 
906	 0.123312614383858 
907	 0.123672254993273 
908	 0.12397182957215 
909	 0.125056138126143 
910	 0.126706418972237 
911	 0.127380542179644 
912	 0.12819565983643 
913	 0.12944569782541 
914	 0.128766609916681 
915	 0.127058330422035 
916	 0.125757184851478 
917	 0.126205923947176 
918	 0.127735409080837 
919	 0.127820871683123 
920	 0.127394904830264 
921	 0.126958019679889 
922	 0.127664969448088 
923	 0.127545467203002 
924	 0.125102113691157 
925	 0.12516861487767 
926	 0.127660951986326 
927	 0.130563603649132 
928	 0.130191857752193 
929	 0.126250363976728 
930	 0.126104870190117 
931	 0.128724463040261 
932	 0.132337922441034 
933	 0.129728425344071 
934	 0.125954278056071 
935	 0.130297474295492 
936	 0.130768411227353 
937	 0.129103855916602 
938	 0.138921398631301 
939	 0.136948476157367 
940	 0.122501510404948 
941	 0.125498637962907 
942	 0.130117642354718 
943	 0.125262512464621 
944	 0.126732798396913 
945	 0.129162282373058 
946	 0.121054967505039 
947	 0.119142936490985 
948	 0.124492288503131 
949	 0.125993893606801 
950	 0.125974052995436 
951	 0.125526077339945 
952	 0.126001844882729 
953	 0.12661980967879 
954	 0.126420957585579 
955	 0.123062229171208 
956	 0.121984441720169 
957	 0.133595766981856 
958	 0.135413380766684 
959	 0.126597256023045 
960	 0.12465042279636 
961	 0.125017014867701 
962	 0.125749786025821 
963	 0.128206408910224 
964	 0.130697372240083 
965	 0.131600884782352 
966	 0.130614772801356 
967	 0.129269252022661 
968	 0.130595896073664 
969	 0.131247109162868 
970	 0.130360328449871 
971	 0.127821305424873 
972	 0.128396297245213 
973	 0.133353087534293 
974	 0.133166203697783 
975	 0.130276077382588 
976	 0.128415111351546 
977	 0.125478345372292 
978	 0.124237023329877 
979	 0.131206233622729 
980	 0.134546942026061 
981	 0.131543285042764 
982	 0.125519896581462 
983	 0.125591103469583 
984	 0.134004504922696 
985	 0.131821302145408 
986	 0.127290483076475 
987	 0.130321423684485 
988	 0.129800311129762 
989	 0.126489522651421 
990	 0.125651029894171 
991	 0.126706943244286 
992	 0.129106129660943 
993	 0.131226614189609 
994	 0.132399660070132 
995	 0.132375968906549 
996	 0.132110058994554 
997	 0.131549772723914 
998	 0.130678956889714 
999	 0.13015434383988 
1000	 0.131651030438418 
1001	 0.13764746002726 
1002	 0.140966336624784 
1003	 0.139645704949516 
1004	 0.134012737778962 
1005	 0.128696503186375 
1006	 0.126094785606984 
1007	 0.12531115277796 
1008	 0.127866545181178 
1009	 0.133801612091173 
1010	 0.134287601009736 
1011	 0.132627207601154 
1012	 0.134885029615451 
1013	 0.133495169194011 
1014	 0.129274943407753 
1015	 0.127299599572824 
1016	 0.130679427509823 
1017	 0.137151812623886 
1018	 0.133942315738896 
1019	 0.129220925673181 
1020	 0.128680849261845 
1021	 0.134759008097713 
1022	 0.135760653251384 
1023	 0.122359755541057 
1024	 0.122749900059763 
1025	 0.129835936929703 
1026	 0.123493557211386 
1027	 0.125857446155406 
1028	 0.135807911597014 
1029	 0.135870666500802 
1030	 0.137796172700999 
1031	 0.14231615005372 
1032	 0.135849509832326 
1033	 0.12553226059418 
1034	 0.118239937904747 
1035	 0.127896950524457 
1036	 0.133390571320878 
1037	 0.114549746626087 
1038	 0.114173833977069 
1039	 0.126567682483407 
1040	 0.12926680224461 
1041	 0.125542452309893 
1042	 0.119071613287976 
1043	 0.119949401373103 
1044	 0.11614375393054 
1045	 0.106940179485348 
1046	 0.105244654641962 
1047	 0.118876837405739 
1048	 0.145327156495307 
1049	 0.145769831076848 
1050	 0.136091357216369 
1051	 0.134496232885024 
1052	 0.121170452012519 
1053	 0.116807177825303 
1054	 0.153098136694152 
1055	 0.145430464395902 
1056	 0.110476319969345 
1057	 0.142318859679831 
1058	 0.148762575729741 
1059	 0.122470319246337 
1060	 0.130867990322393 
1061	 0.13278771918659 
1062	 0.114381585065789 
1063	 0.107044284491385 
1064	 0.111767502335154 
1065	 0.123588766811224 
1066	 0.119073475232074 
1067	 0.096252929946892 
1068	 5.77576323186839E-02 
1069	 6.79528569324171E-02 
1070	 0.102386864881522 
1071	 0.108835888403999 
1072	 9.32525344165503E-02 
1073	 8.22975216051259E-02 
1074	 0.144098303299302 
1075	 0.151051600688976 
