Wavelength	AVEI200262.asd
325	 7.44374986201755E-02 
326	 7.40196992127536E-02 
327	 7.97210012194644E-02 
328	 7.53206283933541E-02 
329	 7.11391967079347E-02 
330	 7.07618921794678E-02 
331	 7.28842343812076E-02 
332	 7.24640925288426E-02 
333	 6.55446077987147E-02 
334	 6.63991426024703E-02 
335	 7.26670452011538E-02 
336	 7.40219081021273E-02 
337	 7.36682009155743E-02 
338	 0.071884113962304 
339	 0.06538993770624 
340	 0.06181734403417 
341	 0.066773325904964 
342	 7.06684414396874E-02 
343	 7.18844677388182E-02 
344	 7.05702975702137E-02 
345	 6.79957508123447E-02 
346	 6.61555744061653E-02 
347	 7.09021879872166E-02 
348	 7.32538026516333E-02 
349	 6.82250254893192E-02 
350	 6.81189630244318E-02 
351	 7.06566891656539E-02 
352	 6.96712433783538E-02 
353	 6.98530014283211E-02 
354	 7.12583956406032E-02 
355	 6.99990718484684E-02 
356	 6.88662980907079E-02 
357	 6.95270344948528E-02 
358	 7.09557905176606E-02 
359	 7.15991059152853E-02 
360	 6.93461200886867E-02 
361	 6.93449112775958E-02 
362	 7.15452221721829E-02 
363	 7.14522214201284E-02 
364	 0.070276232579501 
365	 6.88315415489248E-02 
366	 6.75887839098048E-02 
367	 6.67449284683424E-02 
368	 6.64115466360759E-02 
369	 6.85457353011641E-02 
370	 7.18728973966402E-02 
371	 7.10409500142878E-02 
372	 6.93242755469818E-02 
373	 6.87107866733354E-02 
374	 6.99517270107945E-02 
375	 7.08578057364328E-02 
376	 0.0684409208522 
377	 6.85771367332821E-02 
378	 7.09721443004328E-02 
379	 6.98529960829734E-02 
380	 6.88739299635702E-02 
381	 6.98789339090982E-02 
382	 7.23779371148808E-02 
383	 7.35862799749678E-02 
384	 7.00966691285509E-02 
385	 6.80456106484703E-02 
386	 6.82378808775178E-02 
387	 6.76433690811293E-02 
388	 6.78849417249417E-02 
389	 6.92698926140063E-02 
390	 6.96349847647056E-02 
391	 6.92829477394228E-02 
392	 0.068824551374617 
393	 6.95701724093705E-02 
394	 7.08015857861329E-02 
395	 6.95175999365748E-02 
396	 6.92285277909773E-02 
397	 7.07976242628342E-02 
398	 7.02913624749018E-02 
399	 6.88470142697086E-02 
400	 6.79434418373677E-02 
401	 6.82196619700653E-02 
402	 6.90504848716438E-02 
403	 6.84900225027974E-02 
404	 6.86634931970601E-02 
405	 7.00800513709216E-02 
406	 7.02327795648629E-02 
407	 6.97474004312402E-02 
408	 6.96637617153066E-02 
409	 6.95237813960784E-02 
410	 6.93606961453125E-02 
411	 0.069450372914314 
412	 6.97003496962906E-02 
413	 7.00177557937993E-02 
414	 7.01488031294819E-02 
415	 7.02137849857012E-02 
416	 7.03984945225584E-02 
417	 7.06929780316404E-02 
418	 7.10289897912207E-02 
419	 7.12905986692541E-02 
420	 7.10659548826125E-02 
421	 7.03674964352231E-02 
422	 7.09431408584225E-02 
423	 7.19049152161954E-02 
424	 7.16940013312026E-02 
425	 7.16313638092748E-02 
426	 7.19477916939204E-02 
427	 7.22554891745014E-02 
428	 7.24271164691712E-02 
429	 7.23871266073359E-02 
430	 7.22566403729584E-02 
431	 0.072274834723987 
432	 0.072804052514377 
433	 7.29991002649524E-02 
434	 7.28032228789148E-02 
435	 7.29046240905312E-02 
436	 7.31157344939878E-02 
437	 0.073297590957212 
438	 7.33788201428879E-02 
439	 7.34970492029071E-02 
440	 7.39329464686631E-02 
441	 0.074369886879315 
442	 7.46229957506825E-02 
443	 7.43423359953887E-02 
444	 7.42733579445697E-02 
445	 7.49897523825273E-02 
446	 7.58902282072468E-02 
447	 7.65436725556859E-02 
448	 7.62353688350362E-02 
449	 7.59544154103584E-02 
450	 7.61159127308727E-02 
451	 7.68628494430317E-02 
452	 7.74767688162388E-02 
453	 7.72675683600678E-02 
454	 7.67686455837551E-02 
455	 7.65556087451526E-02 
456	 7.79378021280397E-02 
457	 7.89116934238259E-02 
458	 7.86983447137731E-02 
459	 7.82721641296326E-02 
460	 7.79673526023705E-02 
461	 7.80741710049238E-02 
462	 7.85426811179812E-02 
463	 0.07913115180139 
464	 7.91883281448684E-02 
465	 7.92284214716824E-02 
466	 7.94554404541189E-02 
467	 7.92617117809592E-02 
468	 7.91523517565682E-02 
469	 7.99503778925192E-02 
470	 8.00271994804174E-02 
471	 7.93875419354834E-02 
472	 7.96538597028296E-02 
473	 8.00120162687416E-02 
474	 7.99645971200944E-02 
475	 7.99509581492998E-02 
476	 7.99666615514666E-02 
477	 0.079867548962795 
478	 0.080308181512102 
479	 8.11564578739795E-02 
480	 8.10763318374596E-02 
481	 8.07979635442085E-02 
482	 8.09462012018416E-02 
483	 8.12814716863135E-02 
484	 0.081662868173486 
485	 0.081812517695751 
486	 8.21635605976193E-02 
487	 8.26220413505204E-02 
488	 8.18518413583141E-02 
489	 8.11265064246668E-02 
490	 8.17449354451199E-02 
491	 8.21422590196649E-02 
492	 8.22006160546917E-02 
493	 8.25290144304114E-02 
494	 8.26121103637907E-02 
495	 8.23670926948194E-02 
496	 8.26227352442704E-02 
497	 8.33111682694786E-02 
498	 8.42382251303476E-02 
499	 8.45043315368357E-02 
500	 8.41625451759653E-02 
501	 8.41831402428212E-02 
502	 8.46567507848024E-02 
503	 8.54957449827857E-02 
504	 8.55304992163028E-02 
505	 0.085180737586227 
506	 0.085404370710221 
507	 8.55894324893053E-02 
508	 8.57033797319839E-02 
509	 8.63369267306142E-02 
510	 0.086696747616537 
511	 8.62573815550943E-02 
512	 8.66445546686893E-02 
513	 8.75944066711992E-02 
514	 8.79244839468439E-02 
515	 8.77876901250813E-02 
516	 8.73646848858612E-02 
517	 8.74843320185348E-02 
518	 8.78981742063631E-02 
519	 8.82527469569975E-02 
520	 8.86422903190422E-02 
521	 0.089007181443898 
522	 8.91873017148935E-02 
523	 8.93628687253294E-02 
524	 8.96390508484625E-02 
525	 0.090104558338636 
526	 9.05310775336159E-02 
527	 9.05843368106366E-02 
528	 9.07399943984994E-02 
529	 9.10461151954382E-02 
530	 9.11818327829688E-02 
531	 9.14295196135503E-02 
532	 9.19221095111574E-02 
533	 9.20749857478454E-02 
534	 9.19453800050589E-02 
535	 9.17795009465096E-02 
536	 9.19180668516495E-02 
537	 9.23716318042336E-02 
538	 9.25326112544079E-02 
539	 9.27112476653888E-02 
540	 9.32052766872822E-02 
541	 9.34167802977224E-02 
542	 9.34028126494115E-02 
543	 9.36264567371389E-02 
544	 9.39134853613612E-02 
545	 9.41913665508788E-02 
546	 9.44266255176991E-02 
547	 9.46578515005647E-02 
548	 9.49415839401458E-02 
549	 9.50419069255039E-02 
550	 9.50233273928778E-02 
551	 9.53162024226837E-02 
552	 9.55758680301875E-02 
553	 0.095601837541568 
554	 9.56401163452474E-02 
555	 9.58112657899702E-02 
556	 9.62645673334939E-02 
557	 0.096885014608601 
558	 9.74027179131092E-02 
559	 0.096858012715512 
560	 0.096308101137644 
561	 9.67257190324624E-02 
562	 9.71574346902721E-02 
563	 9.74155717674884E-02 
564	 0.097483488316768 
565	 9.76663422319448E-02 
566	 9.80356505532316E-02 
567	 9.81452337061893E-02 
568	 9.81631331598408E-02 
569	 9.83542761738172E-02 
570	 9.83735100454908E-02 
571	 0.098292297163834 
572	 9.86560087670785E-02 
573	 9.89042779580114E-02 
574	 0.098749227456215 
575	 9.88357132619249E-02 
576	 9.90872303688143E-02 
577	 9.91969233723716E-02 
578	 0.099338536622718 
579	 9.94967908745303E-02 
580	 9.93921601260053E-02 
581	 9.93353717255448E-02 
582	 9.95735782398596E-02 
583	 9.94826518953723E-02 
584	 9.92432869345736E-02 
585	 9.96161417144799E-02 
586	 0.100040243468248 
587	 0.100220558641437 
588	 0.099802050362438 
589	 9.94799183108603E-02 
590	 0.100192809412496 
591	 0.100476010143093 
592	 0.100186411371376 
593	 0.100079837464169 
594	 0.100265360203815 
595	 0.100719619572404 
596	 0.100599115898889 
597	 0.100176629108197 
598	 0.100115457077283 
599	 0.100224271007649 
600	 0.100417098029626 
601	 0.10055090769489 
602	 0.100481299165567 
603	 0.100152729825436 
604	 0.100540380705399 
605	 0.101173841038398 
606	 0.100330857659411 
607	 0.099865188935961 
608	 0.100364068127779 
609	 0.100468693771445 
610	 0.100430294093551 
611	 0.10071021293022 
612	 0.101057108320898 
613	 0.101215473076292 
614	 0.100545669399812 
615	 9.99232272699326E-02 
616	 9.98904020509018E-02 
617	 9.99704792189978E-02 
618	 0.100143673896761 
619	 0.100490690757149 
620	 0.100925483568853 
621	 0.101232763899891 
622	 0.100664649898737 
623	 0.10009210374162 
624	 0.10031146657804 
625	 0.100801639163714 
626	 0.101159102527037 
627	 0.100566671647905 
628	 0.100221446448097 
629	 0.100558662680199 
630	 0.100927206327306 
631	 0.101110511518819 
632	 0.100925001462162 
633	 0.100981726248619 
634	 0.101209751189169 
635	 0.100775311005807 
636	 0.100698658822668 
637	 0.10144022029364 
638	 0.101460710499511 
639	 0.101128369494749 
640	 0.10149339726934 
641	 0.10144075705817 
642	 0.100936020626718 
643	 0.101338953617253 
644	 0.101836180708803 
645	 0.101690982654535 
646	 0.101471936517199 
647	 0.101343574416041 
648	 0.101443485551644 
649	 0.101609683514053 
650	 0.101781829171824 
651	 0.102145356941686 
652	 0.102202672314088 
653	 0.10137071172202 
654	 0.101037262855329 
655	 0.101366085792032 
656	 0.101737240732797 
657	 0.101441392092961 
658	 0.100248031889234 
659	 9.95380983660366E-02 
660	 9.92721480285833E-02 
661	 9.91097376371881E-02 
662	 9.91523525549712E-02 
663	 9.93147068248673E-02 
664	 9.93163111594677E-02 
665	 9.89483894097658E-02 
666	 9.81104703889136E-02 
667	 9.76288525170666E-02 
668	 9.75157833763639E-02 
669	 9.73936921445118E-02 
670	 9.72975664562927E-02 
671	 9.72309408966429E-02 
672	 9.72578092759423E-02 
673	 9.73509517241509E-02 
674	 9.74705045393445E-02 
675	 9.74680257409363E-02 
676	 9.74061239378846E-02 
677	 0.0975659474209 
678	 9.78436443391102E-02 
679	 9.81596223805644E-02 
680	 9.83233099281395E-02 
681	 9.85522918780942E-02 
682	 9.92422643870313E-02 
683	 9.96818990237958E-02 
684	 0.099729720330831 
685	 9.96061122953167E-02 
686	 0.100042231236609 
687	 0.101593204788856 
688	 0.102182200303844 
689	 0.102083984476358 
690	 0.103004161547334 
691	 0.103688580555761 
692	 0.104001741892209 
693	 0.105189789037996 
694	 0.106158588304764 
695	 0.105751676134505 
696	 0.106119789199949 
697	 0.107101869340996 
698	 0.107064473798293 
699	 0.107133054330002 
700	 0.107683901731251 
701	 0.107499722412672 
702	 0.107157404566685 
703	 0.107604850943039 
704	 0.108150410809177 
705	 0.108530267581386 
706	 0.10848538952765 
707	 0.108282625929759 
708	 0.10816951457296 
709	 0.108636904041726 
710	 0.109275610270854 
711	 0.109222485481962 
712	 0.109055678760554 
713	 0.109013869878405 
714	 0.109315768546766 
715	 0.109635383216678 
716	 0.109706179412602 
717	 0.110359888273151 
718	 0.111348543522624 
719	 0.111087678870728 
720	 0.110860879722292 
721	 0.111018899246572 
722	 0.110535058345046 
723	 0.110287693508461 
724	 0.111334708345557 
725	 0.111308317880543 
726	 0.110457194696417 
727	 0.111475040486223 
728	 0.112389978617388 
729	 0.112206787772822 
730	 0.111311694490486 
731	 0.110667312460202 
732	 0.111449286770797 
733	 0.112034803889961 
734	 0.112149537888828 
735	 0.112254229923774 
736	 0.112238841429368 
737	 0.112053060966168 
738	 0.111927757323539 
739	 0.111818695243542 
740	 0.111558279451575 
741	 0.111469234047287 
742	 0.111601410077166 
743	 0.11170834036232 
744	 0.111776678716064 
745	 0.111825682483388 
746	 0.112185619775213 
747	 0.112635388430925 
748	 0.112508922697756 
749	 0.112426625917867 
750	 0.112572921500167 
751	 0.112654150476825 
752	 0.112636238744307 
753	 0.112520467332386 
754	 0.112684713311111 
755	 0.113058342893643 
756	 0.1132449202385 
757	 0.1132458979273 
758	 0.113105051937228 
759	 0.11327384254411 
760	 0.11415976011272 
761	 0.115735799314281 
762	 0.11647088557865 
763	 0.116235702447683 
764	 0.115993587175264 
765	 0.115526171273514 
766	 0.114928361312399 
767	 0.114666858683388 
768	 0.114605361417231 
769	 0.114596753793338 
770	 0.114476597961549 
771	 0.114289726788183 
772	 0.114334717302106 
773	 0.114582867898625 
774	 0.114977929156693 
775	 0.115269654295696 
776	 0.115344795032186 
777	 0.115059839111688 
778	 0.115120596034853 
779	 0.115584954296065 
780	 0.115779506792683 
781	 0.115396630007399 
782	 0.114375311566403 
783	 0.114552812204319 
784	 0.115580935842779 
785	 0.116115321630059 
786	 0.11601516475694 
787	 0.115425159518163 
788	 0.115563467510559 
789	 0.11589697228965 
790	 0.115891449148302 
791	 0.116161352912148 
792	 0.116557584185918 
793	 0.116489424017583 
794	 0.116266207311672 
795	 0.116089495824794 
796	 0.116380608257993 
797	 0.116712952770185 
798	 0.116658439504964 
799	 0.116854222299184 
800	 0.117144353571469 
801	 0.116685767607408 
802	 0.116740406564159 
803	 0.117472030012214 
804	 0.116751445521616 
805	 0.116050800493134 
806	 0.117015632654827 
807	 0.117565608106653 
808	 0.117495182437748 
809	 0.117519119275281 
810	 0.117355002584567 
811	 0.117032562048166 
812	 0.117364563376559 
813	 0.117865675143155 
814	 0.117798329990775 
815	 0.118045770955963 
816	 0.118741368478337 
817	 0.11960108364918 
818	 0.120095666544852 
819	 0.119996530385385 
820	 0.119520196047757 
821	 0.11911170350742 
822	 0.119245378211743 
823	 0.119020744594172 
824	 0.118318281909002 
825	 0.117075095415319 
826	 0.117533360889801 
827	 0.120010750240964 
828	 0.119955003644703 
829	 0.118775452413686 
830	 0.118752664843727 
831	 0.119472358047116 
832	 0.120453369539464 
833	 0.120786599385045 
834	 0.119586359995848 
835	 0.117147090917957 
836	 0.117162598322368 
837	 0.118572082959529 
838	 0.119767699138498 
839	 0.119352830980627 
840	 0.118023797370764 
841	 0.118834898308167 
842	 0.119286561674357 
843	 0.118480690837392 
844	 0.117600438477572 
845	 0.117476374024068 
846	 0.118812351236737 
847	 0.119248010017237 
848	 0.118751764634957 
849	 0.118818956638711 
850	 0.118895595730474 
851	 0.118791616590927 
852	 0.118269581946142 
853	 0.118911087694741 
854	 0.122022227218384 
855	 0.12093292101904 
856	 0.117264001891032 
857	 0.118494906683983 
858	 0.119609874947358 
859	 0.119138861525633 
860	 0.118277122991393 
861	 0.118097219198823 
862	 0.119435049704173 
863	 0.120137244648316 
864	 0.120174475020589 
865	 0.120634486864788 
866	 0.120012874864891 
867	 0.118373277784808 
868	 0.118092995868851 
869	 0.119200516657759 
870	 0.121273241717027 
871	 0.121044393161511 
872	 0.119241126083294 
873	 0.11819999620509 
874	 0.119054655544356 
875	 0.121209404974251 
876	 0.120478186414042 
877	 0.119377400860898 
878	 0.119720887214679 
879	 0.120575039503344 
880	 0.121022519184162 
881	 0.119802408909834 
882	 0.118543901791915 
883	 0.117963375007214 
884	 0.118612991431773 
885	 0.119863062400605 
886	 0.121083570968793 
887	 0.121165853822928 
888	 0.120296331760056 
889	 0.118945254345148 
890	 0.118672777132437 
891	 0.119590183469947 
892	 0.120891228780359 
893	 0.120532425602452 
894	 0.118139039481802 
895	 0.119026123903472 
896	 0.120428492576592 
897	 0.11871402167252 
898	 0.119748080462306 
899	 0.122610663444286 
900	 0.121773039228852 
901	 0.121994545457454 
902	 0.123935970995134 
903	 0.123300876187795 
904	 0.122694036843669 
905	 0.123958874883988 
906	 0.12353492763139 
907	 0.122598671438544 
908	 0.124257148808253 
909	 0.123433704737853 
910	 0.120182760598384 
911	 0.120591353652333 
912	 0.12234986784145 
913	 0.123688990158399 
914	 0.12275182650356 
915	 0.120957689892461 
916	 0.120298361468982 
917	 0.120843365876777 
918	 0.121887960930354 
919	 0.121706691201724 
920	 0.12005756838239 
921	 0.118056156999035 
922	 0.122079067952683 
923	 0.12467009858494 
924	 0.119670044113296 
925	 0.118861070858235 
926	 0.122387458254099 
927	 0.125886143516692 
928	 0.126879389761655 
929	 0.124769270837048 
930	 0.124188537624721 
931	 0.122802500431005 
932	 0.119880101452617 
933	 0.125840323749284 
934	 0.133178715521485 
935	 0.128008523261851 
936	 0.12275450320969 
937	 0.120870021959147 
938	 0.122988782248149 
939	 0.124933987564201 
940	 0.125600362467174 
941	 0.126833380896366 
942	 0.129573945010658 
943	 0.133306471982007 
944	 0.1281973738564 
945	 0.122004058487416 
946	 0.129278657395435 
947	 0.127657286348397 
948	 0.117536442116215 
949	 0.117682590719062 
950	 0.124273167796526 
951	 0.132495707396143 
952	 0.128662958321727 
953	 0.122412676106616 
954	 0.123118216402159 
955	 0.124992086969396 
956	 0.126533562623238 
957	 0.126732722922426 
958	 0.125699458721967 
959	 0.123920913527056 
960	 0.121742466746427 
961	 0.125053904082618 
962	 0.133442812517566 
963	 0.129227028959997 
964	 0.125239752711625 
965	 0.133708661188775 
966	 0.136518862159667 
967	 0.131944311808836 
968	 0.122119834982758 
969	 0.116203389698278 
970	 0.117072119890109 
971	 0.125227769986245 
972	 0.125938896714527 
973	 0.114605242635001 
974	 0.117602314407248 
975	 0.125055762784027 
976	 0.123872234676719 
977	 0.128125818911352 
978	 0.13494788427368 
979	 0.13340764910741 
980	 0.126268665748263 
981	 0.117688815564967 
982	 0.119508060840921 
983	 0.121612309962398 
984	 0.119854663380666 
985	 0.125417864638304 
986	 0.130295412239623 
987	 0.12583493123452 
988	 0.121887024780668 
989	 0.121759890688901 
990	 0.128694514642188 
991	 0.126284850387319 
992	 0.115655735478259 
993	 0.119056857484129 
994	 0.122171271850355 
995	 0.119263784194073 
996	 0.122677406842365 
997	 0.124803819125435 
998	 0.118517477716395 
999	 0.118126289464567 
1000	 0.122356898451546 
1001	 0.12465687896441 
1002	 0.128453924854993 
1003	 0.132267724341864 
1004	 0.129547732887276 
1005	 0.125808298569086 
1006	 0.123544798327801 
1007	 0.121321807545338 
1008	 0.123607323862088 
1009	 0.131727325516764 
1010	 0.126108210299043 
1011	 0.119202476762332 
1012	 0.130475422325255 
1013	 0.126508261264159 
1014	 0.112485375421094 
1015	 0.119568641635358 
1016	 0.123356944274091 
1017	 0.120246325509202 
1018	 0.12816631332981 
1019	 0.129684617287634 
1020	 0.118115003748744 
1021	 0.116412087693384 
1022	 0.124991219106685 
1023	 0.139627201310229 
1024	 0.13345829070713 
1025	 0.117531344410044 
1026	 0.118716425599985 
1027	 0.132050933702821 
1028	 0.14608693980137 
1029	 0.129189420391377 
1030	 0.132359545778378 
1031	 0.159695721655566 
1032	 0.146774705786491 
1033	 0.126554915725887 
1034	 0.121947064440184 
1035	 0.119792794095657 
1036	 0.121739957063525 
1037	 0.129671697782764 
1038	 0.139378704763942 
1039	 0.142257153219822 
1040	 0.125049014785492 
1041	 0.130183742458233 
1042	 0.152266468733665 
1043	 0.143849613904296 
1044	 0.133328040503067 
1045	 0.128656887218425 
1046	 0.11522536741345 
1047	 0.112843623069009 
1048	 0.128878206063855 
1049	 0.12546683438753 
1050	 0.120417477511205 
1051	 0.132111752829545 
1052	 0.134328513297453 
1053	 0.130793531568948 
1054	 0.132131541417562 
1055	 0.124518773606904 
1056	 0.113317114714982 
1057	 0.114633192103033 
1058	 0.124505580972551 
1059	 0.130163422894426 
1060	 8.37061096297597E-02 
1061	 6.31854238877261E-02 
1062	 9.78438915919896E-02 
1063	 0.143011597329495 
1064	 0.164177271821801 
1065	 0.140261620157601 
1066	 0.137083003019212 
1067	 0.142019328364551 
1068	 0.133518658916688 
1069	 0.120413857140986 
1070	 0.110839406564695 
1071	 0.111753270832007 
1072	 0.126462876584663 
1073	 0.153005901770531 
1074	 0.18916462379785 
1075	 0.183243247502285 
