Wavelength	AVEI200128.asd
325	 2.88529299215085E-02 
326	 2.71075083936647E-02 
327	 2.78375277494192E-02 
328	 2.85987084610234E-02 
329	 3.15841388647699E-02 
330	 3.62372086619611E-02 
331	 3.72452736553623E-02 
332	 0.035304762189044 
333	 3.17391963846286E-02 
334	 3.38417830695632E-02 
335	 3.85046745134156E-02 
336	 3.63075271746127E-02 
337	 3.05311893695799E-02 
338	 2.51303976236946E-02 
339	 3.31306199244557E-02 
340	 3.98679175026426E-02 
341	 0.03431610596573 
342	 3.10458091612287E-02 
343	 3.16562022591008E-02 
344	 3.49632601025694E-02 
345	 3.47542237249622E-02 
346	 3.11591174812847E-02 
347	 0.031730308629985 
348	 3.35805432072407E-02 
349	 3.42894296299718E-02 
350	 3.17793443375992E-02 
351	 2.86114216422392E-02 
352	 2.89847660411989E-02 
353	 3.10088840284472E-02 
354	 3.33537576118098E-02 
355	 3.34383119737087E-02 
356	 3.23391414762322E-02 
357	 3.11110174111132E-02 
358	 3.22918928757941E-02 
359	 3.38119519123761E-02 
360	 3.21988007253513E-02 
361	 3.12874681928782E-02 
362	 3.15795823180719E-02 
363	 3.12527777278599E-02 
364	 3.16187859593246E-02 
365	 3.30021213850934E-02 
366	 3.30107960566428E-02 
367	 3.21129444288314E-02 
368	 0.031250335507598 
369	 3.03279272530155E-02 
370	 0.029830264494514 
371	 3.13463676337243E-02 
372	 0.032192124214419 
373	 3.11326998398882E-02 
374	 3.05833469388097E-02 
375	 3.04367761424851E-02 
376	 3.01746242706835E-02 
377	 2.97129853344397E-02 
378	 0.029165540728346 
379	 2.88859431904091E-02 
380	 2.92875231989347E-02 
381	 3.03675343138157E-02 
382	 3.08552047164877E-02 
383	 3.08823860071395E-02 
384	 3.07915847030757E-02 
385	 3.03666329508295E-02 
386	 2.96272928249354E-02 
387	 2.86277636325931E-02 
388	 2.81344448709749E-02 
389	 0.028353703690716 
390	 2.81215664946972E-02 
391	 2.79852497482488E-02 
392	 2.86690870874648E-02 
393	 2.95963383719595E-02 
394	 3.01170428509799E-02 
395	 2.87457547251131E-02 
396	 2.80241341230666E-02 
397	 2.87778986106668E-02 
398	 2.90770426106159E-02 
399	 2.87500602360813E-02 
400	 2.78729891687547E-02 
401	 0.027891685818543 
402	 2.85073996963845E-02 
403	 2.83265012210227E-02 
404	 2.82408076175943E-02 
405	 2.83974586018009E-02 
406	 2.73105065843669E-02 
407	 2.64146051163784E-02 
408	 2.75491172667175E-02 
409	 2.79031757371251E-02 
410	 2.73825897871907E-02 
411	 2.76880854456508E-02 
412	 2.77835945872009E-02 
413	 2.73349896098931E-02 
414	 2.74430440330411E-02 
415	 2.77239873168505E-02 
416	 0.027563526163698 
417	 2.73133176839953E-02 
418	 2.71662929892371E-02 
419	 2.74986619460945E-02 
420	 2.76372647868235E-02 
421	 0.027283773418717 
422	 2.71292918594227E-02 
423	 2.71528106607882E-02 
424	 2.72114367942211E-02 
425	 2.69802857650152E-02 
426	 2.65933074508864E-02 
427	 2.68258380264952E-02 
428	 2.72264874542233E-02 
429	 2.74790985262664E-02 
430	 2.76607109406076E-02 
431	 2.76866074548221E-02 
432	 2.74123965747967E-02 
433	 2.72740170112959E-02 
434	 2.72795719969803E-02 
435	 2.69374458950983E-02 
436	 2.66669497717634E-02 
437	 2.67263226396781E-02 
438	 2.67870596194666E-02 
439	 2.67945853261448E-02 
440	 2.67332040101783E-02 
441	 2.67536635236569E-02 
442	 2.68696298817685E-02 
443	 2.69370961102767E-02 
444	 2.69155501565163E-02 
445	 2.68117571873311E-02 
446	 2.70988773208439E-02 
447	 2.74339925111163E-02 
448	 2.68071889257447E-02 
449	 2.67051589695964E-02 
450	 2.73843069591045E-02 
451	 2.74172693328242E-02 
452	 2.72227225414401E-02 
453	 2.72848724901339E-02 
454	 2.73713401671508E-02 
455	 2.73724502038708E-02 
456	 2.70592246152796E-02 
457	 2.69035991299025E-02 
458	 2.70921442329351E-02 
459	 2.74195321479052E-02 
460	 2.76391222136731E-02 
461	 2.74939085959343E-02 
462	 2.72720350774582E-02 
463	 2.71079896770715E-02 
464	 2.71821910387549E-02 
465	 2.72060609672095E-02 
466	 2.70193990703755E-02 
467	 2.66131583666165E-02 
468	 2.64090212794553E-02 
469	 2.70084982901372E-02 
470	 2.71813588862847E-02 
471	 0.026862547596026 
472	 2.70776294941697E-02 
473	 0.027359702155415 
474	 2.74000123687335E-02 
475	 2.72814802025258E-02 
476	 2.70749008034657E-02 
477	 2.68646568567806E-02 
478	 2.69257355083732E-02 
479	 2.71923761767278E-02 
480	 2.70508594427509E-02 
481	 2.67455438770006E-02 
482	 2.65238349297238E-02 
483	 2.67131052492528E-02 
484	 2.71116695093028E-02 
485	 2.70559798666352E-02 
486	 2.73373090735188E-02 
487	 2.79872792093584E-02 
488	 0.027641710227532 
489	 2.71643591962765E-02 
490	 2.74882208881191E-02 
491	 2.76645168605449E-02 
492	 0.02759203281492 
493	 2.74988333784567E-02 
494	 2.74415942639724E-02 
495	 2.74672749760409E-02 
496	 0.027608407650276 
497	 2.77684126748438E-02 
498	 2.78229022866008E-02 
499	 2.79111116950166E-02 
500	 2.80976919013206E-02 
501	 2.85309161317385E-02 
502	 2.87001236004356E-02 
503	 2.83754443338823E-02 
504	 2.83185422125691E-02 
505	 2.86417514848223E-02 
506	 2.93674789150889E-02 
507	 2.98258078145805E-02 
508	 2.98862652389952E-02 
509	 2.99115964474325E-02 
510	 3.01451057450683E-02 
511	 3.07278827304843E-02 
512	 3.10514206132352E-02 
513	 3.11456991678984E-02 
514	 3.12960917377611E-02 
515	 3.16530963866841E-02 
516	 3.22456018411041E-02 
517	 3.28194943518751E-02 
518	 3.32592770079042E-02 
519	 3.34777563696951E-02 
520	 3.38342548281184E-02 
521	 3.44288303959487E-02 
522	 3.53759644527885E-02 
523	 3.60476632549515E-02 
524	 3.62022547621391E-02 
525	 3.63398403731449E-02 
526	 3.66759886156357E-02 
527	 3.74272634745446E-02 
528	 3.78934221958688E-02 
529	 3.80507974932406E-02 
530	 3.85316429336215E-02 
531	 3.90689480388991E-02 
532	 3.94812149765238E-02 
533	 3.98312878477645E-02 
534	 4.00940769410541E-02 
535	 0.040189893231724 
536	 0.040409683874199 
537	 4.07867831524947E-02 
538	 4.09763525663313E-02 
539	 4.11185056481297E-02 
540	 4.13598094840324E-02 
541	 4.16037359404113E-02 
542	 4.18161562421039E-02 
543	 4.19297216426648E-02 
544	 0.042192401214806 
545	 4.26391601630447E-02 
546	 4.27888356075587E-02 
547	 4.28000025900336E-02 
548	 4.29348761748832E-02 
549	 4.32282116835733E-02 
550	 4.35780581107033E-02 
551	 4.35955897279215E-02 
552	 4.35934327137118E-02 
553	 4.37634660853049E-02 
554	 4.39322049326515E-02 
555	 4.40621899542147E-02 
556	 4.41337795025632E-02 
557	 4.41440524696594E-02 
558	 4.41007974566861E-02 
559	 4.40150875219573E-02 
560	 4.40282273873955E-02 
561	 4.42453778776945E-02 
562	 4.43267550060523E-02 
563	 0.044229827317179 
564	 4.40188803408899E-02 
565	 4.38406019807718E-02 
566	 4.37327821914601E-02 
567	 4.34531082972793E-02 
568	 4.31341351048447E-02 
569	 4.29691241671754E-02 
570	 4.28223817923174E-02 
571	 4.26837116478112E-02 
572	 4.26785301671332E-02 
573	 4.24525450427247E-02 
574	 4.18602229276081E-02 
575	 4.16295190106388E-02 
576	 4.16223998651279E-02 
577	 4.13979791998386E-02 
578	 4.11585791551195E-02 
579	 4.09836666746677E-02 
580	 4.09459092524084E-02 
581	 4.10108815940899E-02 
582	 4.11108939048925E-02 
583	 4.07929412982662E-02 
584	 0.040289891487589 
585	 0.04043304539717 
586	 0.040474884666258 
587	 4.01960907254143E-02 
588	 4.02419167899412E-02 
589	 0.040295244293916 
590	 3.98789273125562E-02 
591	 3.97239632501033E-02 
592	 3.98489478288849E-02 
593	 3.96681477888441E-02 
594	 3.95948981324584E-02 
595	 3.98127974708748E-02 
596	 0.039802378300649 
597	 0.039538602904256 
598	 3.90692297903522E-02 
599	 3.89840086559134E-02 
600	 3.93283415627013E-02 
601	 3.93784589586532E-02 
602	 0.039312246462125 
603	 3.93088719571936E-02 
604	 3.92810841086067E-02 
605	 3.92657138381957E-02 
606	 3.94377709166116E-02 
607	 3.93235958222604E-02 
608	 3.88263883790511E-02 
609	 3.86295639051878E-02 
610	 3.86334274024801E-02 
611	 0.038626596502542 
612	 0.038411882171691 
613	 3.80400263052743E-02 
614	 3.78702769052491E-02 
615	 0.037759469310539 
616	 3.76335169157995E-02 
617	 3.76216292290475E-02 
618	 3.76200515680902E-02 
619	 3.74166007255128E-02 
620	 3.73674770891806E-02 
621	 0.037439479607191 
622	 3.69719305469543E-02 
623	 3.65870222155882E-02 
624	 3.68369634096845E-02 
625	 3.71073338797465E-02 
626	 3.72339666288958E-02 
627	 3.71161474092537E-02 
628	 3.70241694415134E-02 
629	 3.70626237779781E-02 
630	 3.70845670575924E-02 
631	 3.70873675450719E-02 
632	 0.037083337726543 
633	 3.71245961919634E-02 
634	 3.71818595244514E-02 
635	 3.71602427053573E-02 
636	 3.69628757356552E-02 
637	 3.65505392479934E-02 
638	 3.60778784023731E-02 
639	 3.57148025788387E-02 
640	 3.57229466626753E-02 
641	 3.56107038858671E-02 
642	 3.52404380306811E-02 
643	 3.47782524024577E-02 
644	 3.43433808366291E-02 
645	 3.40252572796545E-02 
646	 3.36164748803702E-02 
647	 3.32285943194645E-02 
648	 3.32918965223293E-02 
649	 3.31915629002661E-02 
650	 3.27945475072657E-02 
651	 3.28800588467194E-02 
652	 0.033121515641142 
653	 3.30603182724187E-02 
654	 3.27143788124479E-02 
655	 3.22903236907851E-02 
656	 3.25986453258327E-02 
657	 3.27352959821749E-02 
658	 3.22297855011017E-02 
659	 3.18861302069206E-02 
660	 3.16678536203796E-02 
661	 3.13445131018314E-02 
662	 3.13136374071135E-02 
663	 3.15034083422026E-02 
664	 3.11744567265897E-02 
665	 3.06404413385966E-02 
666	 3.02143829370784E-02 
667	 3.01549208791653E-02 
668	 3.02831544761078E-02 
669	 3.00161839341367E-02 
670	 2.98890385544527E-02 
671	 3.00062367486414E-02 
672	 2.98010793550214E-02 
673	 2.96064979004964E-02 
674	 0.029840424187806 
675	 3.00981580784375E-02 
676	 3.02406431263505E-02 
677	 3.01180002236268E-02 
678	 3.01677789779954E-02 
679	 3.05902872995445E-02 
680	 3.09249026807242E-02 
681	 3.11981622237458E-02 
682	 3.15510415656131E-02 
683	 3.18153069565306E-02 
684	 3.20819144518804E-02 
685	 3.28704444973446E-02 
686	 3.39326552876644E-02 
687	 3.50169108356586E-02 
688	 3.59692197762574E-02 
689	 3.68765928974743E-02 
690	 3.81910639398944E-02 
691	 3.96288494786767E-02 
692	 4.11627499625943E-02 
693	 4.28274068217878E-02 
694	 4.48435737848025E-02 
695	 4.73120984798602E-02 
696	 4.95578758122663E-02 
697	 5.16250637428402E-02 
698	 5.41145419303484E-02 
699	 5.68801223345023E-02 
700	 5.97583744488549E-02 
701	 0.062342782975739 
702	 6.48433785057741E-02 
703	 6.76234983001908E-02 
704	 7.05866457719816E-02 
705	 7.35763416697071E-02 
706	 7.59976218405357E-02 
707	 0.078524876626113 
708	 8.15530219425809E-02 
709	 8.45309397053424E-02 
710	 8.72857202593022E-02 
711	 8.96602171011283E-02 
712	 9.22206158060272E-02 
713	 9.49403548162624E-02 
714	 0.09690252133065 
715	 9.86703131554667E-02 
716	 0.100884266622531 
717	 0.102790529653007 
718	 0.104637713415755 
719	 0.107381299626735 
720	 0.109819252922778 
721	 0.111436065627773 
722	 0.112835409799637 
723	 0.114249296750953 
724	 0.11576646226913 
725	 0.117345119946314 
726	 0.118824021288154 
727	 0.120170392351161 
728	 0.121398527754478 
729	 0.122560998147301 
730	 0.123951981996128 
731	 0.125278711743385 
732	 0.126107571517942 
733	 0.126903391642592 
734	 0.127787114336762 
735	 0.128625928614875 
736	 0.129735542490085 
737	 0.131179440100062 
738	 0.131911928401383 
739	 0.132238235107588 
740	 0.1330103592441 
741	 0.133564117265577 
742	 0.133878567212442 
743	 0.134691535003525 
744	 0.135497914952642 
745	 0.135887955362464 
746	 0.136390786641992 
747	 0.137000546979233 
748	 0.137496745282269 
749	 0.137940883464721 
750	 0.138338082922758 
751	 0.138611399295007 
752	 0.138973844131103 
753	 0.139629501279179 
754	 0.139982906132807 
755	 0.140122769216971 
756	 0.14067518925389 
757	 0.1412295214459 
758	 0.141584780490559 
759	 0.141288732243437 
760	 0.140833569629461 
761	 0.142317361337486 
762	 0.14256204063603 
763	 0.141751655507501 
764	 0.14262596719467 
765	 0.14359339464207 
766	 0.144097371220578 
767	 0.144675486182829 
768	 0.145153947308495 
769	 0.145257965935542 
770	 0.145513679331713 
771	 0.14600668368102 
772	 0.146591407998462 
773	 0.146937848175546 
774	 0.146888299562404 
775	 0.147124574803599 
776	 0.147622507995993 
777	 0.148159093949547 
778	 0.148655934345742 
779	 0.148986610628435 
780	 0.148791878419991 
781	 0.148787360278474 
782	 0.149494231707838 
783	 0.150068982509971 
784	 0.150331340123848 
785	 0.150188672776181 
786	 0.150319016016469 
787	 0.150789662252181 
788	 0.150585621904784 
789	 0.150479659552137 
790	 0.151169626692269 
791	 0.151433120496499 
792	 0.151345139297827 
793	 0.151670866193957 
794	 0.151940707862995 
795	 0.152020594878628 
796	 0.151983917797406 
797	 0.152265793196394 
798	 0.153215898755422 
799	 0.15343928118865 
800	 0.153095109311717 
801	 0.153399098523471 
802	 0.153644944864101 
803	 0.153704855263478 
804	 0.154342808627006 
805	 0.154993177759706 
806	 0.155032713091343 
807	 0.155214010236627 
808	 0.155559672320732 
809	 0.15563610018587 
810	 0.155916785872223 
811	 0.156447467176927 
812	 0.15614416710986 
813	 0.15554130546507 
814	 0.155501291991354 
815	 0.156142372406201 
816	 0.157183355732792 
817	 0.157557204356377 
818	 0.157988236396893 
819	 0.158715103111717 
820	 0.159358645821158 
821	 0.159619034022898 
822	 0.159198285321507 
823	 0.159429932205096 
824	 0.160390802377307 
825	 0.161443759459468 
826	 0.162117828508343 
827	 0.162188977085748 
828	 0.161697653021619 
829	 0.161290054981468 
830	 0.161722565854166 
831	 0.162329547305109 
832	 0.162970725402693 
833	 0.163847798546747 
834	 0.164111397085441 
835	 0.163559213535169 
836	 0.163127277627589 
837	 0.163568483391112 
838	 0.165527236044925 
839	 0.166605483062797 
840	 0.16648299865683 
841	 0.165772118089626 
842	 0.165671179238026 
843	 0.166545680261372 
844	 0.166829149255893 
845	 0.166852660160734 
846	 0.167121416438913 
847	 0.167150176759498 
848	 0.166964215110961 
849	 0.166791997945972 
850	 0.167233070786884 
851	 0.168273693346228 
852	 0.16816023914018 
853	 0.167808851087686 
854	 0.168332079784864 
855	 0.169158471424978 
856	 0.169733664557693 
857	 0.168967468457966 
858	 0.1683391456819 
859	 0.168327304037745 
860	 0.168291048438189 
861	 0.168694457555704 
862	 0.169885276377983 
863	 0.170044866395253 
864	 0.16959566899678 
865	 0.170492517841588 
866	 0.170393937116242 
867	 0.169174918952672 
868	 0.170010271579537 
869	 0.17124113028799 
870	 0.171497118762696 
871	 0.172355345262501 
872	 0.173367593119601 
873	 0.173262383786041 
874	 0.172883675463657 
875	 0.172800336059531 
876	 0.174092238324049 
877	 0.17547129849158 
878	 0.176038648065315 
879	 0.176715529923227 
880	 0.177216536230416 
881	 0.176873593307661 
882	 0.177818023490457 
883	 0.179800238865369 
884	 0.179923249529282 
885	 0.179211806103184 
886	 0.178604008014726 
887	 0.180261083969314 
888	 0.182221295955781 
889	 0.181626773969429 
890	 0.181260704914309 
891	 0.18123682218006 
892	 0.179367909302072 
893	 0.179782798554277 
894	 0.183386186411736 
895	 0.182004627472948 
896	 0.179240376051723 
897	 0.180257926527949 
898	 0.181291902537027 
899	 0.1821001288298 
900	 0.184028215288996 
901	 0.185803066765445 
902	 0.186759165691289 
903	 0.186384510825168 
904	 0.184707453694831 
905	 0.182326016919713 
906	 0.184140456859592 
907	 0.187787540385717 
908	 0.187857390734811 
909	 0.186260097623754 
910	 0.18399017958627 
911	 0.182631101091938 
912	 0.18283493528406 
913	 0.18455986898762 
914	 0.184909468305481 
915	 0.184882005427921 
916	 0.186017339492098 
917	 0.185934312749625 
918	 0.184988081053865 
919	 0.185400202640381 
920	 0.185636074133019 
921	 0.185574417197317 
922	 0.18745523040083 
923	 0.1886167093982 
924	 0.186844070830425 
925	 0.186725928872223 
926	 0.18752693481563 
927	 0.185802282407048 
928	 0.183283514747536 
929	 0.180708514464871 
930	 0.17852999695632 
931	 0.17787240814413 
932	 0.179213840852364 
933	 0.17805711927418 
934	 0.173962903100804 
935	 0.168212456315026 
936	 0.171405188290466 
937	 0.179233110807687 
938	 0.174393907739774 
939	 0.167846409657605 
940	 0.163957243694457 
941	 0.164940414631723 
942	 0.166378263545698 
943	 0.165167555174398 
944	 0.163313800054386 
945	 0.164888456688681 
946	 0.175622640240317 
947	 0.177111083794052 
948	 0.169129283975503 
949	 0.167841121998665 
950	 0.165149956308219 
951	 0.159342423821151 
952	 0.159762474298198 
953	 0.160959573351928 
954	 0.157817203092339 
955	 0.155699026268893 
956	 0.154623412038873 
957	 0.15286699240112 
958	 0.155768527335629 
959	 0.161325096154739 
960	 0.159761906075638 
961	 0.155468988841333 
962	 0.152016592903177 
963	 0.155021703740397 
964	 0.159655370214751 
965	 0.16109546648866 
966	 0.161108087599714 
967	 0.159730255184621 
968	 0.156285330335204 
969	 0.155971850520583 
970	 0.158900778949322 
971	 0.159954791744339 
972	 0.159278523152259 
973	 0.157186117452645 
974	 0.154573292192951 
975	 0.155413940213833 
976	 0.162954236204648 
977	 0.163095026937348 
978	 0.158011614701115 
979	 0.158389603426704 
980	 0.158553407943631 
981	 0.158127795058185 
982	 0.161610096912328 
983	 0.163749997761564 
984	 0.161942410537302 
985	 0.158304075334632 
986	 0.158026224131913 
987	 0.165498684326094 
988	 0.168289713190562 
989	 0.166558286252876 
990	 0.165392148811183 
991	 0.161413669659702 
992	 0.15764853511804 
993	 0.167478838903973 
994	 0.174859844830106 
995	 0.172337224921634 
996	 0.168644425154197 
997	 0.167522880864043 
998	 0.17109268642502 
999	 0.168297185990145 
1000	 0.163443631681602 
1001	 0.167072004396739 
1002	 0.172663730273276 
1003	 0.176473303978413 
1004	 0.172952691700935 
1005	 0.168250313753625 
1006	 0.166672839994573 
1007	 0.173985076949101 
1008	 0.180728217579117 
1009	 0.179841147077167 
1010	 0.179451250351289 
1011	 0.178416816729868 
1012	 0.174106071884652 
1013	 0.175202657189975 
1014	 0.180694065360493 
1015	 0.184000611805426 
1016	 0.180597379246639 
1017	 0.172598527026854 
1018	 0.175501050277929 
1019	 0.179189119450597 
1020	 0.178362259270936 
1021	 0.179497458594256 
1022	 0.179278026711122 
1023	 0.175232200638969 
1024	 0.181882403803354 
1025	 0.190420572834154 
1026	 0.182936267956709 
1027	 0.174663418784381 
1028	 0.172512729519869 
1029	 0.185942693675018 
1030	 0.187415539980139 
1031	 0.174156976629284 
1032	 0.183481481366911 
1033	 0.192495925579742 
1034	 0.187741100839841 
1035	 0.187743830452967 
1036	 0.187148221983303 
1037	 0.180164616007921 
1038	 0.18728726951826 
1039	 0.197541695368577 
1040	 0.187393488625603 
1041	 0.184537807819182 
1042	 0.191116026432114 
1043	 0.191884861390848 
1044	 0.190067133129117 
1045	 0.189640289250268 
1046	 0.20589559756205 
1047	 0.206969501037952 
1048	 0.181649110765643 
1049	 0.183556038845526 
1050	 0.19463956850449 
1051	 0.192562419740699 
1052	 0.183082661462558 
1053	 0.176642283477551 
1054	 0.187546382323388 
1055	 0.177865159746909 
1056	 0.160065335312442 
1057	 0.186842063756106 
1058	 0.193776562287582 
1059	 0.176571263551556 
1060	 0.197126208449212 
1061	 0.21220404611376 
1062	 0.201874514585694 
1063	 0.166786720581789 
1064	 0.153394330339132 
1065	 0.18565277020289 
1066	 0.182122331173316 
1067	 0.167055954393026 
1068	 0.175451048284337 
1069	 0.180906734634825 
1070	 0.185631198135285 
1071	 0.199616686325113 
1072	 0.201897554518592 
1073	 0.190667168587479 
1074	 0.173392069677458 
1075	 0.172613865630482 
