Wavelength	AVEI200150.asd
325	 4.80012390253539E-02 
326	 4.47524626590952E-02 
327	 3.88032171129878E-02 
328	 3.61603426322138E-02 
329	 3.62607248035026E-02 
330	 3.85597923573841E-02 
331	 0.041755441902653 
332	 4.43652477983457E-02 
333	 4.50981666295457E-02 
334	 4.37062892003513E-02 
335	 4.16636289930714E-02 
336	 0.042867393914111 
337	 3.97450133208778E-02 
338	 3.29381238425302E-02 
339	 3.62555754489535E-02 
340	 4.13265876546309E-02 
341	 4.10203312920221E-02 
342	 3.71835265970061E-02 
343	 0.033856350433694 
344	 0.037993512437779 
345	 4.07438016528926E-02 
346	 4.02298275344722E-02 
347	 3.93086028629012E-02 
348	 3.93260044072682E-02 
349	 0.040558430114042 
350	 3.74185083254185E-02 
351	 3.34548765736369E-02 
352	 3.51368649930753E-02 
353	 3.75014356965413E-02 
354	 3.88487193061531E-02 
355	 3.79447399281179E-02 
356	 3.72819652759174E-02 
357	 3.82200913740333E-02 
358	 0.03885629383184 
359	 3.88447319589644E-02 
360	 3.80547939876275E-02 
361	 3.72568083435521E-02 
362	 3.67083474209395E-02 
363	 3.62686079876267E-02 
364	 3.67300370051829E-02 
365	 3.80282442309863E-02 
366	 3.70317405686491E-02 
367	 3.53712430898043E-02 
368	 3.55776730350833E-02 
369	 3.56606669168009E-02 
370	 3.53751495355647E-02 
371	 3.54207984332755E-02 
372	 3.56413118648301E-02 
373	 3.57930228798223E-02 
374	 3.48112530947656E-02 
375	 3.36845442649145E-02 
376	 3.38608727413224E-02 
377	 0.033240807922116 
378	 3.22383596579322E-02 
379	 0.033950257207503 
380	 3.50158651822798E-02 
381	 3.40989063400694E-02 
382	 0.034593986717172 
383	 3.54636484139612E-02 
384	 3.49972348457525E-02 
385	 3.43832406421064E-02 
386	 3.40665630608939E-02 
387	 3.45404556370593E-02 
388	 3.46392374017235E-02 
389	 3.39968241879876E-02 
390	 3.39452171552823E-02 
391	 3.41042975203071E-02 
392	 0.033912543221913 
393	 3.40272415744088E-02 
394	 0.03435174828246 
395	 3.42170940804982E-02 
396	 3.42700579763107E-02 
397	 3.46175784465145E-02 
398	 3.42874562257894E-02 
399	 3.37826726372993E-02 
400	 3.36772402001079E-02 
401	 3.34771778341559E-02 
402	 3.31012691946604E-02 
403	 3.24079079028746E-02 
404	 3.25015647521058E-02 
405	 3.34443262213788E-02 
406	 3.26279767071529E-02 
407	 3.16112907173178E-02 
408	 3.25267373956618E-02 
409	 3.30289655039208E-02 
410	 3.27815917673981E-02 
411	 3.23817355305359E-02 
412	 0.032064690177727 
413	 3.19939563183874E-02 
414	 3.23352204736482E-02 
415	 3.25306819364216E-02 
416	 3.18738795755496E-02 
417	 3.18378691038199E-02 
418	 3.23507270615412E-02 
419	 3.20125052566403E-02 
420	 3.18894809453419E-02 
421	 0.032437413675261 
422	 3.25671950942614E-02 
423	 3.24667487033526E-02 
424	 3.26013171709281E-02 
425	 3.22977764634818E-02 
426	 0.031660564925903 
427	 3.15958987533205E-02 
428	 3.18313423269782E-02 
429	 3.21397606379793E-02 
430	 3.22448824587641E-02 
431	 3.22206166850276E-02 
432	 3.22755917059268E-02 
433	 3.22457632734424E-02 
434	 3.20760112204717E-02 
435	 3.16514921731521E-02 
436	 3.15084648423914E-02 
437	 3.19097569852644E-02 
438	 3.18421951136413E-02 
439	 3.15636757978611E-02 
440	 3.18314086233265E-02 
441	 3.19240617091473E-02 
442	 0.031771443667608 
443	 3.20834635718549E-02 
444	 3.21643347954609E-02 
445	 3.15283681809563E-02 
446	 3.14524352214363E-02 
447	 3.17793587643342E-02 
448	 3.16557333679433E-02 
449	 3.16867226579987E-02 
450	 3.19672249414661E-02 
451	 3.20066488696364E-02 
452	 3.19279343967962E-02 
453	 3.18851499835361E-02 
454	 3.19573312299985E-02 
455	 3.20680238133103E-02 
456	 3.19338545414213E-02 
457	 3.19030369117081E-02 
458	 3.20649932996598E-02 
459	 3.20368430294928E-02 
460	 3.19480824488549E-02 
461	 3.19827604675983E-02 
462	 3.17926929398419E-02 
463	 3.15077994993815E-02 
464	 3.17627212690411E-02 
465	 3.20184385373996E-02 
466	 3.19852297561823E-02 
467	 3.17733659834752E-02 
468	 3.15634117484749E-02 
469	 0.03159471164445 
470	 3.17397094204011E-02 
471	 3.19534713137707E-02 
472	 3.22605918130494E-02 
473	 3.23484835564884E-02 
474	 3.20605061456636E-02 
475	 3.18857270368318E-02 
476	 3.17749309783528E-02 
477	 3.14799851976843E-02 
478	 3.16319112832454E-02 
479	 3.21384669569838E-02 
480	 3.18143172286167E-02 
481	 3.15149391893152E-02 
482	 3.19105324328544E-02 
483	 3.21469678535283E-02 
484	 3.21402770895413E-02 
485	 0.031987327249699 
486	 3.22143510993493E-02 
487	 3.28081341579677E-02 
488	 3.25503095247552E-02 
489	 3.21153046734468E-02 
490	 3.22533311587281E-02 
491	 3.23597733824005E-02 
492	 3.23269702680522E-02 
493	 3.21726987086011E-02 
494	 0.032039417967058 
495	 3.20436714119849E-02 
496	 3.24180774830312E-02 
497	 3.28271383869829E-02 
498	 3.28222127273823E-02 
499	 3.28993810667248E-02 
500	 3.31430507607936E-02 
501	 3.34161631293244E-02 
502	 3.35940203484443E-02 
503	 3.36247073626423E-02 
504	 3.37423544012269E-02 
505	 3.40043432233473E-02 
506	 3.44601184231051E-02 
507	 3.47383781534952E-02 
508	 0.034835933379167 
509	 3.51911340704534E-02 
510	 3.57170994441158E-02 
511	 3.62948611189036E-02 
512	 0.036497331116205 
513	 3.64775570374421E-02 
514	 3.67349614588097E-02 
515	 3.71371500817339E-02 
516	 3.76502531906502E-02 
517	 3.82745255869454E-02 
518	 3.88172505553238E-02 
519	 3.90925849674351E-02 
520	 3.96884006579112E-02 
521	 4.05659579758427E-02 
522	 4.13431111808417E-02 
523	 4.19099220881022E-02 
524	 4.22479043218095E-02 
525	 4.26210644625821E-02 
526	 4.31560563744932E-02 
527	 4.39839037746304E-02 
528	 0.044452463756418 
529	 4.45683877038661E-02 
530	 0.044992752774113 
531	 4.55546788879409E-02 
532	 4.61156520724463E-02 
533	 0.046506136164826 
534	 4.67420543645895E-02 
535	 4.68828186594574E-02 
536	 4.72732401296407E-02 
537	 4.78714792731706E-02 
538	 4.78777027524174E-02 
539	 4.78587543695801E-02 
540	 4.83720080633468E-02 
541	 4.88218817840721E-02 
542	 4.90773233092966E-02 
543	 4.90728155192768E-02 
544	 4.93310500393558E-02 
545	 4.99830527095348E-02 
546	 5.03158235007152E-02 
547	 5.04052052196518E-02 
548	 5.04420720535098E-02 
549	 5.04557873266082E-02 
550	 5.05039694659123E-02 
551	 5.06878949288067E-02 
552	 5.09036777473836E-02 
553	 5.10981048695352E-02 
554	 5.14601673974124E-02 
555	 5.18019979005186E-02 
556	 5.17404547944006E-02 
557	 0.051618473231756 
558	 5.15709225197369E-02 
559	 5.16373936166201E-02 
560	 5.17473798208545E-02 
561	 5.18169712832369E-02 
562	 5.16445026335397E-02 
563	 5.13700734924387E-02 
564	 0.051472019288173 
565	 0.051495137343831 
566	 5.12596993224775E-02 
567	 5.09189052483591E-02 
568	 0.050546668355343 
569	 5.02183957899848E-02 
570	 5.00230409322668E-02 
571	 4.99512036196783E-02 
572	 4.99113116118717E-02 
573	 4.97178427109825E-02 
574	 4.93010632535756E-02 
575	 4.91496946177162E-02 
576	 4.90903182186865E-02 
577	 4.86671120186614E-02 
578	 4.84231593786607E-02 
579	 4.84367596236849E-02 
580	 4.82502361237345E-02 
581	 4.80499562621153E-02 
582	 4.79922598215845E-02 
583	 0.047712212431342 
584	 4.73189369332132E-02 
585	 4.72383257387356E-02 
586	 4.72775384383766E-02 
587	 4.73273721851556E-02 
588	 4.72013563031634E-02 
589	 4.70037121888876E-02 
590	 4.69024919443736E-02 
591	 4.66880129339889E-02 
592	 4.64538530388657E-02 
593	 0.046668826767875 
594	 4.67585424673319E-02 
595	 4.64287471720621E-02 
596	 0.046263269280821 
597	 4.61932289042368E-02 
598	 4.59434484354723E-02 
599	 4.58480309375252E-02 
600	 4.59686103233345E-02 
601	 4.61537062312899E-02 
602	 4.61065466916243E-02 
603	 4.56311928327204E-02 
604	 4.56008912420597E-02 
605	 4.58973076687241E-02 
606	 4.58287294351992E-02 
607	 4.56026865167275E-02 
608	 0.045313553151183 
609	 4.51224668865951E-02 
610	 4.50071028146088E-02 
611	 4.49134356943798E-02 
612	 4.46888417511437E-02 
613	 4.43636622461462E-02 
614	 4.41587466791534E-02 
615	 0.044074764160479 
616	 4.40766721422754E-02 
617	 4.38718742355326E-02 
618	 4.35443171246251E-02 
619	 4.32983215578275E-02 
620	 4.31971727576959E-02 
621	 4.32136176971546E-02 
622	 4.31263681273102E-02 
623	 4.29481282975806E-02 
624	 4.27305730060992E-02 
625	 4.29513815542961E-02 
626	 4.33549053682965E-02 
627	 4.30307095657594E-02 
628	 4.27878761827151E-02 
629	 4.28974722065351E-02 
630	 4.28860837575928E-02 
631	 4.28507530490248E-02 
632	 4.29566115769665E-02 
633	 4.30625230612121E-02 
634	 4.30984632307939E-02 
635	 4.29949009085734E-02 
636	 4.27461864133052E-02 
637	 4.23649436850188E-02 
638	 4.19675465195102E-02 
639	 4.15515228861909E-02 
640	 4.10598493352532E-02 
641	 4.07674134381699E-02 
642	 4.06620487002557E-02 
643	 4.03069918394886E-02 
644	 3.97940513421174E-02 
645	 3.92359639473665E-02 
646	 3.88815933456164E-02 
647	 3.87288338981331E-02 
648	 3.86827475411481E-02 
649	 3.83401883221524E-02 
650	 3.76773247021158E-02 
651	 3.75907249253266E-02 
652	 3.77802392942856E-02 
653	 3.77969797314044E-02 
654	 3.75353567766028E-02 
655	 3.71247653922299E-02 
656	 3.72193601193241E-02 
657	 3.72619250433567E-02 
658	 3.69684120538553E-02 
659	 0.036900970039077 
660	 3.68294556607969E-02 
661	 0.036270678174028 
662	 3.59689384253533E-02 
663	 3.59618371157104E-02 
664	 3.54091129826304E-02 
665	 3.49268532177344E-02 
666	 3.50089085173009E-02 
667	 3.49475724502707E-02 
668	 3.46879788075184E-02 
669	 0.034357613269879 
670	 3.43309868175323E-02 
671	 3.46276721113706E-02 
672	 3.44261037637852E-02 
673	 3.41345617536212E-02 
674	 3.42870445384306E-02 
675	 3.45051555191473E-02 
676	 0.034688472315379 
677	 3.48085972128297E-02 
678	 3.49034098936041E-02 
679	 0.035013013104598 
680	 3.52681625920114E-02 
681	 3.55261306706229E-02 
682	 3.55253312961939E-02 
683	 3.57500786937847E-02 
684	 3.64033204770002E-02 
685	 3.77480313102914E-02 
686	 3.90405025346668E-02 
687	 3.96459155079613E-02 
688	 0.040806899703944 
689	 4.23715147155799E-02 
690	 4.36473057149549E-02 
691	 0.045213808449652 
692	 0.047202728172441 
693	 4.90507631175562E-02 
694	 5.12292502918264E-02 
695	 5.41113443202932E-02 
696	 5.66903562919064E-02 
697	 5.89884503409628E-02 
698	 6.17315923719061E-02 
699	 6.48107634154163E-02 
700	 6.80622360884003E-02 
701	 7.09017953877948E-02 
702	 7.37326250138597E-02 
703	 7.72081800441524E-02 
704	 8.04303348923065E-02 
705	 8.33289324480082E-02 
706	 8.63591282195152E-02 
707	 8.92440466143614E-02 
708	 9.18734757001615E-02 
709	 9.49670333320486E-02 
710	 0.098185754256809 
711	 0.100730098895264 
712	 0.103439831549191 
713	 0.106391336887964 
714	 0.108835231630961 
715	 0.110976686111938 
716	 0.113147952872936 
717	 0.115274522320605 
718	 0.117587818045855 
719	 0.120346580076125 
720	 0.122908741138172 
721	 0.124871034496206 
722	 0.126406876957604 
723	 0.127959556770599 
724	 0.129856537260594 
725	 0.13155440109025 
726	 0.132913135468638 
727	 0.134400337615198 
728	 0.13578735200769 
729	 0.136964284339227 
730	 0.137957985913862 
731	 0.138927146715299 
732	 0.140059489307367 
733	 0.141216240368898 
734	 0.142326245063783 
735	 0.143159227846644 
736	 0.144115544435012 
737	 0.145369057289299 
738	 0.146277922766778 
739	 0.146941385909355 
740	 0.147728436236122 
741	 0.148264849076775 
742	 0.148560001573206 
743	 0.149095923311299 
744	 0.149710361832311 
745	 0.150265236995974 
746	 0.15090228354456 
747	 0.15157291354431 
748	 0.152129807801624 
749	 0.152664802382998 
750	 0.153171590063715 
751	 0.153430362477444 
752	 0.153787476039773 
753	 0.154581739964682 
754	 0.154770340162247 
755	 0.154577335074459 
756	 0.155264236997535 
757	 0.155992661566216 
758	 0.156402998177737 
759	 0.156425659127298 
760	 0.156236068527051 
761	 0.156576988284985 
762	 0.15676764908653 
763	 0.156883525088676 
764	 0.157538317183949 
765	 0.15862411310167 
766	 0.159780947696231 
767	 0.159965828449755 
768	 0.159796135910162 
769	 0.1599673876068 
770	 0.160342010980572 
771	 0.160913791870818 
772	 0.161777980939765 
773	 0.162307824620302 
774	 0.162161047798882 
775	 0.162266715090672 
776	 0.162698222108767 
777	 0.163343630029068 
778	 0.163785669495381 
779	 0.163913288859747 
780	 0.163921609900213 
781	 0.164046053644168 
782	 0.164464216966094 
783	 0.164996206730511 
784	 0.165512545404944 
785	 0.165861654327288 
786	 0.165829242294453 
787	 0.165534916960525 
788	 0.165867547326404 
789	 0.166474990268215 
790	 0.166946312078159 
791	 0.166990526166838 
792	 0.16685516082059 
793	 0.167316980934458 
794	 0.167648632067345 
795	 0.167624980753117 
796	 0.167415877789826 
797	 0.167577177867964 
798	 0.168584687756388 
799	 0.16931277651874 
800	 0.169533538811449 
801	 0.169221221896762 
802	 0.169229316427631 
803	 0.1698404024008 
804	 0.170332301284991 
805	 0.170732449411324 
806	 0.171128073454771 
807	 0.171305862431388 
808	 0.171389893716473 
809	 0.17183747123017 
810	 0.172345323640718 
811	 0.172716818444782 
812	 0.172691599480419 
813	 0.172308192136346 
814	 0.17169022901823 
815	 0.171880282260352 
816	 0.17284578988842 
817	 0.17345434648027 
818	 0.173800320208405 
819	 0.174072622686982 
820	 0.175381710366445 
821	 0.176312500206336 
822	 0.175180506822572 
823	 0.175147300050661 
824	 0.176350480946528 
825	 0.177047650493932 
826	 0.177399538727831 
827	 0.177526571545244 
828	 0.177965044143229 
829	 0.178458514025481 
830	 0.178629471833023 
831	 0.178866171140605 
832	 0.179135399071481 
833	 0.179053977993229 
834	 0.17921579584424 
835	 0.179713944718769 
836	 0.179386922205804 
837	 0.179363304331912 
838	 0.180927324476362 
839	 0.18177962428965 
840	 0.181721349469554 
841	 0.181584021027386 
842	 0.181995885044593 
843	 0.18299384814024 
844	 0.182882295626081 
845	 0.182290882913586 
846	 0.1820957918644 
847	 0.182250301980255 
848	 0.182730933970478 
849	 0.183571358203326 
850	 0.183664396296949 
851	 0.182757880993527 
852	 0.182443513719399 
853	 0.182654938158288 
854	 0.183158256443812 
855	 0.183935402683367 
856	 0.184753895664918 
857	 0.185245725842845 
858	 0.185229989003391 
859	 0.184798885627387 
860	 0.184686182463901 
861	 0.184984990373309 
862	 0.18563256093727 
863	 0.184921412203803 
864	 0.183914131260332 
865	 0.18599832474011 
866	 0.187012405947805 
867	 0.18600567966471 
868	 0.185765680709423 
869	 0.186006719711971 
870	 0.186445169151103 
871	 0.187643321894195 
872	 0.188862014233544 
873	 0.188549814483492 
874	 0.188739618694186 
875	 0.18963619841229 
876	 0.189176946755542 
877	 0.189563971393789 
878	 0.191922369822828 
879	 0.191731650975566 
880	 0.190659221433015 
881	 0.192377687368489 
882	 0.194181649606344 
883	 0.19517551027262 
884	 0.194976466358902 
885	 0.194673457169151 
886	 0.194938271806097 
887	 0.195464662649426 
888	 0.19621675960115 
889	 0.197161522783935 
890	 0.197285948608075 
891	 0.196671842211293 
892	 0.196274608636164 
893	 0.19672777864944 
894	 0.197983389445762 
895	 0.197301780809396 
896	 0.196052977859526 
897	 0.196195143450112 
898	 0.196528042841967 
899	 0.196947834085138 
900	 0.197870632296627 
901	 0.197981659610772 
902	 0.197428901174857 
903	 0.199073154217808 
904	 0.200128240649917 
905	 0.198723154731271 
906	 0.199240556529961 
907	 0.200623919351535 
908	 0.199829847942915 
909	 0.199443542482861 
910	 0.199902668788361 
911	 0.200067001975326 
912	 0.19923090243068 
913	 0.197320586351172 
914	 0.196422852733664 
915	 0.196713873539207 
916	 0.198019090427999 
917	 0.19909619374524 
918	 0.199807661070038 
919	 0.200911033847484 
920	 0.200704570077713 
921	 0.199141951149792 
922	 0.198930251549209 
923	 0.199886167252501 
924	 0.201467900000993 
925	 0.200791088645852 
926	 0.197831906058511 
927	 0.193726912193903 
928	 0.191403246749386 
929	 0.191396519256561 
930	 0.188954564902664 
931	 0.185341174691785 
932	 0.183071370759036 
933	 0.194016283115978 
934	 0.203016880316331 
935	 0.186397334552202 
936	 0.180786260867863 
937	 0.186665286387016 
938	 0.18066876931239 
939	 0.17498530837917 
940	 0.173250825190702 
941	 0.174262014603752 
942	 0.176349714653372 
943	 0.178239101671699 
944	 0.180104247125077 
945	 0.180573793088805 
946	 0.177679189926585 
947	 0.177711046856867 
948	 0.180433563786372 
949	 0.180412674487492 
950	 0.174980429352629 
951	 0.165334656973323 
952	 0.164884251619734 
953	 0.165617169775324 
954	 0.160307889036167 
955	 0.161462217138606 
956	 0.165072764377983 
957	 0.160634105405755 
958	 0.160858736836621 
959	 0.164891615970437 
960	 0.159116337782421 
961	 0.154082813455365 
962	 0.154762043973609 
963	 0.157501841727663 
964	 0.160157813523511 
965	 0.161191126391869 
966	 0.163130242062199 
967	 0.164636132280946 
968	 0.162279773298245 
969	 0.161572689676269 
970	 0.163025760073002 
971	 0.162384037034932 
972	 0.16184687591782 
973	 0.162446763150385 
974	 0.162459374410274 
975	 0.162593599343522 
976	 0.163721993009867 
977	 0.164698954348455 
978	 0.165069977172823 
979	 0.164292872997065 
980	 0.164584440065968 
981	 0.166410034701123 
982	 0.168909541664106 
983	 0.170454887694803 
984	 0.169783655207566 
985	 0.164512198000878 
986	 0.161813409263385 
987	 0.168613920642938 
988	 0.171052993488167 
989	 0.168824552561549 
990	 0.1663726267472 
991	 0.164961342328835 
992	 0.165903867373531 
993	 0.171248339408938 
994	 0.17686758528938 
995	 0.179787470397073 
996	 0.176818286178436 
997	 0.174215455050267 
998	 0.177572115731383 
999	 0.175994342146648 
1000	 0.172107224764759 
1001	 0.173467906258544 
1002	 0.17595658366004 
1003	 0.177360794281149 
1004	 0.173550960112553 
1005	 0.174067358849731 
1006	 0.181754901056165 
1007	 0.189646150576433 
1008	 0.191368774075319 
1009	 0.183780191449193 
1010	 0.18142405137716 
1011	 0.181291690435698 
1012	 0.17673852777796 
1013	 0.181774067287272 
1014	 0.191490629112898 
1015	 0.186983683497862 
1016	 0.183249189606435 
1017	 0.183335895603554 
1018	 0.178623067169666 
1019	 0.179035157503644 
1020	 0.188259453512834 
1021	 0.19335594851869 
1022	 0.193333502527827 
1023	 0.189034286637643 
1024	 0.186128949793839 
1025	 0.18773561480673 
1026	 0.196842338686754 
1027	 0.196220999043959 
1028	 0.188898261121221 
1029	 0.199264697175161 
1030	 0.199536497418555 
1031	 0.185359456014016 
1032	 0.182439779255048 
1033	 0.189516679335588 
1034	 0.202013481100892 
1035	 0.199093479559787 
1036	 0.193687712120038 
1037	 0.200937041634981 
1038	 0.210562197601347 
1039	 0.213396817846268 
1040	 0.198255762645446 
1041	 0.194960910706003 
1042	 0.203205395066868 
1043	 0.19579460999309 
1044	 0.196687844972053 
1045	 0.209847787813819 
1046	 0.217595087768063 
1047	 0.206574914629528 
1048	 0.177042735523743 
1049	 0.182532531008287 
1050	 0.195800700341016 
1051	 0.18729697282821 
1052	 0.182302434911013 
1053	 0.18780563462521 
1054	 0.206786305981614 
1055	 0.197133442886847 
1056	 0.175014441605201 
1057	 0.204793940943419 
1058	 0.214459881691671 
1059	 0.194999016689838 
1060	 0.198558035809173 
1061	 0.200663067111721 
1062	 0.192871574051284 
1063	 0.191662892244335 
1064	 0.185254986342916 
1065	 0.170996104669604 
1066	 0.188454237269125 
1067	 0.210261276118211 
1068	 0.202637029593691 
1069	 0.208227389608178 
1070	 0.219952101239201 
1071	 0.215718567393769 
1072	 0.210129561043441 
1073	 0.201943680920921 
1074	 0.179518390987552 
1075	 0.173478118709528 
