Wavelength	AVEI200146.asd
325	 4.89369747702169E-02 
326	 4.32886903221896E-02 
327	 2.85378816340368E-02 
328	 2.87735571736202E-02 
329	 3.52302886118908E-02 
330	 4.22377090319854E-02 
331	 4.03451323669026E-02 
332	 3.71895945198052E-02 
333	 4.01179317821846E-02 
334	 0.037759074155593 
335	 3.29964256613171E-02 
336	 0.036970849913028 
337	 3.88190797002684E-02 
338	 3.66825046201707E-02 
339	 3.86531252401677E-02 
340	 4.05719508495743E-02 
341	 3.90773394682883E-02 
342	 3.73786721501897E-02 
343	 3.67787461084042E-02 
344	 3.87717151087278E-02 
345	 3.97307085151825E-02 
346	 0.038808653532771 
347	 3.68193490128539E-02 
348	 3.59481154734763E-02 
349	 3.73863335080253E-02 
350	 0.038835894477515 
351	 3.88801308865862E-02 
352	 3.57010354534579E-02 
353	 3.52859861197476E-02 
354	 3.77478426887139E-02 
355	 3.76965195858137E-02 
356	 3.71202450440847E-02 
357	 3.72217730134085E-02 
358	 3.72618181969948E-02 
359	 3.72908689754329E-02 
360	 3.74829363769199E-02 
361	 3.77092836324601E-02 
362	 3.79144424231157E-02 
363	 3.82387821403843E-02 
364	 3.75865919293569E-02 
365	 3.58234259607955E-02 
366	 3.59092828034914E-02 
367	 3.67268549141645E-02 
368	 3.64315990792093E-02 
369	 0.035499315741854 
370	 3.44571165446615E-02 
371	 3.45804281579808E-02 
372	 3.52457470036014E-02 
373	 3.59976739455828E-02 
374	 3.63371011595638E-02 
375	 0.036088909722995 
376	 3.51531894634278E-02 
377	 3.35714773288376E-02 
378	 3.21514862278516E-02 
379	 3.32656476216737E-02 
380	 3.43218645216707E-02 
381	 3.41504738864941E-02 
382	 3.45590004684744E-02 
383	 3.56344530077241E-02 
384	 3.72447485355947E-02 
385	 3.57047491675059E-02 
386	 0.032293098542223 
387	 0.033831566856887 
388	 3.50477631057664E-02 
389	 3.38572274888849E-02 
390	 3.35056032803403E-02 
391	 3.34136736467608E-02 
392	 3.26261207871161E-02 
393	 3.29442422103374E-02 
394	 3.37915247243884E-02 
395	 3.24210966152558E-02 
396	 3.16476743790586E-02 
397	 0.032427121033578 
398	 3.28378885774404E-02 
399	 3.32421530508729E-02 
400	 3.41538686647215E-02 
401	 3.36879474752491E-02 
402	 3.24493517222878E-02 
403	 3.26118001536963E-02 
404	 3.31532538264349E-02 
405	 3.34899468217512E-02 
406	 3.27303858194173E-02 
407	 0.031796229858465 
408	 3.18886688989942E-02 
409	 3.24561537448947E-02 
410	 3.29958908201563E-02 
411	 3.24885798998695E-02 
412	 3.18681965676626E-02 
413	 3.16752775576774E-02 
414	 3.22678141384147E-02 
415	 3.27609713352544E-02 
416	 3.20184447363487E-02 
417	 3.16407837321968E-02 
418	 3.18665575509517E-02 
419	 3.22430388447342E-02 
420	 3.23125508153794E-02 
421	 3.19343914527744E-02 
422	 3.21004825072508E-02 
423	 3.25072694234598E-02 
424	 3.25736228650137E-02 
425	 3.20193228182131E-02 
426	 3.12407052198317E-02 
427	 3.19029888657224E-02 
428	 3.26832181449611E-02 
429	 3.27118835670645E-02 
430	 0.032528670295154 
431	 0.032250867305955 
432	 3.19416692456695E-02 
433	 0.031972818367161 
434	 0.032252122811212 
435	 3.20603232457211E-02 
436	 3.18439713443717E-02 
437	 3.18787108384827E-02 
438	 3.17877040112183E-02 
439	 3.15985676456354E-02 
440	 3.14399386534952E-02 
441	 3.14047776505605E-02 
442	 3.15097121577105E-02 
443	 3.16924737993893E-02 
444	 0.031755733015779 
445	 3.15763084591911E-02 
446	 3.15875845309285E-02 
447	 3.17584308448397E-02 
448	 3.18608825585097E-02 
449	 3.19167797430201E-02 
450	 3.19230676887802E-02 
451	 0.031866592163256 
452	 3.18688655903714E-02 
453	 0.032041006278316 
454	 3.22559629588008E-02 
455	 3.23357247645817E-02 
456	 3.18123748053054E-02 
457	 0.031653586818729 
458	 0.032134657270919 
459	 0.032248548279515 
460	 3.21225978085596E-02 
461	 3.20131776795591E-02 
462	 3.19404171098149E-02 
463	 3.19225147346744E-02 
464	 3.19652972256918E-02 
465	 3.19868914842795E-02 
466	 3.19288228685507E-02 
467	 0.031726776831868 
468	 3.15419981479304E-02 
469	 3.16114171124526E-02 
470	 3.17442685201132E-02 
471	 3.19054845789132E-02 
472	 3.22282653653774E-02 
473	 3.23003522387822E-02 
474	 3.19117520361875E-02 
475	 3.16081199084461E-02 
476	 0.03155353447973 
477	 3.18902479186758E-02 
478	 3.21283950130384E-02 
479	 3.21234929347022E-02 
480	 3.20312565928172E-02 
481	 3.18708952192451E-02 
482	 3.16800530656432E-02 
483	 3.16994339016459E-02 
484	 3.18832875914223E-02 
485	 3.19803859046592E-02 
486	 3.24054242778094E-02 
487	 3.30561789580042E-02 
488	 3.27056806312146E-02 
489	 3.20494997937764E-02 
490	 3.18943400720209E-02 
491	 3.22794892117091E-02 
492	 3.28044277084217E-02 
493	 3.23627323801276E-02 
494	 3.19482519469408E-02 
495	 3.20159698373748E-02 
496	 3.24533973735251E-02 
497	 3.28709614480229E-02 
498	 3.27910750860862E-02 
499	 3.27880944740785E-02 
500	 3.29720353595763E-02 
501	 3.31769855485265E-02 
502	 3.34482553138798E-02 
503	 3.37765677719277E-02 
504	 3.39012641735956E-02 
505	 3.39984901746189E-02 
506	 3.44168321092861E-02 
507	 0.034805421922299 
508	 0.035062387059926 
509	 3.51759767474394E-02 
510	 3.54420072661012E-02 
511	 3.60640741843366E-02 
512	 0.036589270966874 
513	 3.69331855244084E-02 
514	 3.70654284151513E-02 
515	 3.73242126347688E-02 
516	 3.78469842860826E-02 
517	 3.85878046240131E-02 
518	 3.91549099642563E-02 
519	 3.91674663200662E-02 
520	 3.95558594217959E-02 
521	 4.03898266044148E-02 
522	 0.041388096690794 
523	 0.042017175568471 
524	 4.21399693271539E-02 
525	 4.27203295749634E-02 
526	 4.34618550062678E-02 
527	 4.37937643226458E-02 
528	 4.41754199459126E-02 
529	 4.46813758651869E-02 
530	 4.51479874325085E-02 
531	 4.56948165756054E-02 
532	 4.63572369959305E-02 
533	 4.66893184695194E-02 
534	 4.68222153449507E-02 
535	 4.71397987555996E-02 
536	 4.74274376781258E-02 
537	 4.76561481915073E-02 
538	 4.79749316773563E-02 
539	 4.82864424939394E-02 
540	 4.84961256622845E-02 
541	 4.87648670891666E-02 
542	 4.90739104402165E-02 
543	 0.049278513504023 
544	 4.95480209170735E-02 
545	 0.049903186668099 
546	 4.99960436115225E-02 
547	 5.00679122050625E-02 
548	 0.050467662969452 
549	 5.06583592799243E-02 
550	 5.06500054352609E-02 
551	 5.09519915472522E-02 
552	 5.12658532753673E-02 
553	 5.14005591319432E-02 
554	 5.14492037916762E-02 
555	 5.14617585391007E-02 
556	 0.051491844122245 
557	 5.16935453058908E-02 
558	 5.19830616325527E-02 
559	 5.17400373942272E-02 
560	 5.14403801121157E-02 
561	 5.15351523828738E-02 
562	 5.16981749742152E-02 
563	 5.17749131631446E-02 
564	 5.15111276018895E-02 
565	 5.13397504076758E-02 
566	 5.13776882116743E-02 
567	 5.11305883503142E-02 
568	 5.07775810986163E-02 
569	 0.050600785769762 
570	 5.04072793831213E-02 
571	 5.01501080781241E-02 
572	 4.98231480185216E-02 
573	 4.94909388217113E-02 
574	 4.92278111954136E-02 
575	 4.93447946239092E-02 
576	 4.94137530594599E-02 
577	 4.85504124258122E-02 
578	 4.81728234647834E-02 
579	 4.85225488192247E-02 
580	 4.85311363641882E-02 
581	 4.82855161859302E-02 
582	 4.79061915766934E-02 
583	 4.74259570755379E-02 
584	 4.70878598287665E-02 
585	 4.75079132426648E-02 
586	 4.77346753159735E-02 
587	 4.74209166414115E-02 
588	 0.047151147019931 
589	 4.69492389907135E-02 
590	 0.046783780143297 
591	 4.65808634330745E-02 
592	 4.64057473927625E-02 
593	 4.65203523458607E-02 
594	 4.66582524767201E-02 
595	 0.046652985859391 
596	 4.65658636563009E-02 
597	 4.64208416037417E-02 
598	 4.62422467571151E-02 
599	 4.60903496035045E-02 
600	 4.60025604305301E-02 
601	 4.60338757725033E-02 
602	 4.60290474784374E-02 
603	 4.58691019754039E-02 
604	 4.58771790937811E-02 
605	 4.59892946364208E-02 
606	 4.59265673215024E-02 
607	 4.56839937397656E-02 
608	 4.53197048202821E-02 
609	 4.52621043150159E-02 
610	 4.52304103106032E-02 
611	 4.48279865607107E-02 
612	 4.45257533643193E-02 
613	 0.044413504649435 
614	 4.44037875062037E-02 
615	 4.42777887735405E-02 
616	 4.39271797205373E-02 
617	 4.36966239237148E-02 
618	 4.35471772256439E-02 
619	 4.33088272125982E-02 
620	 0.043209563839505 
621	 4.32395080259086E-02 
622	 4.30529813137814E-02 
623	 0.042865999162297 
624	 4.28970026741225E-02 
625	 4.32937291701561E-02 
626	 4.37497727529401E-02 
627	 4.34184278160195E-02 
628	 4.30758062798987E-02 
629	 4.30404451757724E-02 
630	 4.31599919392911E-02 
631	 4.32621127873789E-02 
632	 4.31516700881148E-02 
633	 4.30880140355864E-02 
634	 0.043054664566362 
635	 4.27857458243883E-02 
636	 4.25206645160948E-02 
637	 4.23729158639296E-02 
638	 4.19863148933425E-02 
639	 4.15857770701159E-02 
640	 4.16772257389304E-02 
641	 4.14256689497749E-02 
642	 4.06880080042858E-02 
643	 4.00479712596584E-02 
644	 3.95338532596488E-02 
645	 3.91552322989066E-02 
646	 0.038974025538823 
647	 3.88635674170495E-02 
648	 3.84668436370509E-02 
649	 3.81484550099825E-02 
650	 3.80643536292896E-02 
651	 3.82089834559236E-02 
652	 3.82671092178237E-02 
653	 0.037877511153325 
654	 3.74759862886924E-02 
655	 3.72247437746803E-02 
656	 0.037306458330596 
657	 3.74267084894067E-02 
658	 3.73743478894097E-02 
659	 3.71351304391907E-02 
660	 0.036784095454497 
661	 3.64303900152034E-02 
662	 3.61291739052137E-02 
663	 3.58979828489938E-02 
664	 3.56981369277702E-02 
665	 3.54960595906758E-02 
666	 3.52675157511053E-02 
667	 3.50951574275667E-02 
668	 3.48977195447693E-02 
669	 0.03436208584352 
670	 3.42502263342964E-02 
671	 3.46758682020158E-02 
672	 3.45230522422491E-02 
673	 3.41983865801561E-02 
674	 3.42676705958131E-02 
675	 3.46185230627441E-02 
676	 3.50202490959407E-02 
677	 3.48299113282022E-02 
678	 3.47396652964849E-02 
679	 0.035068061236231 
680	 3.51659698801388E-02 
681	 0.035214306362758 
682	 3.56181865789042E-02 
683	 3.59742988637633E-02 
684	 3.63431476153832E-02 
685	 3.74457427366709E-02 
686	 0.038765828885378 
687	 0.039813596134328 
688	 0.040734914492427 
689	 4.17750472301319E-02 
690	 0.043601052964141 
691	 0.045344728902788 
692	 4.69206601509162E-02 
693	 4.90809556601897E-02 
694	 5.16310840929665E-02 
695	 5.41926936030842E-02 
696	 5.65127484872821E-02 
697	 5.87949523587252E-02 
698	 6.18633802903417E-02 
699	 6.50704791270555E-02 
700	 6.81046370611851E-02 
701	 7.14745813282054E-02 
702	 7.47702025782847E-02 
703	 7.73927983039476E-02 
704	 8.03042650714201E-02 
705	 8.35829183803775E-02 
706	 8.64988481754923E-02 
707	 8.92885336826858E-02 
708	 9.21166350877901E-02 
709	 9.50665685049465E-02 
710	 9.80732372555305E-02 
711	 0.101030869545411 
712	 0.103777544140136 
713	 0.106311238930942 
714	 0.10904590219721 
715	 0.111448437793989 
716	 0.113155055687759 
717	 0.115178680277419 
718	 0.117792476614187 
719	 0.120476162277124 
720	 0.123039615717 
721	 0.12513714033324 
722	 0.126473829019339 
723	 0.127756790881516 
724	 0.129636172714762 
725	 0.131568471011425 
726	 0.133306739613968 
727	 0.135075415330694 
728	 0.136492838926148 
729	 0.137446756082874 
730	 0.138591843935728 
731	 0.139756417632129 
732	 0.140593464821172 
733	 0.141480909485789 
734	 0.142511085681288 
735	 0.143606916028664 
736	 0.144749590645427 
737	 0.145842672983216 
738	 0.146588132328024 
739	 0.147117880444265 
740	 0.147750210640891 
741	 0.148257841259645 
742	 0.148685149940123 
743	 0.149457626726521 
744	 0.150286967025554 
745	 0.15092069332067 
746	 0.151412266409656 
747	 0.151801832069759 
748	 0.152126764363869 
749	 0.152752498869403 
750	 0.153605244913191 
751	 0.15344861544605 
752	 0.153356995518921 
753	 0.154496695760039 
754	 0.155308168857715 
755	 0.155664941308682 
756	 0.156244417544461 
757	 0.156460467616072 
758	 0.156179375561923 
759	 0.156586226092883 
760	 0.157629243340907 
761	 0.157569746530805 
762	 0.157381072611427 
763	 0.157616902833422 
764	 0.158491733029842 
765	 0.159259339391954 
766	 0.159662527061168 
767	 0.160047954658667 
768	 0.160413372174471 
769	 0.160707570489801 
770	 0.161049994621452 
771	 0.161447152406193 
772	 0.16186017836842 
773	 0.162031640360916 
774	 0.161906125302528 
775	 0.162598927989681 
776	 0.163609586550591 
777	 0.163771252465951 
778	 0.163864287963693 
779	 0.164087420687807 
780	 0.164242125336207 
781	 0.164504143196716 
782	 0.165001179497741 
783	 0.165580312162794 
784	 0.16599277344351 
785	 0.16576172036305 
786	 0.165685740787321 
787	 0.166016198126698 
788	 0.166468410672478 
789	 0.166825790752998 
790	 0.166919737176408 
791	 0.167208431146003 
792	 0.167636465959585 
793	 0.167863299336774 
794	 0.168044139346908 
795	 0.168190167251192 
796	 0.168071602026012 
797	 0.168030936887515 
798	 0.16841927503303 
799	 0.169214665962864 
800	 0.16997956079019 
801	 0.169476075349869 
802	 0.169415174761081 
803	 0.170294723863533 
804	 0.170759693219775 
805	 0.170843900295386 
806	 0.170739559431415 
807	 0.171334085814981 
808	 0.172335512471693 
809	 0.172302661191768 
810	 0.172389341496663 
811	 0.172950111756923 
812	 0.172917124513925 
813	 0.172448178204785 
814	 0.17190516392079 
815	 0.17204254246297 
816	 0.172947231976095 
817	 0.174111619633122 
818	 0.174846707172253 
819	 0.174944530385704 
820	 0.17533413547543 
821	 0.175702445630562 
822	 0.175612427765165 
823	 0.17593619280892 
824	 0.176773561007746 
825	 0.178006989562387 
826	 0.178414768179789 
827	 0.177664781176333 
828	 0.177208436091998 
829	 0.177275588325239 
830	 0.177930293403974 
831	 0.178582195685461 
832	 0.179073118964983 
833	 0.179439517464236 
834	 0.179868160621947 
835	 0.180340900386955 
836	 0.180176434547914 
837	 0.180158191203195 
838	 0.181174255402913 
839	 0.181949332336887 
840	 0.182177610327865 
841	 0.181764655264782 
842	 0.181660678287505 
843	 0.182226446469794 
844	 0.182852809328202 
845	 0.182971225835584 
846	 0.182088137668934 
847	 0.181963445900639 
848	 0.18267213890782 
849	 0.183343863370724 
850	 0.18350812663742 
851	 0.183107120981608 
852	 0.183360717672253 
853	 0.183829232260473 
854	 0.183959228162736 
855	 0.18445373666411 
856	 0.184993686205663 
857	 0.184426884530771 
858	 0.184176147282471 
859	 0.184626367716029 
860	 0.18498362979074 
861	 0.185270440936919 
862	 0.185517740394721 
863	 0.185181657543059 
864	 0.185021926222932 
865	 0.187263271892647 
866	 0.187420721418889 
867	 0.185099602365846 
868	 0.186225844054097 
869	 0.187896511279493 
870	 0.187681807856217 
871	 0.187962808393218 
872	 0.188597531740391 
873	 0.188628397559438 
874	 0.188760293717047 
875	 0.189275311626631 
876	 0.190475663090257 
877	 0.191260890603597 
878	 0.191040484116633 
879	 0.191944849423273 
880	 0.193050182996514 
881	 0.192402194586579 
882	 0.192311189300239 
883	 0.193147133690542 
884	 0.193834991636555 
885	 0.19446559245654 
886	 0.195105904777334 
887	 0.196013794474566 
888	 0.196912271168231 
889	 0.197404667732013 
890	 0.197071235486231 
891	 0.196233591835422 
892	 0.196109174306836 
893	 0.196646845246899 
894	 0.197481814454926 
895	 0.196139421605626 
896	 0.19499097295834 
897	 0.196988893997536 
898	 0.197829792129242 
899	 0.197586998270577 
900	 0.199048731470232 
901	 0.199078915934654 
902	 0.197568237869818 
903	 0.198804980469765 
904	 0.199649448677343 
905	 0.197970272182094 
906	 0.198760178454959 
907	 0.200448892252431 
908	 0.198947412230364 
909	 0.19798603770533 
910	 0.198394835189816 
911	 0.198976931376756 
912	 0.198847015258222 
913	 0.197828188861987 
914	 0.198552971779029 
915	 0.199771944397534 
916	 0.199649274779721 
917	 0.198623461937261 
918	 0.197937858053367 
919	 0.201031362929165 
920	 0.201581836083833 
921	 0.198360382797818 
922	 0.197405037526993 
923	 0.197471006017712 
924	 0.197251631965008 
925	 0.198286155502279 
926	 0.198580860879502 
927	 0.193097303255701 
928	 0.190463931435356 
929	 0.192763060268491 
930	 0.191869596832248 
931	 0.189393421814674 
932	 0.18722671392473 
933	 0.190489605725475 
934	 0.192628110778897 
935	 0.183405319793501 
936	 0.180957412592053 
937	 0.184694751316923 
938	 0.181342910101612 
939	 0.175995821155625 
940	 0.171970772700706 
941	 0.176543620795625 
942	 0.181119322849735 
943	 0.179637995497293 
944	 0.176889641278455 
945	 0.175286533620856 
946	 0.177381760362624 
947	 0.179119912988201 
948	 0.179099925544104 
949	 0.177720884927155 
950	 0.170604496591757 
951	 0.159430988348066 
952	 0.163127790267176 
953	 0.169631020167077 
954	 0.167156932312007 
955	 0.161790375174461 
956	 0.156896351978184 
957	 0.156330517489712 
958	 0.160640858732531 
959	 0.166455262075081 
960	 0.163954012812865 
961	 0.159763057455671 
962	 0.157515642351969 
963	 0.156603682865826 
964	 0.158246569064975 
965	 0.162971831998866 
966	 0.161533394552666 
967	 0.157143323258877 
968	 0.15884110187029 
969	 0.163323349363451 
970	 0.16810886600125 
971	 0.16815749865207 
972	 0.165573922046741 
973	 0.162233126732169 
974	 0.161167823403888 
975	 0.16283116604122 
976	 0.16681528695943 
977	 0.166176652387274 
978	 0.162759067644136 
979	 0.163675120603501 
980	 0.162565065967872 
981	 0.159666598379747 
982	 0.162653553793513 
983	 0.165247470933294 
984	 0.164303675596081 
985	 0.163064669877788 
986	 0.162691328632189 
987	 0.164126034344329 
988	 0.167445486691297 
989	 0.170765636257017 
990	 0.170679917994866 
991	 0.166282736140635 
992	 0.161272990638497 
993	 0.169776991100082 
994	 0.174559488757718 
995	 0.168434040814965 
996	 0.164592802501919 
997	 0.166040017482688 
998	 0.173408222997514 
999	 0.17305265311992 
1000	 0.169097968739969 
1001	 0.172790202077068 
1002	 0.176797217092975 
1003	 0.178615976804062 
1004	 0.177307536576747 
1005	 0.171432648814645 
1006	 0.164827745521835 
1007	 0.17784190187434 
1008	 0.18941393090721 
1009	 0.184058008472666 
1010	 0.182397683143615 
1011	 0.183220822873846 
1012	 0.18131239056899 
1013	 0.184457748808665 
1014	 0.190563996813479 
1015	 0.19112793691641 
1016	 0.187298564916706 
1017	 0.181913084699369 
1018	 0.185135825500547 
1019	 0.188404249464099 
1020	 0.187379673747973 
1021	 0.188643081404952 
1022	 0.188717397698996 
1023	 0.184853636137792 
1024	 0.19063887195418 
1025	 0.198394295195689 
1026	 0.192237069623277 
1027	 0.187469836349102 
1028	 0.188183016900125 
1029	 0.195316719195132 
1030	 0.195331835262321 
1031	 0.185785021488139 
1032	 0.180194358258911 
1033	 0.179729342649619 
1034	 0.184868285081621 
1035	 0.194920862959296 
1036	 0.198487270269997 
1037	 0.18709482428032 
1038	 0.202122723312708 
1039	 0.222963024459637 
1040	 0.204492007903161 
1041	 0.189592586230484 
1042	 0.184965290689549 
1043	 0.175384327415804 
1044	 0.184169767920556 
1045	 0.209141612516632 
1046	 0.205516411952062 
1047	 0.201327529322598 
1048	 0.208980734681895 
1049	 0.194797009255162 
1050	 0.181080722312499 
1051	 0.188810433927486 
1052	 0.180899846131009 
1053	 0.169354021198777 
1054	 0.180921429832838 
1055	 0.18538508618955 
1056	 0.183317682959415 
1057	 0.191782580579136 
1058	 0.200876501054444 
1059	 0.205572304538567 
1060	 0.196000938474342 
1061	 0.1898510272441 
1062	 0.189268745363288 
1063	 0.159691716097957 
1064	 0.135469928908964 
1065	 0.143433960800243 
1066	 0.164575815100304 
1067	 0.179666337363271 
1068	 0.170610407075932 
1069	 0.18602589439078 
1070	 0.20245464363353 
1071	 0.172327709247937 
1072	 0.168154457087083 
1073	 0.189259971221227 
1074	 0.188985561348524 
1075	 0.18722399497538 
