Wavelength	AVEI200270.asd
325	 8.37141648962457E-02 
326	 7.91651499788721E-02 
327	 7.76904185916715E-02 
328	 8.12060757047574E-02 
329	 8.58862937312232E-02 
330	 8.86510099301325E-02 
331	 8.20688168000437E-02 
332	 7.48893407676021E-02 
333	 7.57598290842326E-02 
334	 8.01334201106411E-02 
335	 8.41977361659581E-02 
336	 0.081297964492724 
337	 8.00621714914939E-02 
338	 8.17078015766252E-02 
339	 7.81997610099699E-02 
340	 7.41035778392564E-02 
341	 0.073853137360664 
342	 8.09130333441668E-02 
343	 8.79002518995373E-02 
344	 8.02352509752558E-02 
345	 7.61511034655139E-02 
346	 0.078468865909165 
347	 7.70469835434473E-02 
348	 7.56522006164409E-02 
349	 7.67003052537203E-02 
350	 7.66159257439319E-02 
351	 7.63432509187898E-02 
352	 7.81313554889068E-02 
353	 7.94578725117314E-02 
354	 7.90682831809207E-02 
355	 7.44600622557143E-02 
356	 7.26157258989746E-02 
357	 7.69474207694742E-02 
358	 7.93302416035166E-02 
359	 7.90041456693531E-02 
360	 7.64292142566741E-02 
361	 7.56168654535171E-02 
362	 7.69782069207675E-02 
363	 7.79234235661091E-02 
364	 7.84885743794096E-02 
365	 7.87699220746564E-02 
366	 7.97607739908589E-02 
367	 8.02581452546457E-02 
368	 7.85658293193193E-02 
369	 0.077677711527496 
370	 7.80686468889091E-02 
371	 7.90087861129498E-02 
372	 7.84826498048595E-02 
373	 7.59969799699436E-02 
374	 7.67544440818251E-02 
375	 7.79399604945361E-02 
376	 7.50683011956738E-02 
377	 7.51269766106176E-02 
378	 7.74811581475215E-02 
379	 7.42001685559402E-02 
380	 7.27069574511331E-02 
381	 7.61970580409895E-02 
382	 7.94400301996981E-02 
383	 0.080725220559324 
384	 7.86144284411259E-02 
385	 0.0770499212513 
386	 7.68472842841554E-02 
387	 7.68529467821099E-02 
388	 7.68251002331002E-02 
389	 7.66731070760057E-02 
390	 7.68612014291508E-02 
391	 7.72038081756768E-02 
392	 0.077441078349615 
393	 7.70240829503109E-02 
394	 7.63677366898986E-02 
395	 7.68267594818637E-02 
396	 7.79586408541936E-02 
397	 7.89991408533094E-02 
398	 7.71051494886995E-02 
399	 7.52174025444913E-02 
400	 7.63089774801259E-02 
401	 7.69803903888251E-02 
402	 7.69336409666518E-02 
403	 7.70181885611794E-02 
404	 7.73195885440346E-02 
405	 7.78485088117232E-02 
406	 7.83944830149158E-02 
407	 7.86465691624942E-02 
408	 7.82727187917637E-02 
409	 7.75211740267603E-02 
410	 7.69879970675633E-02 
411	 7.82511366097067E-02 
412	 7.87486001949329E-02 
413	 7.76921644918424E-02 
414	 7.84836093366062E-02 
415	 7.97154710296879E-02 
416	 7.91952990889495E-02 
417	 7.91202477098834E-02 
418	 7.96250185915284E-02 
419	 7.95576052610756E-02 
420	 0.079132687231143 
421	 7.86096835543208E-02 
422	 7.88391301704972E-02 
423	 0.079676486795557 
424	 8.07883517605624E-02 
425	 8.11060208197787E-02 
426	 8.06994027127513E-02 
427	 8.09732249162065E-02 
428	 0.081294122569318 
429	 8.12630294016738E-02 
430	 8.11073485353862E-02 
431	 8.11444314799902E-02 
432	 8.18715039144939E-02 
433	 0.081831240918278 
434	 8.11903538892192E-02 
435	 8.20568943711322E-02 
436	 0.08291916716449 
437	 8.28318433537557E-02 
438	 0.08296327119683 
439	 0.083196169098764 
440	 8.29950191941024E-02 
441	 0.082921019078594 
442	 8.31323722387615E-02 
443	 8.34684269679129E-02 
444	 8.39371813399143E-02 
445	 8.45319659099429E-02 
446	 8.51223749981758E-02 
447	 8.55682562035583E-02 
448	 8.56434273029314E-02 
449	 8.55009480105809E-02 
450	 8.53864179752003E-02 
451	 8.61591143841633E-02 
452	 8.69062093874737E-02 
453	 8.67179366889058E-02 
454	 8.65212040079892E-02 
455	 8.64745075401671E-02 
456	 8.63809744556567E-02 
457	 0.086805710888967 
458	 8.77455551449708E-02 
459	 8.78140958326843E-02 
460	 8.74857220622345E-02 
461	 8.74688742092694E-02 
462	 8.77783017161796E-02 
463	 8.83440856429263E-02 
464	 8.89231645127289E-02 
465	 8.93581001043735E-02 
466	 8.95196319456335E-02 
467	 0.089255705642924 
468	 8.90182665290694E-02 
469	 8.94688481677988E-02 
470	 8.98388393318311E-02 
471	 0.089952114254225 
472	 8.99976079623759E-02 
473	 8.99319017179872E-02 
474	 8.97967665326654E-02 
475	 9.01385853185146E-02 
476	 9.05743925247867E-02 
477	 9.02814954324717E-02 
478	 9.04905914481314E-02 
479	 9.12107059148196E-02 
480	 9.08360407828867E-02 
481	 9.06643688842528E-02 
482	 9.16595250969201E-02 
483	 9.19233942517434E-02 
484	 9.16469425692457E-02 
485	 9.20837002520861E-02 
486	 0.092446433843688 
487	 0.092495680495038 
488	 9.25118154667203E-02 
489	 9.24289356633638E-02 
490	 9.21958989713316E-02 
491	 0.092380878791024 
492	 9.28776131725742E-02 
493	 9.31066927217742E-02 
494	 9.32958041231086E-02 
495	 9.35247818636127E-02 
496	 9.36805172993738E-02 
497	 9.40106154377822E-02 
498	 9.48405133711375E-02 
499	 9.49204660401823E-02 
500	 9.43940896415567E-02 
501	 0.094851202718458 
502	 9.54442882723016E-02 
503	 9.56446271957651E-02 
504	 9.56205419122962E-02 
505	 9.55646276107187E-02 
506	 9.57368338681751E-02 
507	 9.62573422853891E-02 
508	 9.69466285017076E-02 
509	 9.69911194815131E-02 
510	 9.68342381644558E-02 
511	 9.68919414533537E-02 
512	 9.75116271941154E-02 
513	 9.83702615164676E-02 
514	 9.86093183840637E-02 
515	 9.86507958695998E-02 
516	 9.87202387202292E-02 
517	 9.92327557567362E-02 
518	 9.97625810436159E-02 
519	 9.98252849387945E-02 
520	 0.099711745473537 
521	 9.96647361929712E-02 
522	 0.100132189550123 
523	 0.10065216418686 
524	 0.101003808186088 
525	 0.101274003465996 
526	 0.101524391156078 
527	 0.101828717066905 
528	 0.102139387596574 
529	 0.102426436369846 
530	 0.10265940806194 
531	 0.10283065496179 
532	 0.102920558271064 
533	 0.102729009069312 
534	 0.102580874978633 
535	 0.103144388299788 
536	 0.103799086254968 
537	 0.104281277043314 
538	 0.104439763632181 
539	 0.104485733339143 
540	 0.104635137240489 
541	 0.104850956926195 
542	 0.105121680005871 
543	 0.105399728841382 
544	 0.105813767464538 
545	 0.106343535875191 
546	 0.106537611849089 
547	 0.106627156121112 
548	 0.10696531953086 
549	 0.107112316588844 
550	 0.107098929818458 
551	 0.107398425982532 
552	 0.107705127982528 
553	 0.107835731202275 
554	 0.107970368457362 
555	 0.108177110007952 
556	 0.108538042929758 
557	 0.108919144394713 
558	 0.109189227684229 
559	 0.109013884266127 
560	 0.108814254694942 
561	 0.108996754038946 
562	 0.109515760050295 
563	 0.110051330579841 
564	 0.109763771301267 
565	 0.109720520753884 
566	 0.110278476269948 
567	 0.110694043568653 
568	 0.110840076588595 
569	 0.110652090958173 
570	 0.110664374068261 
571	 0.110923972203569 
572	 0.111052934183739 
573	 0.111156250515374 
574	 0.11129163066995 
575	 0.111395976683787 
576	 0.111524529429834 
577	 0.111791389527334 
578	 0.112087726604954 
579	 0.112235737235529 
580	 0.111612693685665 
581	 0.11123286415953 
582	 0.111922819571409 
583	 0.112133496263631 
584	 0.111961242980814 
585	 0.112430109274692 
586	 0.112905890886227 
587	 0.113086645430067 
588	 0.112717429739795 
589	 0.112376904240081 
590	 0.112847250086847 
591	 0.113237843354784 
592	 0.113331564422327 
593	 0.1132151240205 
594	 0.113192850015987 
595	 0.113380671622438 
596	 0.113049095758073 
597	 0.112665861580495 
598	 0.113224816559441 
599	 0.113545068561881 
600	 0.113385464148783 
601	 0.113436567018503 
602	 0.113418648137395 
603	 0.113123568131598 
604	 0.113414286595269 
605	 0.114012602192192 
606	 0.113887444932808 
607	 0.113401704814006 
608	 0.112840555337451 
609	 0.113053009185585 
610	 0.113516389664993 
611	 0.113474667742572 
612	 0.113457265023569 
613	 0.113500410407127 
614	 0.113268280374389 
615	 0.113280729496441 
616	 0.113732275879182 
617	 0.11341042873623 
618	 0.112831949840109 
619	 0.113149569495853 
620	 0.113783718049915 
621	 0.114348000075612 
622	 0.113976880555884 
623	 0.113509511203878 
624	 0.113717138581965 
625	 0.114069522201215 
626	 0.114277753447134 
627	 0.113806580736584 
628	 0.11361291908147 
629	 0.113958303597587 
630	 0.113752453581447 
631	 0.113563727458452 
632	 0.114189867877148 
633	 0.114531940535038 
634	 0.11438651243226 
635	 0.11394825368873 
636	 0.113879184301712 
637	 0.114455241625535 
638	 0.114326519471925 
639	 0.113953348565458 
640	 0.114500759532041 
641	 0.114718960763543 
642	 0.114444816197317 
643	 0.114710466184404 
644	 0.115172147000736 
645	 0.115482238071056 
646	 0.115597189673256 
647	 0.115435223555571 
648	 0.114747747583144 
649	 0.114474856473742 
650	 0.114891413314244 
651	 0.115097035073333 
652	 0.114957164583611 
653	 0.11441795502766 
654	 0.114138043723722 
655	 0.114138902912788 
656	 0.113822540194962 
657	 0.113667307183632 
658	 0.113848471933718 
659	 0.113504530168318 
660	 0.11294359708349 
661	 0.112815382548389 
662	 0.11249361030063 
663	 0.111973227129044 
664	 0.112047697628072 
665	 0.111900751656105 
666	 0.110906870669782 
667	 0.110251655461187 
668	 0.110037444135765 
669	 0.109977357933066 
670	 0.109856570424643 
671	 0.109647413519668 
672	 0.109848174480657 
673	 0.110074010414141 
674	 0.109858213550525 
675	 0.109736265386487 
676	 0.109807646753967 
677	 0.109977273218485 
678	 0.110136991007677 
679	 0.11028026172335 
680	 0.110878322327157 
681	 0.111526495841874 
682	 0.111497975215341 
683	 0.111826321960848 
684	 0.112581271533567 
685	 0.112716634158797 
686	 0.113246328668526 
687	 0.114982455645418 
688	 0.115933659205712 
689	 0.116087540702194 
690	 0.116503463510579 
691	 0.117148973875087 
692	 0.118017014112551 
693	 0.118866506605286 
694	 0.119420153324186 
695	 0.119425771210226 
696	 0.119779604200516 
697	 0.120487439916121 
698	 0.12118186781073 
699	 0.12127710657818 
700	 0.120684189706261 
701	 0.121167451921583 
702	 0.121975474844507 
703	 0.121812270385623 
704	 0.121816847899675 
705	 0.122120576557791 
706	 0.122210707353181 
707	 0.122166984604536 
708	 0.122108294198519 
709	 0.122599399485151 
710	 0.123289634716088 
711	 0.123412850999925 
712	 0.123358164192814 
713	 0.123327339165878 
714	 0.123637981154673 
715	 0.124099904379429 
716	 0.124582224123449 
717	 0.125700717931551 
718	 0.127080417844498 
719	 0.126964201450636 
720	 0.126363029557803 
721	 0.125873680556495 
722	 0.125645505065062 
723	 0.125647397523862 
724	 0.125875934271926 
725	 0.126096647943612 
726	 0.126262206559968 
727	 0.126585792102396 
728	 0.126547643711201 
729	 0.126018747882656 
730	 0.126026940738991 
731	 0.126281742107093 
732	 0.126228254015117 
733	 0.126015466512576 
734	 0.125799411786704 
735	 0.12598251810874 
736	 0.126296531982214 
737	 0.126472765907154 
738	 0.125899562739456 
739	 0.1251375670959 
740	 0.125341467617913 
741	 0.125785706752835 
742	 0.12622479027444 
743	 0.126709085107087 
744	 0.126821534503919 
745	 0.126273474611354 
746	 0.125833760002296 
747	 0.125769812377913 
748	 0.126353775737637 
749	 0.1269637906742 
750	 0.127263529503568 
751	 0.126980687178142 
752	 0.126711945657768 
753	 0.127076157692447 
754	 0.12718839156873 
755	 0.127054504148323 
756	 0.127331173118745 
757	 0.126997935476754 
758	 0.125814332211051 
759	 0.126422673766975 
760	 0.129019587963615 
761	 0.130229786631515 
762	 0.13005654475857 
763	 0.129548700201825 
764	 0.130486341315518 
765	 0.130946571437801 
766	 0.130364098093293 
767	 0.129108680396569 
768	 0.128155640208506 
769	 0.128592931058963 
770	 0.129135302017383 
771	 0.129329705177751 
772	 0.128752091738303 
773	 0.128265676089217 
774	 0.128454783278909 
775	 0.128963535967915 
776	 0.129372346452375 
777	 0.129018377164162 
778	 0.129046281096098 
779	 0.129545772269727 
780	 0.129306784955122 
781	 0.128991730984504 
782	 0.129141097475642 
783	 0.129381386180063 
784	 0.129642990083431 
785	 0.129948596340863 
786	 0.129886976885539 
787	 0.12953111854035 
788	 0.129959078929116 
789	 0.130466534923664 
790	 0.130385155795801 
791	 0.130682013982701 
792	 0.131123968438896 
793	 0.130706711215965 
794	 0.13032956600251 
795	 0.130382683883735 
796	 0.131066081044598 
797	 0.131654853490267 
798	 0.131447067406754 
799	 0.131207588908231 
800	 0.131143804770865 
801	 0.131384147145859 
802	 0.131614646045862 
803	 0.131673557892116 
804	 0.131477534483355 
805	 0.131394284993659 
806	 0.13179078704859 
807	 0.131933487325278 
808	 0.131929221981247 
809	 0.132614181775239 
810	 0.132942922127564 
811	 0.132542185540678 
812	 0.132284128313233 
813	 0.132149379027157 
814	 0.132041615294046 
815	 0.132885408081002 
816	 0.134283789177302 
817	 0.134279146840781 
818	 0.134046422898716 
819	 0.134079356126951 
820	 0.133954070153607 
821	 0.133877865577829 
822	 0.134095070457841 
823	 0.1335659361694 
824	 0.132499098469037 
825	 0.131847052273419 
826	 0.132496703101244 
827	 0.134463957663774 
828	 0.135216864679161 
829	 0.134804264651904 
830	 0.133701157924824 
831	 0.133901749021864 
832	 0.135019016236947 
833	 0.134575212545907 
834	 0.133847420578672 
835	 0.133452051294869 
836	 0.1335899381621 
837	 0.134029407337676 
838	 0.134447922935801 
839	 0.13377268269131 
840	 0.132501906884453 
841	 0.132749516654074 
842	 0.132720874784346 
843	 0.13193824193297 
844	 0.132102594739978 
845	 0.133207407300918 
846	 0.134965886674392 
847	 0.134547538486022 
848	 0.132641547483191 
849	 0.133083663704229 
850	 0.133519970518378 
851	 0.13320632114997 
852	 0.133382044532685 
853	 0.13403236902139 
854	 0.134921558065638 
855	 0.134002197910861 
856	 0.132232257967322 
857	 0.133102001348505 
858	 0.133456257195013 
859	 0.132639152337708 
860	 0.132940075288575 
861	 0.133802638432828 
862	 0.134529340088665 
863	 0.134591036834644 
864	 0.134236145805001 
865	 0.134396006340448 
866	 0.134051207258494 
867	 0.133168955044449 
868	 0.133068694673708 
869	 0.133640680365026 
870	 0.134532085783992 
871	 0.13369916749126 
872	 0.132033195896599 
873	 0.131767102739671 
874	 0.13322101923177 
875	 0.135531837132282 
876	 0.134598331276046 
877	 0.13418187343948 
878	 0.13648495056862 
879	 0.136045557841007 
880	 0.134296353868548 
881	 0.134764018070806 
882	 0.135166315781945 
883	 0.134994647189416 
884	 0.134417228991224 
885	 0.134599751768806 
886	 0.136084745030099 
887	 0.137905872517644 
888	 0.138373185600068 
889	 0.135543116240067 
890	 0.133331711227102 
891	 0.13279766095809 
892	 0.133872594473631 
893	 0.134446498790199 
894	 0.133792139255722 
895	 0.134987730796497 
896	 0.136747016622401 
897	 0.137257110581465 
898	 0.138349574347317 
899	 0.139607590503978 
900	 0.139092102072734 
901	 0.139227062014812 
902	 0.140016797179252 
903	 0.137356432090196 
904	 0.136090394478586 
905	 0.139316481239723 
906	 0.138448602961463 
907	 0.135394172757248 
908	 0.135896311712825 
909	 0.136391753317423 
910	 0.136146345957713 
911	 0.13637125171245 
912	 0.135725944635624 
913	 0.133955791792215 
914	 0.134430017154066 
915	 0.136719393259475 
916	 0.139691530277975 
917	 0.140126013161953 
918	 0.138706962170004 
919	 0.139669661184184 
920	 0.137784394050724 
921	 0.13333690157721 
922	 0.13757567773931 
923	 0.140125734287066 
924	 0.132390213315935 
925	 0.132120993171157 
926	 0.137498185962601 
927	 0.137313552656057 
928	 0.13785273545476 
929	 0.139669531258585 
930	 0.135043561908224 
931	 0.13145643139802 
932	 0.135795392064703 
933	 0.145409684966945 
934	 0.151263969605611 
935	 0.141457139175355 
936	 0.140948362504539 
937	 0.148550762086692 
938	 0.143290085833715 
939	 0.142796783542953 
940	 0.150226078940053 
941	 0.156747106195491 
942	 0.158321606603606 
943	 0.152104034185508 
944	 0.138001302248728 
945	 0.126991535164971 
946	 0.136606663576572 
947	 0.144516407715395 
948	 0.144202062451078 
949	 0.132843645639605 
950	 0.131177283570051 
951	 0.143836589819311 
952	 0.142271641491194 
953	 0.138989786602661 
954	 0.146002039772079 
955	 0.150425468001077 
956	 0.152480328122461 
957	 0.156214254494053 
958	 0.157201434204061 
959	 0.154011426223044 
960	 0.144018125991207 
961	 0.1434745698339 
962	 0.155021119578572 
963	 0.149451699320561 
964	 0.14050830001375 
965	 0.143057625633502 
966	 0.149411545541792 
967	 0.152526565935088 
968	 0.140508858224765 
969	 0.137134842390586 
970	 0.145013624593987 
971	 0.148401350689254 
972	 0.14589223544827 
973	 0.138911209721469 
974	 0.142145585190158 
975	 0.147948535006919 
976	 0.146558938334916 
977	 0.144492588814174 
978	 0.143540217104517 
979	 0.145551802009776 
980	 0.140456209010687 
981	 0.130429727490247 
982	 0.13514685686846 
983	 0.140165985844522 
984	 0.138337325973157 
985	 0.137430093047519 
986	 0.135834664620051 
987	 0.131602452722593 
988	 0.129305094659073 
989	 0.131720599510561 
990	 0.142786026142962 
991	 0.145939925072998 
992	 0.139268860490112 
993	 0.133412348263785 
994	 0.134618076599584 
995	 0.143195419021387 
996	 0.140860271110112 
997	 0.134617752740334 
998	 0.132883959226234 
999	 0.134385198978552 
1000	 0.136035202690947 
1001	 0.132632877523283 
1002	 0.136073317908521 
1003	 0.144735927663479 
1004	 0.143407124945262 
1005	 0.139953622930248 
1006	 0.139395635395566 
1007	 0.150517619687202 
1008	 0.155465783449385 
1009	 0.142409053152992 
1010	 0.138298457288167 
1011	 0.142495828212457 
1012	 0.148095734874393 
1013	 0.142701321672481 
1014	 0.131003229900478 
1015	 0.131302748154544 
1016	 0.141580533514484 
1017	 0.156406007475688 
1018	 0.159865185284178 
1019	 0.155389087558823 
1020	 0.146662016929001 
1021	 0.142475504036623 
1022	 0.143621300999597 
1023	 0.148521542810692 
1024	 0.141533780222872 
1025	 0.132746169234224 
1026	 0.143223831647449 
1027	 0.152557918897781 
1028	 0.154384257790421 
1029	 0.144070556162436 
1030	 0.144970710426226 
1031	 0.159446088999003 
1032	 0.157661120099848 
1033	 0.153825678902809 
1034	 0.155801057341247 
1035	 0.146834202422765 
1036	 0.139615472974579 
1037	 0.148092613485659 
1038	 0.149505408576784 
1039	 0.144674557197475 
1040	 0.141345478377379 
1041	 0.146192485120022 
1042	 0.153697335555789 
1043	 0.143174995848935 
1044	 0.133460614505191 
1045	 0.13000955645181 
1046	 0.118844711154138 
1047	 0.122559133703034 
1048	 0.148698126636156 
1049	 0.158264496480918 
1050	 0.149143006487934 
1051	 0.126812162939949 
1052	 0.13807421743878 
1053	 0.150459690127984 
1054	 0.108391099567343 
1055	 0.111882377441447 
1056	 0.14897018275977 
1057	 0.1320451252252 
1058	 0.118804942774277 
1059	 0.118019254805652 
1060	 9.18700019629431E-02 
1061	 8.93756452043552E-02 
1062	 0.125487861508561 
1063	 0.168562179200477 
1064	 0.179719089932369 
1065	 0.141116004307909 
1066	 0.160556614434868 
1067	 0.195063507779643 
1068	 0.186165067579933 
1069	 0.14927513873587 
1070	 0.116606042140633 
1071	 0.123999835194265 
1072	 0.134337995196278 
1073	 0.150397426920384 
1074	 0.205570431831039 
1075	 0.20232200825743 
