Wavelength	AVEI200165.asd
325	 4.50320402191769E-02 
326	 4.24706868538431E-02 
327	 3.96878602499165E-02 
328	 4.29677349405502E-02 
329	 4.55321703950545E-02 
330	 4.49109457365563E-02 
331	 4.26245765698063E-02 
332	 4.00219810655532E-02 
333	 3.83614851148137E-02 
334	 3.93187560974374E-02 
335	 4.16366714060026E-02 
336	 4.26212389916523E-02 
337	 3.97130149437858E-02 
338	 3.43189846781952E-02 
339	 0.036851191374172 
340	 3.91616426602503E-02 
341	 3.51699459837012E-02 
342	 3.61729693734646E-02 
343	 4.05135725872557E-02 
344	 4.21915557648129E-02 
345	 4.12579135099113E-02 
346	 3.90061227983584E-02 
347	 4.05873817444879E-02 
348	 4.19553535345833E-02 
349	 0.040392906098012 
350	 0.037400323353965 
351	 3.51802556362023E-02 
352	 3.66877553068805E-02 
353	 3.87005124664773E-02 
354	 3.98079372119343E-02 
355	 3.82564331347546E-02 
356	 3.73754052003976E-02 
357	 3.89531560639607E-02 
358	 4.05495217414543E-02 
359	 4.07051952999527E-02 
360	 3.77925516874646E-02 
361	 3.62064835450272E-02 
362	 3.66023385065395E-02 
363	 0.036939664826165 
364	 3.75437875575492E-02 
365	 3.83823911390188E-02 
366	 3.86197439083088E-02 
367	 3.79231263216338E-02 
368	 3.59616779274419E-02 
369	 3.60876642078928E-02 
370	 3.79033441519214E-02 
371	 3.74541710313303E-02 
372	 3.63874038209035E-02 
373	 3.57630866637808E-02 
374	 3.66019887818219E-02 
375	 3.77046689736571E-02 
376	 0.037325753121269 
377	 0.035893978031643 
378	 0.034071930985472 
379	 0.033438891026364 
380	 3.37641522126092E-02 
381	 3.47434471770727E-02 
382	 3.53216846902736E-02 
383	 3.56939308023239E-02 
384	 3.62574216718341E-02 
385	 0.035166822348288 
386	 3.32373703103796E-02 
387	 3.42455949210681E-02 
388	 3.54486822912509E-02 
389	 3.54000881619936E-02 
390	 3.37542428986221E-02 
391	 3.23470783331201E-02 
392	 3.32180147394774E-02 
393	 0.034790003431083 
394	 0.035831716235088 
395	 3.38130278459384E-02 
396	 3.31736453522258E-02 
397	 3.50849511078866E-02 
398	 3.46585425697227E-02 
399	 3.36320479149203E-02 
400	 0.034140881904827 
401	 3.40011541616646E-02 
402	 3.32829930495874E-02 
403	 3.29959755275874E-02 
404	 3.32422780955056E-02 
405	 0.033788771977631 
406	 0.032837165480752 
407	 3.18425305256713E-02 
408	 3.27224741392476E-02 
409	 3.31890635085652E-02 
410	 3.29502950520864E-02 
411	 3.26922759996779E-02 
412	 3.26337707918327E-02 
413	 3.28326221608339E-02 
414	 0.032809619579344 
415	 0.032770835416054 
416	 3.30387938208476E-02 
417	 3.30806132093344E-02 
418	 3.28572433807171E-02 
419	 3.25984886540782E-02 
420	 3.25760842202678E-02 
421	 0.032886897103885 
422	 0.033110446890984 
423	 3.30479795434344E-02 
424	 3.24940017355098E-02 
425	 3.21863826966708E-02 
426	 3.23017933277388E-02 
427	 3.27323022745158E-02 
428	 3.29086861452782E-02 
429	 3.25418236771153E-02 
430	 3.25535390109703E-02 
431	 3.27788484621265E-02 
432	 3.27373335614598E-02 
433	 3.26262221569073E-02 
434	 3.24759730466742E-02 
435	 3.22090268726045E-02 
436	 0.031949232515564 
437	 3.18161241795248E-02 
438	 3.21297313085745E-02 
439	 3.25485508261063E-02 
440	 3.23875915366245E-02 
441	 3.21617763583776E-02 
442	 3.20652007446037E-02 
443	 3.22195742014437E-02 
444	 3.23370773534549E-02 
445	 3.22031594106183E-02 
446	 3.21554709100466E-02 
447	 3.22384858413293E-02 
448	 3.24283232993432E-02 
449	 3.25998200046899E-02 
450	 3.26902646041557E-02 
451	 3.26877609880706E-02 
452	 3.26299094290593E-02 
453	 3.25672425777967E-02 
454	 3.27548657492011E-02 
455	 3.29834779045115E-02 
456	 3.24969225686515E-02 
457	 3.22345099005171E-02 
458	 3.25246573949994E-02 
459	 0.032805557496074 
460	 3.28634176715387E-02 
461	 3.25212530844247E-02 
462	 3.23209305167776E-02 
463	 3.23656863968136E-02 
464	 3.25317325608332E-02 
465	 3.26869574340287E-02 
466	 3.27167884093975E-02 
467	 3.24057176417991E-02 
468	 3.21860925250816E-02 
469	 3.27127318008305E-02 
470	 3.28080050926681E-02 
471	 3.24296365357113E-02 
472	 3.26201819515735E-02 
473	 3.27946795726935E-02 
474	 3.25945244349111E-02 
475	 3.23197620710085E-02 
476	 3.20952047470579E-02 
477	 3.20331111309995E-02 
478	 3.23601424746082E-02 
479	 0.032898991633774 
480	 3.27006896986502E-02 
481	 3.23381340184623E-02 
482	 3.23180068101506E-02 
483	 3.27074122083775E-02 
484	 3.31556876743332E-02 
485	 3.27486002008621E-02 
486	 3.26700163588399E-02 
487	 0.03314461829282 
488	 3.28879229569528E-02 
489	 3.24837530111631E-02 
490	 3.25997859049335E-02 
491	 3.28833841365227E-02 
492	 3.31455608385159E-02 
493	 3.30990619179118E-02 
494	 3.29202352824992E-02 
495	 3.27521884182205E-02 
496	 3.28882466887388E-02 
497	 3.32488368346654E-02 
498	 3.36928697866954E-02 
499	 3.38687823975792E-02 
500	 3.38013209238906E-02 
501	 3.39284841927843E-02 
502	 3.40769736212786E-02 
503	 3.41558333626302E-02 
504	 3.42394889660726E-02 
505	 0.034507515457035 
506	 3.52564448095046E-02 
507	 3.57497215630643E-02 
508	 3.58748880005198E-02 
509	 3.61191508299532E-02 
510	 3.64826061449607E-02 
511	 3.69465296884187E-02 
512	 3.74054821363186E-02 
513	 3.77991310707746E-02 
514	 3.79849852430508E-02 
515	 0.038519696989435 
516	 3.94481019237575E-02 
517	 3.97953644393424E-02 
518	 4.00078196353468E-02 
519	 0.040632021516383 
520	 4.13001168896386E-02 
521	 4.20630905609385E-02 
522	 4.34045957936171E-02 
523	 4.41611641766155E-02 
524	 0.043990251850605 
525	 4.44485698588547E-02 
526	 4.53035717375434E-02 
527	 4.59806089024473E-02 
528	 4.65477694660215E-02 
529	 4.70116219555962E-02 
530	 4.73981764293437E-02 
531	 4.79105045379365E-02 
532	 4.86362658741373E-02 
533	 4.90473197572956E-02 
534	 4.92347399923675E-02 
535	 4.95161224738747E-02 
536	 4.99058966801521E-02 
537	 5.03845445851323E-02 
538	 5.07757669192739E-02 
539	 5.11190737736858E-02 
540	 5.14558962260619E-02 
541	 5.17067238522988E-02 
542	 5.19078505491688E-02 
543	 5.21582764852819E-02 
544	 0.052580864698951 
545	 5.31575517390707E-02 
546	 5.34468328672373E-02 
547	 5.35473263200671E-02 
548	 5.36433046350931E-02 
549	 5.38333822072882E-02 
550	 5.40796981791013E-02 
551	 5.41021760319364E-02 
552	 0.054245636369181 
553	 5.46835115423785E-02 
554	 5.49427839741493E-02 
555	 5.49911542623372E-02 
556	 5.48859331784029E-02 
557	 0.054904024096229 
558	 5.50762759150064E-02 
559	 5.50264968555018E-02 
560	 5.49809905001537E-02 
561	 5.51359811834409E-02 
562	 5.50360399560678E-02 
563	 5.47641244163493E-02 
564	 5.47647010706349E-02 
565	 5.47254074653782E-02 
566	 5.45306867309023E-02 
567	 5.42968920927488E-02 
568	 5.40202142795316E-02 
569	 5.36839753534892E-02 
570	 0.053378277576914 
571	 5.30900885495676E-02 
572	 5.26434858381814E-02 
573	 5.23681734070499E-02 
574	 5.24208593600189E-02 
575	 5.23431044701518E-02 
576	 5.21155530288158E-02 
577	 5.18238355057048E-02 
578	 5.16033560081907E-02 
579	 5.14930855848047E-02 
580	 5.14245929647672E-02 
581	 5.12831654010555E-02 
582	 5.09780951010137E-02 
583	 5.06358679296384E-02 
584	 5.03540426998319E-02 
585	 5.03113207207732E-02 
586	 5.02550494961051E-02 
587	 5.01180625297771E-02 
588	 5.02426520011484E-02 
589	 5.02640266394408E-02 
590	 4.96836588038389E-02 
591	 4.92643873973843E-02 
592	 4.91801492969233E-02 
593	 0.049261520119406 
594	 4.94686186570416E-02 
595	 4.97017695505752E-02 
596	 4.94916711742362E-02 
597	 4.90524906409395E-02 
598	 4.88544105123171E-02 
599	 4.87636695391112E-02 
600	 4.87464955296419E-02 
601	 4.88014955106319E-02 
602	 4.87314223945969E-02 
603	 4.84077397335682E-02 
604	 4.84732541227572E-02 
605	 4.87980980824193E-02 
606	 0.04883777892173 
607	 0.048415843184093 
608	 4.76137955695253E-02 
609	 4.75051676024523E-02 
610	 4.76544440584527E-02 
611	 4.73872190656253E-02 
612	 4.70446449067247E-02 
613	 4.67780356902251E-02 
614	 0.046871279691306 
615	 4.67935592045817E-02 
616	 4.62642536240794E-02 
617	 4.58798437310945E-02 
618	 4.56293659324834E-02 
619	 4.53135766547141E-02 
620	 4.52984675361568E-02 
621	 4.54988357282432E-02 
622	 4.50601546606857E-02 
623	 4.46586632261819E-02 
624	 4.49056924761017E-02 
625	 4.52256968926396E-02 
626	 4.54306535524177E-02 
627	 4.53701916629648E-02 
628	 4.51482686917559E-02 
629	 4.48664016365087E-02 
630	 4.47895580962758E-02 
631	 4.48404045449756E-02 
632	 4.48871439443127E-02 
633	 0.04492667358827 
634	 4.48929676127244E-02 
635	 0.044650509393438 
636	 4.41987943432722E-02 
637	 0.043612614214341 
638	 4.34298449739696E-02 
639	 4.34428749371101E-02 
640	 4.31653589986808E-02 
641	 4.27450777411238E-02 
642	 4.22561028168852E-02 
643	 4.18608137957499E-02 
644	 4.14242647639077E-02 
645	 4.08300535383404E-02 
646	 4.02388190854205E-02 
647	 3.98304581272464E-02 
648	 4.00344255672977E-02 
649	 0.040023769485815 
650	 3.95393427437904E-02 
651	 3.92998321647531E-02 
652	 3.91075368632993E-02 
653	 3.86568894011575E-02 
654	 3.82786806764305E-02 
655	 3.81261989331333E-02 
656	 3.84999721353686E-02 
657	 3.87154818266555E-02 
658	 3.83566550706737E-02 
659	 3.76807215090292E-02 
660	 3.70682142229116E-02 
661	 0.03706710236785 
662	 3.69122216498846E-02 
663	 3.64071945512674E-02 
664	 3.56899798239054E-02 
665	 3.52541901075883E-02 
666	 3.54806465942531E-02 
667	 3.58980386843977E-02 
668	 3.61300151886962E-02 
669	 3.54954385635511E-02 
670	 3.49535342222067E-02 
671	 3.48093120903717E-02 
672	 3.44657262970114E-02 
673	 3.42276332175361E-02 
674	 3.44739870995886E-02 
675	 3.46537272054451E-02 
676	 3.46742740299619E-02 
677	 3.46598934918802E-02 
678	 3.47712504521945E-02 
679	 3.50721987166588E-02 
680	 3.52756791832243E-02 
681	 0.03547465057091 
682	 0.035868020255427 
683	 3.63557352538001E-02 
684	 3.69557754427141E-02 
685	 3.78298380354086E-02 
686	 3.90318624506447E-02 
687	 4.05748204610755E-02 
688	 4.20063825233231E-02 
689	 4.33120592502476E-02 
690	 4.49465439096601E-02 
691	 4.67653446669999E-02 
692	 4.88138502455468E-02 
693	 5.11447235318151E-02 
694	 5.38751881895727E-02 
695	 5.69638775801924E-02 
696	 5.97404058251819E-02 
697	 6.22976946598938E-02 
698	 6.53609694253088E-02 
699	 6.88183753923297E-02 
700	 7.25203105794238E-02 
701	 7.60620448321221E-02 
702	 7.94559763465611E-02 
703	 8.28188267272798E-02 
704	 8.61253627728757E-02 
705	 8.94743736317954E-02 
706	 9.30402403764713E-02 
707	 9.65669993417398E-02 
708	 9.98727444642199E-02 
709	 0.102982892019741 
710	 0.106090540734084 
711	 0.109602870869336 
712	 0.112636052160212 
713	 0.115099677738377 
714	 0.118040535099156 
715	 0.120887632710448 
716	 0.1232149245247 
717	 0.125314874333615 
718	 0.127687275670463 
719	 0.131294840057271 
720	 0.13404403431 
721	 0.135395718666212 
722	 0.137387722011034 
723	 0.139845610219974 
724	 0.142317819380236 
725	 0.14397657378607 
726	 0.144876743474942 
727	 0.146322483336263 
728	 0.148072731239642 
729	 0.149929295589406 
730	 0.151299954590181 
731	 0.152298446084442 
732	 0.153180137107735 
733	 0.154355416218488 
734	 0.155724481690633 
735	 0.156466474183836 
736	 0.157354610134121 
737	 0.158773960843446 
738	 0.159584485855257 
739	 0.160147596295719 
740	 0.161471934264544 
741	 0.162203346009354 
742	 0.162186526648578 
743	 0.162537798145803 
744	 0.163302257707576 
745	 0.164435251287264 
746	 0.165227357191768 
747	 0.165682031391477 
748	 0.166132614605805 
749	 0.166789221747798 
750	 0.167576754697 
751	 0.16754806496099 
752	 0.167453210912751 
753	 0.168124940382433 
754	 0.168661579973378 
755	 0.169007891173235 
756	 0.169602391317694 
757	 0.169958944719127 
758	 0.169919906293715 
759	 0.170022402942157 
760	 0.170317519802092 
761	 0.170439168796977 
762	 0.17068160737924 
763	 0.171188654017379 
764	 0.172132097044828 
765	 0.17300278632529 
766	 0.173522329171421 
767	 0.173410092850526 
768	 0.173345038329009 
769	 0.174110279115689 
770	 0.174685080784042 
771	 0.174914042748618 
772	 0.175210356375868 
773	 0.175433637311054 
774	 0.175547768091991 
775	 0.176038969579759 
776	 0.176762594456229 
777	 0.177367370374917 
778	 0.177702716848234 
779	 0.177709209139364 
780	 0.177362633886248 
781	 0.177349384311913 
782	 0.178146362501308 
783	 0.178766663087645 
784	 0.179078140708595 
785	 0.179180960804689 
786	 0.179305470295041 
787	 0.179541504004836 
788	 0.179811388831911 
789	 0.180034662047198 
790	 0.180157988571606 
791	 0.180525139323489 
792	 0.180959367677899 
793	 0.180859688199983 
794	 0.180914314122661 
795	 0.181218748969497 
796	 0.180824200973434 
797	 0.18066615599387 
798	 0.181657926356318 
799	 0.182449700023479 
800	 0.182720911843724 
801	 0.182323494484869 
802	 0.182159807898706 
803	 0.18255263226957 
804	 0.182847762647442 
805	 0.183192871335273 
806	 0.183782610435199 
807	 0.184234495978265 
808	 0.184550231473293 
809	 0.184988624758264 
810	 0.185386996125292 
811	 0.185599675745861 
812	 0.185169715688617 
813	 0.184739476483217 
814	 0.18521587880399 
815	 0.185808186818945 
816	 0.186381455774969 
817	 0.187324223772488 
818	 0.187584817773714 
819	 0.187042174867884 
820	 0.187677463273077 
821	 0.188525021491468 
822	 0.188320932625123 
823	 0.18879165363994 
824	 0.1898470100693 
825	 0.190233743442237 
826	 0.190356212120152 
827	 0.190410438859199 
828	 0.190554494301181 
829	 0.190732971159474 
830	 0.19085093862267 
831	 0.190947536189432 
832	 0.19119612654449 
833	 0.192117369101883 
834	 0.192748196883129 
835	 0.192670464340273 
836	 0.192096758948108 
837	 0.191839299642457 
838	 0.192737453565518 
839	 0.193777668677766 
840	 0.194484699397623 
841	 0.19419251737714 
842	 0.194079052985963 
843	 0.194560048199087 
844	 0.194770175223031 
845	 0.194652294684229 
846	 0.194265361813558 
847	 0.194647888002911 
848	 0.195476130658951 
849	 0.195125268451573 
850	 0.194983838993879 
851	 0.195411677939605 
852	 0.194984325114672 
853	 0.194474240445787 
854	 0.194793618465797 
855	 0.195319821248323 
856	 0.195773705024638 
857	 0.19582931810917 
858	 0.19576869880011 
859	 0.195712773281194 
860	 0.195574210044009 
861	 0.196045491824436 
862	 0.197587708538154 
863	 0.197166122081484 
864	 0.195743971940475 
865	 0.197045220893814 
866	 0.197656762297738 
867	 0.196977780053648 
868	 0.197838731204847 
869	 0.198919380161256 
870	 0.199117542564824 
871	 0.199514139026114 
872	 0.200022411236386 
873	 0.20013111283979 
874	 0.200777913860997 
875	 0.201747200932737 
876	 0.200792772972557 
877	 0.20074556705442 
878	 0.203255469214925 
879	 0.204289350914695 
880	 0.20407058746944 
881	 0.203892453242133 
882	 0.204714265987369 
883	 0.206321011546559 
884	 0.206954947334373 
885	 0.206539890884424 
886	 0.205504774261507 
887	 0.207109049204885 
888	 0.209374232011034 
889	 0.209237030194404 
890	 0.208418392548609 
891	 0.207600974279509 
892	 0.20756410322959 
893	 0.208049457197899 
894	 0.208771245808333 
895	 0.208739621288551 
896	 0.208258052557935 
897	 0.207880863769731 
898	 0.208142647559262 
899	 0.2091930038292 
900	 0.211140386344527 
901	 0.211904577540754 
902	 0.211198846935834 
903	 0.211590746077646 
904	 0.210726426960726 
905	 0.207411886519106 
906	 0.208725534338175 
907	 0.21216519039092 
908	 0.211442599410612 
909	 0.210627328505945 
910	 0.210678499659013 
911	 0.210970210264449 
912	 0.209974800179806 
913	 0.207588670939999 
914	 0.209113964042781 
915	 0.211847260399988 
916	 0.211883689586274 
917	 0.211360998282179 
918	 0.211206065631839 
919	 0.21303395225657 
920	 0.212854587172804 
921	 0.210313235535607 
922	 0.211373962602937 
923	 0.212669207520539 
924	 0.211061711933775 
925	 0.209848089026709 
926	 0.208874451545548 
927	 0.206491654258102 
928	 0.205452099378302 
929	 0.205776470696261 
930	 0.202121132655782 
931	 0.196408345286657 
932	 0.191324944800878 
933	 0.193709788225829 
934	 0.198828324790384 
935	 0.197516083275165 
936	 0.196074364457202 
937	 0.195114003987618 
938	 0.192258097417133 
939	 0.190289411571642 
940	 0.189603604050834 
941	 0.187486313583182 
942	 0.186489073636881 
943	 0.187537738810507 
944	 0.18127576175713 
945	 0.174273348014139 
946	 0.178237614808746 
947	 0.185429995810552 
948	 0.190706686163324 
949	 0.185691630366563 
950	 0.176970082209754 
951	 0.169218555764251 
952	 0.169833252610287 
953	 0.17179465127487 
954	 0.169058338886297 
955	 0.173650895821785 
956	 0.179658502025193 
957	 0.173588578844906 
958	 0.17090276672898 
959	 0.173384184529442 
960	 0.173496018995525 
961	 0.169563613000611 
962	 0.162645474975592 
963	 0.162067152549948 
964	 0.163925158396589 
965	 0.164070349828964 
966	 0.167152477119966 
967	 0.170041580304894 
968	 0.16524852212478 
969	 0.164453496272765 
970	 0.168990515437515 
971	 0.171599979833226 
972	 0.17081253742942 
973	 0.166932644410281 
974	 0.167617433156288 
975	 0.169700520808133 
976	 0.168954917161697 
977	 0.167811689230778 
978	 0.167565526717402 
979	 0.170272228163805 
980	 0.16950014998705 
981	 0.165807396453677 
982	 0.168705062798369 
983	 0.172113772471662 
984	 0.172462398563095 
985	 0.169767648210452 
986	 0.167827033981791 
987	 0.170551188840917 
988	 0.175240153910685 
989	 0.178287201118496 
990	 0.173612711383049 
991	 0.170122720999186 
992	 0.170532168823983 
993	 0.173783836630284 
994	 0.177395715782216 
995	 0.179212760742005 
996	 0.175240683435766 
997	 0.173334897279897 
998	 0.180264413741383 
999	 0.180975142368456 
1000	 0.177761464110491 
1001	 0.17904351346132 
1002	 0.17832693428727 
1003	 0.176128283363741 
1004	 0.179336157568586 
1005	 0.180233834698636 
1006	 0.178080930794656 
1007	 0.186627775523203 
1008	 0.193686413670133 
1009	 0.189990450836644 
1010	 0.184445908857994 
1011	 0.181964773536442 
1012	 0.187146859085393 
1013	 0.192599442170901 
1014	 0.196359379426079 
1015	 0.198791242078167 
1016	 0.195410743434888 
1017	 0.188234018738342 
1018	 0.191486313932941 
1019	 0.191793699568349 
1020	 0.184842268160606 
1021	 0.194096136211276 
1022	 0.203016880514237 
1023	 0.195371091466287 
1024	 0.199380813361825 
1025	 0.209773318348824 
1026	 0.210578853596528 
1027	 0.202821495558514 
1028	 0.192444549865139 
1029	 0.196094150052588 
1030	 0.200356676553051 
1031	 0.200309019635301 
1032	 0.196000080428374 
1033	 0.199627152857014 
1034	 0.214773139253631 
1035	 0.21170864505626 
1036	 0.204735648299501 
1037	 0.210824618304485 
1038	 0.213027257134381 
1039	 0.212207605127526 
1040	 0.214657428326733 
1041	 0.211598463506144 
1042	 0.204227143140041 
1043	 0.202888208831037 
1044	 0.202944766901944 
1045	 0.204126359888377 
1046	 0.213294094279878 
1047	 0.21256459119983 
1048	 0.195836653681169 
1049	 0.193843068899275 
1050	 0.200731772442573 
1051	 0.206623162849787 
1052	 0.203839221358588 
1053	 0.194720174520919 
1054	 0.186470125275232 
1055	 0.187360612717151 
1056	 0.193377183463462 
1057	 0.189694351143134 
1058	 0.187332124827746 
1059	 0.190477792610875 
1060	 0.203957533218558 
1061	 0.205425413727295 
1062	 0.188904331308907 
1063	 0.17935509219595 
1064	 0.178169069602437 
1065	 0.183526882800074 
1066	 0.185170749762361 
1067	 0.179442678013065 
1068	 0.166265129525994 
1069	 0.181827136779762 
1070	 0.200593750435784 
1071	 0.174939697325861 
1072	 0.189044671150272 
1073	 0.227168542929822 
1074	 0.195091270736453 
1075	 0.185710977450695 
