Wavelength	AVEI200140.asd
325	 0.04655721834928 
326	 0.042924558288476 
327	 3.43597528690704E-02 
328	 3.83865459642143E-02 
329	 4.16674146432718E-02 
330	 4.00948295316375E-02 
331	 3.95905364233656E-02 
332	 3.95862744589511E-02 
333	 0.039187499842675 
334	 3.83429883591327E-02 
335	 3.74914761466045E-02 
336	 3.80549842080281E-02 
337	 3.58862575746644E-02 
338	 3.18758542629467E-02 
339	 3.62762120819659E-02 
340	 4.04495516126065E-02 
341	 3.77949753403853E-02 
342	 3.71798173226382E-02 
343	 0.038475586129892 
344	 0.038880398791772 
345	 3.84733412354634E-02 
346	 3.76228474651056E-02 
347	 3.76055918668686E-02 
348	 3.87412121512501E-02 
349	 4.05939352655167E-02 
350	 3.77476606488155E-02 
351	 3.39998358601402E-02 
352	 3.61910044532046E-02 
353	 3.88935596196917E-02 
354	 4.02490911171054E-02 
355	 3.89269697800095E-02 
356	 3.76802141383357E-02 
357	 0.038135933618512 
358	 3.91601909991509E-02 
359	 3.96250196684228E-02 
360	 3.81612302889953E-02 
361	 3.62499537517409E-02 
362	 3.47377014037907E-02 
363	 3.45831867456867E-02 
364	 3.59055342283625E-02 
365	 3.82464280506006E-02 
366	 3.90368179729949E-02 
367	 3.82945011464156E-02 
368	 3.64373092869556E-02 
369	 3.49672422740495E-02 
370	 3.45014781140085E-02 
371	 3.56105836711203E-02 
372	 3.62840788358487E-02 
373	 3.55449017163778E-02 
374	 3.49297202916651E-02 
375	 3.48845971892468E-02 
376	 3.57362468343941E-02 
377	 3.48488341085812E-02 
378	 3.25620289168863E-02 
379	 3.19417021508515E-02 
380	 0.032590784158491 
381	 3.40750483258521E-02 
382	 3.50743809780619E-02 
383	 3.53184337264257E-02 
384	 0.034689092901601 
385	 3.41038116238537E-02 
386	 3.38452425250624E-02 
387	 3.38639292884118E-02 
388	 0.033984705756009 
389	 3.40096132464943E-02 
390	 3.34298095115045E-02 
391	 3.27933511988535E-02 
392	 3.27533809552487E-02 
393	 3.27976232559512E-02 
394	 3.29604744861748E-02 
395	 3.37039737148635E-02 
396	 3.42364651922074E-02 
397	 3.41376351815742E-02 
398	 3.30953478516249E-02 
399	 3.23849021386329E-02 
400	 3.31935992046288E-02 
401	 3.33052713052125E-02 
402	 0.032662843537471 
403	 3.20129165891481E-02 
404	 3.20765577289277E-02 
405	 3.28369335720759E-02 
406	 3.21372800477241E-02 
407	 3.12585761072516E-02 
408	 3.19578352470101E-02 
409	 3.25491173848445E-02 
410	 3.26332284450949E-02 
411	 3.22436218882205E-02 
412	 3.17168138541264E-02 
413	 3.13230795259398E-02 
414	 3.15005441917543E-02 
415	 3.18463715775738E-02 
416	 3.18014013965315E-02 
417	 3.20141501022491E-02 
418	 3.23958119817956E-02 
419	 3.22028621387422E-02 
420	 3.20919455199978E-02 
421	 3.23694254680511E-02 
422	 3.25142174246833E-02 
423	 0.032517838682497 
424	 3.24680964074104E-02 
425	 3.20763736590052E-02 
426	 3.15210087391683E-02 
427	 3.16532496425479E-02 
428	 3.18584120411264E-02 
429	 0.031781659807866 
430	 3.20454203693931E-02 
431	 3.23628189010739E-02 
432	 3.21334020827799E-02 
433	 3.21150194746392E-02 
434	 3.22568303422917E-02 
435	 3.15363833194373E-02 
436	 3.10532992528722E-02 
437	 3.14696860940578E-02 
438	 3.18050047258847E-02 
439	 3.18886420108155E-02 
440	 3.16756834625303E-02 
441	 3.14975250058906E-02 
442	 3.14937055495503E-02 
443	 3.17635362590869E-02 
444	 3.18220304658971E-02 
445	 3.13490232551856E-02 
446	 3.13591005838497E-02 
447	 3.16569155160309E-02 
448	 3.13759204626085E-02 
449	 3.14375549741083E-02 
450	 3.19559302422756E-02 
451	 3.19108839448667E-02 
452	 0.031751379048057 
453	 3.19582354655934E-02 
454	 3.21064838885519E-02 
455	 3.20950132824182E-02 
456	 3.18372537699423E-02 
457	 3.17732099910912E-02 
458	 3.20194653472151E-02 
459	 3.20377162628102E-02 
460	 3.19395583772127E-02 
461	 0.031908439451183 
462	 3.16873315612253E-02 
463	 3.14518254395482E-02 
464	 3.19263011084304E-02 
465	 3.22589020025562E-02 
466	 3.20364752292593E-02 
467	 3.17689108919088E-02 
468	 3.16326034509179E-02 
469	 3.17933622823202E-02 
470	 0.031796262747166 
471	 3.16461691828318E-02 
472	 0.031852748756494 
473	 3.19659669139412E-02 
474	 3.17306457038333E-02 
475	 3.15692361652148E-02 
476	 0.031504300905711 
477	 3.14460464643885E-02 
478	 0.031711183266766 
479	 0.032151859523274 
480	 3.18150370091283E-02 
481	 3.13772635826868E-02 
482	 3.14191534590053E-02 
483	 3.18645191234058E-02 
484	 3.23204797629603E-02 
485	 3.18330342048802E-02 
486	 3.16984548273038E-02 
487	 3.22054406262387E-02 
488	 3.21066769183119E-02 
489	 3.19579628466174E-02 
490	 3.23683910768697E-02 
491	 3.24877079081416E-02 
492	 3.22814298073913E-02 
493	 3.20763558815631E-02 
494	 3.20326358921243E-02 
495	 0.032206188962695 
496	 3.23259378381705E-02 
497	 3.24894326122655E-02 
498	 0.032859908875592 
499	 3.27225641331269E-02 
500	 3.22843453009219E-02 
501	 3.28550022871191E-02 
502	 3.34805870927773E-02 
503	 3.35882399842904E-02 
504	 3.35795029791181E-02 
505	 3.36900713107913E-02 
506	 3.42324375683394E-02 
507	 3.45837205660655E-02 
508	 3.46756309686409E-02 
509	 3.49870101514523E-02 
510	 3.54856800220966E-02 
511	 3.61012430392567E-02 
512	 3.64812282789876E-02 
513	 3.66117224723677E-02 
514	 3.65303946522485E-02 
515	 3.69070980676305E-02 
516	 3.78243449101805E-02 
517	 3.81653896402363E-02 
518	 3.83568448588857E-02 
519	 3.89405878275114E-02 
520	 3.97078808133137E-02 
521	 4.05469081367915E-02 
522	 4.13799571477978E-02 
523	 4.18175578424332E-02 
524	 4.18145217884185E-02 
525	 4.23210006083224E-02 
526	 4.31283566119809E-02 
527	 4.37939806248302E-02 
528	 0.044210480923297 
529	 4.44248750920408E-02 
530	 4.47136984305282E-02 
531	 0.045250835617649 
532	 4.60792884988749E-02 
533	 4.64742573541452E-02 
534	 0.046535950731343 
535	 4.66551745604278E-02 
536	 0.046968188020505 
537	 4.74550057644747E-02 
538	 4.77349591985412E-02 
539	 4.78374095896744E-02 
540	 4.78334222001791E-02 
541	 4.81635775100711E-02 
542	 4.86539591160623E-02 
543	 4.85167591246573E-02 
544	 4.87927111077406E-02 
545	 4.97222335092062E-02 
546	 4.99212684762388E-02 
547	 4.97654530650936E-02 
548	 0.049908448303757 
549	 5.02086693993262E-02 
550	 5.05409206124072E-02 
551	 5.05609181026554E-02 
552	 5.05283157357164E-02 
553	 5.06257955781485E-02 
554	 5.09050409017658E-02 
555	 5.11978401418677E-02 
556	 5.11743711438595E-02 
557	 5.12273816244749E-02 
558	 5.14165408623177E-02 
559	 5.14316930441063E-02 
560	 5.12762887768089E-02 
561	 5.09969950385293E-02 
562	 0.051009512415238 
563	 5.11976365830702E-02 
564	 0.051058176767323 
565	 0.050817729696979 
566	 5.05765800504441E-02 
567	 5.03993042567517E-02 
568	 5.02482241732762E-02 
569	 5.00634426622884E-02 
570	 4.98161903370927E-02 
571	 4.95042962670413E-02 
572	 4.91073433761561E-02 
573	 0.04891381034674 
574	 4.90384574959774E-02 
575	 4.89024959928215E-02 
576	 4.85148597017697E-02 
577	 4.80304343666544E-02 
578	 4.77677289533941E-02 
579	 4.77852587734303E-02 
580	 4.77543762812798E-02 
581	 4.77610641151026E-02 
582	 4.78573100696713E-02 
583	 4.75550310036445E-02 
584	 4.70495466843177E-02 
585	 4.70812997572629E-02 
586	 4.70329531476578E-02 
587	 4.67233203257586E-02 
588	 4.66665515252122E-02 
589	 4.66076865358189E-02 
590	 4.61674711020033E-02 
591	 4.59350834314591E-02 
592	 4.59824619421304E-02 
593	 4.60394931844301E-02 
594	 4.60473623863968E-02 
595	 4.59598028730921E-02 
596	 4.57765107818412E-02 
597	 4.55997679773863E-02 
598	 4.55885393942699E-02 
599	 4.57339573622612E-02 
600	 4.59484472852952E-02 
601	 4.59013775223594E-02 
602	 4.57330590365696E-02 
603	 4.55848935451345E-02 
604	 4.54475493964261E-02 
605	 4.53390498854209E-02 
606	 4.53207945379702E-02 
607	 4.51468400013247E-02 
608	 4.47888908520445E-02 
609	 4.47379608114285E-02 
610	 4.48028581536383E-02 
611	 4.46870998082565E-02 
612	 4.44016465733839E-02 
613	 4.40330007318267E-02 
614	 0.043857464483453 
615	 4.37542546549686E-02 
616	 4.36407459649432E-02 
617	 0.043481324474904 
618	 4.32866970418772E-02 
619	 4.30909369010552E-02 
620	 4.28419035717404E-02 
621	 4.25456122283708E-02 
622	 4.22326680878327E-02 
623	 4.21480491055137E-02 
624	 4.25005764509836E-02 
625	 4.31345944867908E-02 
626	 4.36513151010385E-02 
627	 4.31595365808075E-02 
628	 4.26195215459293E-02 
629	 4.24284110767438E-02 
630	 0.042287998633398 
631	 4.22830081076358E-02 
632	 4.25338164648697E-02 
633	 4.28761879753661E-02 
634	 4.31358241672701E-02 
635	 0.043005620198728 
636	 4.25578117535577E-02 
637	 4.19226104043754E-02 
638	 4.16955833186005E-02 
639	 4.17059383764515E-02 
640	 4.15298005436402E-02 
641	 4.09609268941062E-02 
642	 4.00795930803922E-02 
643	 3.95529463342828E-02 
644	 3.91792053319931E-02 
645	 3.87572458153777E-02 
646	 0.038361874770778 
647	 3.80589989857085E-02 
648	 3.80057146473463E-02 
649	 0.037979298087817 
650	 3.78796089235331E-02 
651	 3.77598465084565E-02 
652	 0.03760414662803 
653	 3.73890734396978E-02 
654	 3.71707572865447E-02 
655	 3.69708684307597E-02 
656	 3.67878972578937E-02 
657	 3.68572608139603E-02 
658	 3.71680963203643E-02 
659	 3.66772796307023E-02 
660	 3.59466762612673E-02 
661	 3.60520011817356E-02 
662	 3.60810343247579E-02 
663	 3.57744140910696E-02 
664	 3.51564807855687E-02 
665	 3.47236198617486E-02 
666	 3.48523389751716E-02 
667	 3.48868802444093E-02 
668	 3.47141915987972E-02 
669	 3.42915932200544E-02 
670	 3.42863988330526E-02 
671	 3.47748523988308E-02 
672	 3.45940583884323E-02 
673	 3.42370851873292E-02 
674	 0.034365269229514 
675	 3.44901873809373E-02 
676	 3.44950842889611E-02 
677	 3.42967410806457E-02 
678	 3.44098371653698E-02 
679	 3.50088059269502E-02 
680	 3.51288048642768E-02 
681	 3.50497308398564E-02 
682	 3.53922256306328E-02 
683	 3.59181978107897E-02 
684	 3.65624694399687E-02 
685	 0.037280392947974 
686	 0.038325547805075 
687	 3.98664813329822E-02 
688	 4.10226673482841E-02 
689	 4.18875620013321E-02 
690	 4.32752496760445E-02 
691	 4.48909749702726E-02 
692	 4.67121280736611E-02 
693	 4.87062766173291E-02 
694	 0.051098479427142 
695	 5.39733679467737E-02 
696	 5.65052637689844E-02 
697	 0.05869919955565 
698	 6.10921396522483E-02 
699	 6.39304432838256E-02 
700	 6.72675083588559E-02 
701	 7.06874528809617E-02 
702	 0.07385104521723 
703	 7.64091359785848E-02 
704	 7.91892332997845E-02 
705	 8.23195187858635E-02 
706	 8.53111192025159E-02 
707	 8.82512825633313E-02 
708	 9.11874325038452E-02 
709	 9.41208258871068E-02 
710	 9.70032020884125E-02 
711	 9.97746601193387E-02 
712	 0.102439991729076 
713	 0.104993570686068 
714	 0.107506879200334 
715	 0.109841691650122 
716	 0.111979793506516 
717	 0.113845879273126 
718	 0.115870725278841 
719	 0.119060006611086 
720	 0.121788161327602 
721	 0.123432809502373 
722	 0.125010162103519 
723	 0.126652889688492 
724	 0.128305855335306 
725	 0.130000186863679 
726	 0.131588474855251 
727	 0.133046256136242 
728	 0.134497553259174 
729	 0.135953416096457 
730	 0.137056610099411 
731	 0.137930687051183 
732	 0.138787282965881 
733	 0.139814537994174 
734	 0.141032070111346 
735	 0.142298180858508 
736	 0.143420732396439 
737	 0.144235015470958 
738	 0.144939792470012 
739	 0.145640311222027 
740	 0.14647245602371 
741	 0.147109483358052 
742	 0.147528323574325 
743	 0.148068626005892 
744	 0.148722867698029 
745	 0.149458637262741 
746	 0.149988508910631 
747	 0.150392644001202 
748	 0.151006401984503 
749	 0.151621219252241 
750	 0.152099996675338 
751	 0.152098889995171 
752	 0.152249608294613 
753	 0.153192956383176 
754	 0.153686831257509 
755	 0.153759083521401 
756	 0.154294100386681 
757	 0.15465976854174 
758	 0.154652885131595 
759	 0.154928493640273 
760	 0.155459043203224 
761	 0.155336329024882 
762	 0.155668900535199 
763	 0.156429472954281 
764	 0.156759587628178 
765	 0.1573861744734 
766	 0.158312331751632 
767	 0.158514880576685 
768	 0.158564488261471 
769	 0.159160044520167 
770	 0.159502140508737 
771	 0.159644227053345 
772	 0.160550428666114 
773	 0.161165350653613 
774	 0.160895497772274 
775	 0.161141529916997 
776	 0.161758183063057 
777	 0.162111811834226 
778	 0.162563441697773 
779	 0.163047915715187 
780	 0.162916327725343 
781	 0.162771800737392 
782	 0.163117487130645 
783	 0.163809635826773 
784	 0.16454063619049 
785	 0.164753722286786 
786	 0.164687225346324 
787	 0.164516738525115 
788	 0.164639892595449 
789	 0.164957423671918 
790	 0.165322089058335 
791	 0.165342353494956 
792	 0.165295159825244 
793	 0.166124184155556 
794	 0.166450673795956 
795	 0.165990748383716 
796	 0.165983621267072 
797	 0.16640948412063 
798	 0.16713128940618 
799	 0.167604966805263 
800	 0.167801802798059 
801	 0.167998883160331 
802	 0.168095145231063 
803	 0.168137192899679 
804	 0.16844283505096 
805	 0.169002873515036 
806	 0.169750340256861 
807	 0.169978955396339 
808	 0.169877430686147 
809	 0.170428706035476 
810	 0.171101421458546 
811	 0.171551098108478 
812	 0.171137195998364 
813	 0.170545121394586 
814	 0.17077105771231 
815	 0.171020911446759 
816	 0.171346602189376 
817	 0.172617910485206 
818	 0.173260575365509 
819	 0.17287968671592 
820	 0.173456738003537 
821	 0.174256042046346 
822	 0.174264659118034 
823	 0.174491786307942 
824	 0.175080129985221 
825	 0.175831268616029 
826	 0.176481951657092 
827	 0.17686312032102 
828	 0.17664322527569 
829	 0.176400437469637 
830	 0.176854640265335 
831	 0.177283781384072 
832	 0.177546054186847 
833	 0.17765939478039 
834	 0.178160871777563 
835	 0.179065415187232 
836	 0.179013250301376 
837	 0.178832513997241 
838	 0.179545508484751 
839	 0.180212034202837 
840	 0.180531502549257 
841	 0.180183935752921 
842	 0.180131332275432 
843	 0.18068391760873 
844	 0.180938073333988 
845	 0.180872642121679 
846	 0.180586060586745 
847	 0.180854719341389 
848	 0.181570573143859 
849	 0.181874708097611 
850	 0.182422627086182 
851	 0.183196348307308 
852	 0.18264223201697 
853	 0.181708076160939 
854	 0.181573722851188 
855	 0.182535398737099 
856	 0.183721465812669 
857	 0.182730589427073 
858	 0.182533092818592 
859	 0.183662369361522 
860	 0.183212527764893 
861	 0.182736199089682 
862	 0.183701903943272 
863	 0.183364045081703 
864	 0.182488407638342 
865	 0.184154937950946 
866	 0.185005397552764 
867	 0.1844196023868 
868	 0.185221827395783 
869	 0.18630694760895 
870	 0.186696436404886 
871	 0.186939059368932 
872	 0.186913549112505 
873	 0.186160620314652 
874	 0.186362228709072 
875	 0.187714040772937 
876	 0.188696574925977 
877	 0.189315125425728 
878	 0.189629112673459 
879	 0.190035798156007 
880	 0.190646925224587 
881	 0.191537994613541 
882	 0.192101905991005 
883	 0.19222447647374 
884	 0.192209056446516 
885	 0.192034647181232 
886	 0.191965686489023 
887	 0.193650974407193 
888	 0.195896110484699 
889	 0.196893762257947 
890	 0.196084288760179 
891	 0.194398649463154 
892	 0.195184138208412 
893	 0.196577205967121 
894	 0.197346756069171 
895	 0.195799975274961 
896	 0.19340228900856 
897	 0.192309564339795 
898	 0.19321145808916 
899	 0.195313922172622 
900	 0.196140539658803 
901	 0.197306860665502 
902	 0.198985991859594 
903	 0.200104784322327 
904	 0.199442308150262 
905	 0.196644501322398 
906	 0.197275499864744 
907	 0.199379745237011 
908	 0.197943639471724 
909	 0.19715686090999 
910	 0.197541041145715 
911	 0.196044045022041 
912	 0.195982234419546 
913	 0.19848303631087 
914	 0.197279986445292 
915	 0.195800934312695 
916	 0.198720963614276 
917	 0.198325942169538 
918	 0.195918806186037 
919	 0.19962216138435 
920	 0.201139765932467 
921	 0.198476471983506 
922	 0.197195328314509 
923	 0.196423351612728 
924	 0.195335169052716 
925	 0.196624515712488 
926	 0.198400511655686 
927	 0.195514373513881 
928	 0.191544286973349 
929	 0.188616049427664 
930	 0.190612244601463 
931	 0.190530883082513 
932	 0.183675196566175 
933	 0.186367291266735 
934	 0.19197300571181 
935	 0.186782364675494 
936	 0.183837257917308 
937	 0.184203329738788 
938	 0.182571397884148 
939	 0.178670770781385 
940	 0.173746782599248 
941	 0.173375847867771 
942	 0.176001035450874 
943	 0.179385812790807 
944	 0.174825888430162 
945	 0.170215297325548 
946	 0.179415772198148 
947	 0.181537630438134 
948	 0.175399819801208 
949	 0.176394785339859 
950	 0.171873537237793 
951	 0.159873692263437 
952	 0.159209096056348 
953	 0.163275390008793 
954	 0.164897475338721 
955	 0.168284812286381 
956	 0.169302054602247 
957	 0.159736350190154 
958	 0.156837464872 
959	 0.161689606021498 
960	 0.162292374385469 
961	 0.159718075671303 
962	 0.156010978353657 
963	 0.159260578811851 
964	 0.163151449152514 
965	 0.161610598558678 
966	 0.161033566908501 
967	 0.161198772276766 
968	 0.159436139094779 
969	 0.159176977157857 
970	 0.160947667242576 
971	 0.163575739242327 
972	 0.163151498415586 
973	 0.15877376402951 
974	 0.159273118480752 
975	 0.162107498850068 
976	 0.163484265317384 
977	 0.164035720794962 
978	 0.164579898479953 
979	 0.167294256056801 
980	 0.163592758070228 
981	 0.155329266925498 
982	 0.15823697420452 
983	 0.164198661789535 
984	 0.167659123455691 
985	 0.165160093419372 
986	 0.160502186273341 
987	 0.158631597919345 
988	 0.163480086143356 
989	 0.170373183042149 
990	 0.168685826532079 
991	 0.166477271134464 
992	 0.166978276101067 
993	 0.173361629672015 
994	 0.176432535266545 
995	 0.172204889281871 
996	 0.167107161184039 
997	 0.165949811279127 
998	 0.171764558798308 
999	 0.171246060383329 
1000	 0.167995477077544 
1001	 0.172232621386135 
1002	 0.173831129988684 
1003	 0.171925173808772 
1004	 0.172485588226162 
1005	 0.172010391597772 
1006	 0.171433462081922 
1007	 0.182864371196517 
1008	 0.189609030234055 
1009	 0.180248658405715 
1010	 0.175545914393097 
1011	 0.176435095879121 
1012	 0.179887078865396 
1013	 0.184845956680672 
1014	 0.188332230595305 
1015	 0.184711783588397 
1016	 0.17991853919364 
1017	 0.176738618673297 
1018	 0.17753432008353 
1019	 0.177520698018008 
1020	 0.175620257129599 
1021	 0.183103183091076 
1022	 0.19167422436046 
1023	 0.192386529742183 
1024	 0.191810327472266 
1025	 0.192605041364746 
1026	 0.197294986234395 
1027	 0.194957403901205 
1028	 0.188177448088671 
1029	 0.194190494064218 
1030	 0.191432021710234 
1031	 0.178110350012074 
1032	 0.180741889881183 
1033	 0.190103641825531 
1034	 0.198417805627861 
1035	 0.200517340131137 
1036	 0.200310828527807 
1037	 0.202197768865952 
1038	 0.199386199955213 
1039	 0.194023196379408 
1040	 0.191328608080667 
1041	 0.194343978698715 
1042	 0.200193238289528 
1043	 0.196721790668962 
1044	 0.196297333036304 
1045	 0.200788544363676 
1046	 0.197642975682329 
1047	 0.197809738470696 
1048	 0.204308798585742 
1049	 0.192210472384098 
1050	 0.185484173666262 
1051	 0.202826250547542 
1052	 0.173237579634593 
1053	 0.141135615945849 
1054	 0.188880219702071 
1055	 0.197175713215731 
1056	 0.167932692849506 
1057	 0.171078554180806 
1058	 0.176074618845492 
1059	 0.177498098466397 
1060	 0.18489620375684 
1061	 0.191272542150153 
1062	 0.190939918646084 
1063	 0.167675301453562 
1064	 0.167613928834766 
1065	 0.210783698487279 
1066	 0.200339003962056 
1067	 0.170308781754866 
1068	 0.169991959168314 
1069	 0.185375353744303 
1070	 0.194220333266707 
1071	 0.16741084209288 
1072	 0.156187241780428 
1073	 0.166819433245274 
1074	 0.182913632610809 
1075	 0.20200938840878 
