Wavelength	AVEI200171.asd
325	 3.75214190203002E-02 
326	 3.64408496118438E-02 
327	 0.034660744966386 
328	 3.51951115659496E-02 
329	 3.91783059699871E-02 
330	 4.47563038196006E-02 
331	 4.19818412862039E-02 
332	 3.66319448692171E-02 
333	 0.034799366523152 
334	 3.62158342423109E-02 
335	 3.95431350215678E-02 
336	 4.30800264227876E-02 
337	 3.96440475679175E-02 
338	 3.14015520905665E-02 
339	 3.95252720477517E-02 
340	 4.64341407199982E-02 
341	 3.88689372922894E-02 
342	 0.037439277921217 
343	 4.12459739703707E-02 
344	 4.27979385277755E-02 
345	 4.13661763340307E-02 
346	 3.79516327497043E-02 
347	 0.037388814192217 
348	 3.82604539181224E-02 
349	 3.91109928313235E-02 
350	 3.69256478580534E-02 
351	 3.41345700972728E-02 
352	 3.51132481840988E-02 
353	 3.53163209982815E-02 
354	 0.034623468592004 
355	 3.70416148601827E-02 
356	 3.84484469917567E-02 
357	 3.69091181672721E-02 
358	 3.79503241726855E-02 
359	 3.96398594152798E-02 
360	 3.81907941391181E-02 
361	 3.71178741534674E-02 
362	 3.70417480860705E-02 
363	 3.68327166501094E-02 
364	 3.72410890647657E-02 
365	 3.83418447016183E-02 
366	 3.81462292889728E-02 
367	 3.73215098156481E-02 
368	 3.70011199375193E-02 
369	 3.70456151958849E-02 
370	 3.73496930988332E-02 
371	 3.77369339566004E-02 
372	 3.74898308509063E-02 
373	 3.63098398360288E-02 
374	 3.49060111335063E-02 
375	 3.44011052266564E-02 
376	 3.60834738216662E-02 
377	 3.62990480548771E-02 
378	 0.034742691524523 
379	 3.33610245778457E-02 
380	 3.33390360454527E-02 
381	 3.49958820853488E-02 
382	 3.60475693517048E-02 
383	 0.036176391544838 
384	 3.53193758571382E-02 
385	 3.40252785710023E-02 
386	 3.30738355294839E-02 
387	 0.034272085573629 
388	 3.47031374583245E-02 
389	 3.34031385587226E-02 
390	 3.33621785337624E-02 
391	 3.39777646911966E-02 
392	 3.42532889118802E-02 
393	 3.45024020364563E-02 
394	 3.45599287844211E-02 
395	 3.38515994867098E-02 
396	 3.32559393376003E-02 
397	 3.31356549744456E-02 
398	 3.30695666074336E-02 
399	 3.32596888269629E-02 
400	 3.39057145257788E-02 
401	 0.0338003638906 
402	 3.31144212692347E-02 
403	 3.26583244082188E-02 
404	 3.28944237761713E-02 
405	 3.36560837458071E-02 
406	 3.25757761813934E-02 
407	 3.13658662452668E-02 
408	 3.23127149105221E-02 
409	 3.31383076232534E-02 
410	 3.32082763941247E-02 
411	 3.21805196549365E-02 
412	 3.16470618007761E-02 
413	 3.22111426959398E-02 
414	 3.23958234761433E-02 
415	 3.22112241617553E-02 
416	 3.18665268456615E-02 
417	 3.20952471827194E-02 
418	 3.27229073315362E-02 
419	 3.26746063434716E-02 
420	 3.23699224878552E-02 
421	 3.21299110872967E-02 
422	 3.25474835829679E-02 
423	 3.30054202422073E-02 
424	 3.25300136265898E-02 
425	 3.21203003446745E-02 
426	 3.20160182222263E-02 
427	 3.20951001050497E-02 
428	 3.21203991266471E-02 
429	 0.031970215150406 
430	 3.20475921760634E-02 
431	 3.21705938209037E-02 
432	 3.19406957544641E-02 
433	 3.19798261644056E-02 
434	 3.22768944103632E-02 
435	 3.21675355960519E-02 
436	 3.20139355113552E-02 
437	 0.032042596262566 
438	 3.19364590898486E-02 
439	 3.18230300279625E-02 
440	 3.20150684433842E-02 
441	 3.21810349968102E-02 
442	 3.21990028969985E-02 
443	 3.20558478054898E-02 
444	 3.18168353818319E-02 
445	 3.15688099860016E-02 
446	 3.16309784491801E-02 
447	 3.19292358998362E-02 
448	 3.22067645011354E-02 
449	 3.23507276277971E-02 
450	 0.032331148575679 
451	 3.23132878247323E-02 
452	 3.22807627716531E-02 
453	 3.22130800055062E-02 
454	 3.22272737022687E-02 
455	 3.22622433030358E-02 
456	 3.20364691612228E-02 
457	 0.032090401304251 
458	 3.25112352392079E-02 
459	 3.23959034113039E-02 
460	 3.21581347832931E-02 
461	 3.23613440771856E-02 
462	 3.23540181119726E-02 
463	 0.032090040670013 
464	 3.18115600529645E-02 
465	 3.19536664622888E-02 
466	 3.25637893351028E-02 
467	 3.21979185408341E-02 
468	 3.15119491072851E-02 
469	 3.16968936367581E-02 
470	 3.19499850881581E-02 
471	 0.032073848074971 
472	 3.21295071719155E-02 
473	 3.22059533276465E-02 
474	 3.23208751062048E-02 
475	 3.21249570505624E-02 
476	 3.17786157671811E-02 
477	 3.16105487616636E-02 
478	 0.031795197430344 
479	 3.21977902352788E-02 
480	 3.20405516894241E-02 
481	 3.17768273269453E-02 
482	 3.17884656210469E-02 
483	 3.18770619322573E-02 
484	 3.19588075799329E-02 
485	 3.18621956097402E-02 
486	 3.20755584659826E-02 
487	 3.26147152065896E-02 
488	 0.032579425514195 
489	 3.23497116173245E-02 
490	 3.23764940703174E-02 
491	 3.25124436630562E-02 
492	 3.26328782784707E-02 
493	 3.24249379849868E-02 
494	 3.24446687216478E-02 
495	 3.28328792094293E-02 
496	 3.28203488304761E-02 
497	 3.26725266198367E-02 
498	 3.28215165730172E-02 
499	 3.30641121356858E-02 
500	 3.33216172685373E-02 
501	 3.34691965320544E-02 
502	 3.37277916317898E-02 
503	 3.41716876889044E-02 
504	 3.42619611764805E-02 
505	 3.42688701578666E-02 
506	 0.034757802645157 
507	 3.51532017004575E-02 
508	 3.53809959869224E-02 
509	 3.58247987984674E-02 
510	 0.036325228772247 
511	 3.67470840513197E-02 
512	 3.71659886251162E-02 
513	 3.75012415308904E-02 
514	 3.74760024823155E-02 
515	 3.78039022481646E-02 
516	 3.86354894721143E-02 
517	 0.039183376693362 
518	 3.96115947094839E-02 
519	 0.04016093376691 
520	 0.040923681931331 
521	 4.18635769455917E-02 
522	 4.29380878535759E-02 
523	 4.36059079014762E-02 
524	 4.37116725464081E-02 
525	 4.40039205172363E-02 
526	 4.45819095867053E-02 
527	 4.54566561884645E-02 
528	 0.046064337378572 
529	 4.63944557219571E-02 
530	 4.70123712652704E-02 
531	 4.77119892763946E-02 
532	 4.83351159659069E-02 
533	 4.87544998833938E-02 
534	 4.90321803373345E-02 
535	 4.93231040273709E-02 
536	 4.96252555329845E-02 
537	 4.99523068936567E-02 
538	 5.03364355625284E-02 
539	 5.06374582454431E-02 
540	 5.07372052247144E-02 
541	 5.10286816678347E-02 
542	 5.14493293721122E-02 
543	 5.15873305186319E-02 
544	 5.18775086191946E-02 
545	 5.24181363943263E-02 
546	 5.26349625295416E-02 
547	 5.27130273220153E-02 
548	 5.29603184370752E-02 
549	 0.053078561037964 
550	 5.31167856384879E-02 
551	 5.34494640856889E-02 
552	 5.38918867369191E-02 
553	 5.43065715669427E-02 
554	 5.46687197494333E-02 
555	 5.48206442596157E-02 
556	 0.054457504202725 
557	 5.44062478680732E-02 
558	 5.47622078481372E-02 
559	 5.45755986865332E-02 
560	 5.42654390620451E-02 
561	 5.42479818648446E-02 
562	 5.42832000190193E-02 
563	 5.42968471017996E-02 
564	 0.054221494685743 
565	 5.40689918728278E-02 
566	 5.38610755972182E-02 
567	 5.37182761367666E-02 
568	 5.35429415267107E-02 
569	 5.31977437779661E-02 
570	 5.29326488653635E-02 
571	 5.27621948816959E-02 
572	 5.25041644009167E-02 
573	 0.052203345901608 
574	 5.19187027306717E-02 
575	 5.19706434978059E-02 
576	 5.19934281526242E-02 
577	 5.12245724564904E-02 
578	 5.07660761830784E-02 
579	 5.08264918167291E-02 
580	 5.06044524802502E-02 
581	 5.04216168638978E-02 
582	 5.05477437687197E-02 
583	 5.03968226505409E-02 
584	 0.050043333557546 
585	 4.99373388444458E-02 
586	 4.99550514814089E-02 
587	 5.00123779135437E-02 
588	 4.98721929855769E-02 
589	 4.95889001273638E-02 
590	 0.049277973933643 
591	 4.88073267639907E-02 
592	 4.83665445867015E-02 
593	 4.85991702237472E-02 
594	 4.88240647936459E-02 
595	 4.86738702651795E-02 
596	 4.87430918782704E-02 
597	 4.87967374494279E-02 
598	 4.82709398737806E-02 
599	 4.80433115707958E-02 
600	 4.82444347812604E-02 
601	 0.048156332738238 
602	 4.79814421256866E-02 
603	 4.79284947279634E-02 
604	 4.80605036768636E-02 
605	 4.82379076613801E-02 
606	 4.81141223952619E-02 
607	 4.77865390398529E-02 
608	 0.047371549787643 
609	 4.73367320744211E-02 
610	 4.73998703225865E-02 
611	 4.71527784655894E-02 
612	 4.67644848690514E-02 
613	 4.63641835600764E-02 
614	 4.62320234450202E-02 
615	 4.61469104153013E-02 
616	 4.59650800424397E-02 
617	 4.57069728091803E-02 
618	 4.54503400191242E-02 
619	 4.53272888078887E-02 
620	 4.51512172719534E-02 
621	 4.48850833267402E-02 
622	 4.46128294745284E-02 
623	 4.44425687723319E-02 
624	 4.44687907674047E-02 
625	 4.46628438369179E-02 
626	 4.48387744195953E-02 
627	 4.45170295704637E-02 
628	 4.43956861399221E-02 
629	 4.46745252459287E-02 
630	 4.46877663149919E-02 
631	 4.45831014188289E-02 
632	 4.46147444132414E-02 
633	 4.45907020539131E-02 
634	 4.45111882306145E-02 
635	 0.044584278177981 
636	 4.43395660515434E-02 
637	 4.35875570427798E-02 
638	 4.31878472579344E-02 
639	 4.30676841929215E-02 
640	 0.04290349069259 
641	 4.25052874276232E-02 
642	 4.18540092340953E-02 
643	 4.12092106346259E-02 
644	 4.06292340130186E-02 
645	 4.01545464307909E-02 
646	 3.97459465066927E-02 
647	 3.94543573547244E-02 
648	 3.94847575891658E-02 
649	 0.03931421346832 
650	 3.88216406056101E-02 
651	 3.86728025607791E-02 
652	 3.86593499355069E-02 
653	 3.84672659948909E-02 
654	 3.82886274233268E-02 
655	 0.038164239861915 
656	 3.81500076571101E-02 
657	 0.037971538932554 
658	 3.75085026408073E-02 
659	 3.70528548079853E-02 
660	 3.67183159677754E-02 
661	 3.66291272888494E-02 
662	 3.65396295437656E-02 
663	 3.63141365182848E-02 
664	 3.57546641136218E-02 
665	 3.52049549165053E-02 
666	 3.49473185460543E-02 
667	 0.034658314615468 
668	 3.44258124877098E-02 
669	 3.46157364361878E-02 
670	 3.48139614060957E-02 
671	 3.47802674015604E-02 
672	 3.41426887564867E-02 
673	 0.033640041102163 
674	 3.41160870784422E-02 
675	 3.44464691928547E-02 
676	 3.44438572314056E-02 
677	 0.0343520447993 
678	 3.44612177136703E-02 
679	 3.48971383081773E-02 
680	 3.52428772097765E-02 
681	 3.54881979655713E-02 
682	 3.56943347532285E-02 
683	 3.61158270970624E-02 
684	 3.68511993356281E-02 
685	 0.037981184453223 
686	 3.91971555697907E-02 
687	 4.02168670420685E-02 
688	 4.13887369259576E-02 
689	 4.27386367814315E-02 
690	 4.43743218937059E-02 
691	 4.61607269003829E-02 
692	 4.81620090019974E-02 
693	 5.05989811772887E-02 
694	 5.34531044742345E-02 
695	 5.65319711711057E-02 
696	 5.93090285125381E-02 
697	 0.061866919199676 
698	 6.48291181321748E-02 
699	 0.068117442663462 
700	 7.16509960526289E-02 
701	 7.53803194040739E-02 
702	 7.89082694368877E-02 
703	 8.17441088773618E-02 
704	 8.50601728625638E-02 
705	 8.89468374780258E-02 
706	 9.25324578424203E-02 
707	 9.58338135599553E-02 
708	 9.88973173953245E-02 
709	 0.102148551206035 
710	 0.10551213618072 
711	 0.108764545436954 
712	 0.111817673986585 
713	 0.114659619057148 
714	 0.11751628282401 
715	 0.120283931724742 
716	 0.122966692420947 
717	 0.124934866875911 
718	 0.126660109006345 
719	 0.129723202845311 
720	 0.132966648186274 
721	 0.135524926387175 
722	 0.136827215727378 
723	 0.137947925636908 
724	 0.139940267115899 
725	 0.142136202887192 
726	 0.144173720304844 
727	 0.146033326787843 
728	 0.147686199617241 
729	 0.149090514274098 
730	 0.150101414252135 
731	 0.150977360375153 
732	 0.15205700743705 
733	 0.153354569688934 
734	 0.154724212831553 
735	 0.155549779960792 
736	 0.156559318960147 
737	 0.158077134926291 
738	 0.158743414817684 
739	 0.159047447460601 
740	 0.160260600622288 
741	 0.161158975899681 
742	 0.16152856159312 
743	 0.162109441891201 
744	 0.162773150643278 
745	 0.163391090328036 
746	 0.163884383103398 
747	 0.164349759145742 
748	 0.165090551579579 
749	 0.165717645534443 
750	 0.16606324564055 
751	 0.166038778992648 
752	 0.166238681869921 
753	 0.167239059004474 
754	 0.167699106742452 
755	 0.167707191931247 
756	 0.168375493779883 
757	 0.168945935407264 
758	 0.169142254678111 
759	 0.169342206631421 
760	 0.169797218845952 
761	 0.170580011011584 
762	 0.170751226128405 
763	 0.170503010295918 
764	 0.1707091813742 
765	 0.17147525274781 
766	 0.17256011408119 
767	 0.173072207019618 
768	 0.173319614409655 
769	 0.173673333883763 
770	 0.174055225903966 
771	 0.174424220736718 
772	 0.174681726880995 
773	 0.174874385271682 
774	 0.175040570864796 
775	 0.175180834992392 
776	 0.1754338308569 
777	 0.176048743888707 
778	 0.176608482907808 
779	 0.176923988382828 
780	 0.176808348145773 
781	 0.176882587968361 
782	 0.177597361971636 
783	 0.178218651499813 
784	 0.178576929603909 
785	 0.178595285804188 
786	 0.17859215493824 
787	 0.178702926995201 
788	 0.178908486577646 
789	 0.179136853249368 
790	 0.179321019691784 
791	 0.179525979512072 
792	 0.179791045463823 
793	 0.180222348740833 
794	 0.180441167961958 
795	 0.18034768958212 
796	 0.180158329187303 
797	 0.180289591064349 
798	 0.18107990426158 
799	 0.181492805725447 
800	 0.181475889668013 
801	 0.181482717549236 
802	 0.181473058074112 
803	 0.181513606428344 
804	 0.181815452647499 
805	 0.182380053627769 
806	 0.183157934635586 
807	 0.183381532462674 
808	 0.183228220467393 
809	 0.183697253591594 
810	 0.184241281793904 
811	 0.184511602022032 
812	 0.183827834515522 
813	 0.183167487053535 
814	 0.183900885399157 
815	 0.184348288261985 
816	 0.184460679650778 
817	 0.18558912032741 
818	 0.186474133670471 
819	 0.186677516286404 
820	 0.187153196903693 
821	 0.187546863306058 
822	 0.187376113525875 
823	 0.187550704486732 
824	 0.188247717452902 
825	 0.189456544502203 
826	 0.190098049902032 
827	 0.189811930413338 
828	 0.189482995438218 
829	 0.189355518752849 
830	 0.189609953948803 
831	 0.190040479532918 
832	 0.190605952085735 
833	 0.191449376541991 
834	 0.191874145348606 
835	 0.191704667654382 
836	 0.191787205289364 
837	 0.192242549455854 
838	 0.193083107002836 
839	 0.193376740281381 
840	 0.193121154575044 
841	 0.19283716897234 
842	 0.193104122440459 
843	 0.193948329783334 
844	 0.19381480890672 
845	 0.193294090994321 
846	 0.193217024393634 
847	 0.19394926233754 
848	 0.195084091752833 
849	 0.195337394232984 
850	 0.194859471943319 
851	 0.193956625789982 
852	 0.194134623037711 
853	 0.194662887280508 
854	 0.194642129044625 
855	 0.194840177334824 
856	 0.195228898550684 
857	 0.195420352838313 
858	 0.195534950632293 
859	 0.195586509960018 
860	 0.195417590591802 
861	 0.195513308487977 
862	 0.196219917532742 
863	 0.195527520882898 
864	 0.194474082128477 
865	 0.196490593907311 
866	 0.197558012352815 
867	 0.196770627091665 
868	 0.196870642722526 
869	 0.197346422743503 
870	 0.197719147071153 
871	 0.198488047628694 
872	 0.19909147273222 
873	 0.198256268410772 
874	 0.198628628110046 
875	 0.200415204979168 
876	 0.200888722548559 
877	 0.201069066812899 
878	 0.201712860139942 
879	 0.202629251872081 
880	 0.203355960767862 
881	 0.203179216267225 
882	 0.203759883667551 
883	 0.20504422427677 
884	 0.205193861416065 
885	 0.204983317229879 
886	 0.205004241839638 
887	 0.206037406553217 
888	 0.207373847806963 
889	 0.20796084471224 
890	 0.207907141055808 
891	 0.207421357831561 
892	 0.206960717647587 
893	 0.207388258948647 
894	 0.208830022586654 
895	 0.208987760687565 
896	 0.208356215954595 
897	 0.207850196398954 
898	 0.207833033867623 
899	 0.208278936272266 
900	 0.208836078983046 
901	 0.208962065730061 
902	 0.208776172252588 
903	 0.209828023255246 
904	 0.2106388584289 
905	 0.210111481863035 
906	 0.209534030681095 
907	 0.209340811298892 
908	 0.20996577960436 
909	 0.209597373531821 
910	 0.208498513298477 
911	 0.210001295969088 
912	 0.210873832301991 
913	 0.209507144194191 
914	 0.208899247796783 
915	 0.208867692526354 
916	 0.208781773664248 
917	 0.208036716358695 
918	 0.207460628374249 
919	 0.209726586890391 
920	 0.211347945318068 
921	 0.211183600330858 
922	 0.210284138237103 
923	 0.210084351318199 
924	 0.211575702332229 
925	 0.211079722733829 
926	 0.208666262232944 
927	 0.206049538022511 
928	 0.20248385155182 
929	 0.198580523342443 
930	 0.198120981561401 
931	 0.197292210259616 
932	 0.193619237831784 
933	 0.196693095753101 
934	 0.199411665257058 
935	 0.189796347410554 
936	 0.188015849906707 
937	 0.193653800650121 
938	 0.192958217583781 
939	 0.188878968474258 
940	 0.183793315486984 
941	 0.184422511418382 
942	 0.186157128304043 
943	 0.1854098471974 
944	 0.182489173590897 
945	 0.180690805640651 
946	 0.184918043966793 
947	 0.185921229617849 
948	 0.183095227717416 
949	 0.183986271528461 
950	 0.178053903831628 
951	 0.164485577219304 
952	 0.163761617120594 
953	 0.167741856218617 
954	 0.167991735222473 
955	 0.17163771172287 
956	 0.174551739349354 
957	 0.1678962999141 
958	 0.164750832059687 
959	 0.166235596094683 
960	 0.163952786662261 
961	 0.160119627662285 
962	 0.15701865656835 
963	 0.159950386187125 
964	 0.16434181218295 
965	 0.165773375405071 
966	 0.167750353802168 
967	 0.169100397400453 
968	 0.16652739824554 
969	 0.164772353909638 
970	 0.165583319509562 
971	 0.17072017220113 
972	 0.170644077478107 
973	 0.162644846257128 
974	 0.165462240580912 
975	 0.171647664556468 
976	 0.171228714525559 
977	 0.169672880246439 
978	 0.16720476979332 
979	 0.162008903745868 
980	 0.160300063298499 
981	 0.163491407256684 
982	 0.169378244923884 
983	 0.172377012578058 
984	 0.170201377033795 
985	 0.168623676063687 
986	 0.169971009807286 
987	 0.175338730115921 
988	 0.174271499574817 
989	 0.170115271030606 
990	 0.173435960269839 
991	 0.173445276754062 
992	 0.17068127780127 
993	 0.178973156589942 
994	 0.183033682549321 
995	 0.176860844412558 
996	 0.174301915131247 
997	 0.174710704795312 
998	 0.176106932363308 
999	 0.17583712632861 
1000	 0.17549824405509 
1001	 0.178647395517027 
1002	 0.184960889113076 
1003	 0.190397585762562 
1004	 0.18272183929993 
1005	 0.178138329671345 
1006	 0.182925605115811 
1007	 0.190924566981624 
1008	 0.192645129044673 
1009	 0.183070175977439 
1010	 0.182522876248635 
1011	 0.187129975844551 
1012	 0.187649743230294 
1013	 0.19268431556077 
1014	 0.199407717189112 
1015	 0.197552934370472 
1016	 0.191350865115572 
1017	 0.184318797023689 
1018	 0.184181650519879 
1019	 0.186926100409779 
1020	 0.190025429470478 
1021	 0.194877129889338 
1022	 0.195762564678672 
1023	 0.188621323535113 
1024	 0.191065200286682 
1025	 0.199201447669103 
1026	 0.201787051853162 
1027	 0.200486909869564 
1028	 0.198159020543519 
1029	 0.204090402308358 
1030	 0.199443973839787 
1031	 0.183760150470616 
1032	 0.184327525992285 
1033	 0.19718448435375 
1034	 0.214683667398703 
1035	 0.210231178381731 
1036	 0.203146749149835 
1037	 0.214701045803462 
1038	 0.218755851228097 
1039	 0.210874789363502 
1040	 0.192063185050753 
1041	 0.188087470609487 
1042	 0.199219392373483 
1043	 0.202900260128539 
1044	 0.211377020224603 
1045	 0.222723572987062 
1046	 0.214756940929667 
1047	 0.201844621695164 
1048	 0.194481922754809 
1049	 0.202020980119226 
1050	 0.210293639713455 
1051	 0.204561224196908 
1052	 0.184881210345115 
1053	 0.174761844904535 
1054	 0.207765587608106 
1055	 0.214532049992175 
1056	 0.194438718697889 
1057	 0.185656911936727 
1058	 0.172936846557785 
1059	 0.159812934754267 
1060	 0.177010321582784 
1061	 0.190230543720047 
1062	 0.184412210566964 
1063	 0.167323779952088 
1064	 0.167753977712751 
1065	 0.19663728244226 
1066	 0.186735383433389 
1067	 0.166039232194054 
1068	 0.173660273347922 
1069	 0.197000433009705 
1070	 0.211774087669091 
1071	 0.18648855732684 
1072	 0.163828802930834 
1073	 0.154894173412156 
1074	 0.161087324698465 
1075	 0.18099493687907 
