Wavelength	AVEI200162.asd
325	 3.94274875123413E-02 
326	 3.34334708746117E-02 
327	 2.48536015483034E-02 
328	 2.82761164039397E-02 
329	 3.38200377736059E-02 
330	 3.75589428665424E-02 
331	 4.12008767156474E-02 
332	 4.33675853662475E-02 
333	 4.27156828405509E-02 
334	 3.99114690081537E-02 
335	 0.037152302228799 
336	 3.92007382056569E-02 
337	 3.86035566506802E-02 
338	 0.034773496254499 
339	 0.036687948490964 
340	 3.80124347300295E-02 
341	 3.40943471940968E-02 
342	 3.47751387582959E-02 
343	 3.85248534911844E-02 
344	 3.98826147472242E-02 
345	 3.95647637827533E-02 
346	 3.80118431514343E-02 
347	 0.035899240460486 
348	 3.63030606876253E-02 
349	 4.03174860643417E-02 
350	 3.97249616379564E-02 
351	 3.65578342974889E-02 
352	 3.55111435434437E-02 
353	 3.66233065727731E-02 
354	 0.038758033708017 
355	 3.75264951949297E-02 
356	 3.66564329718159E-02 
357	 3.81691075516135E-02 
358	 3.92323535339515E-02 
359	 3.93910057445943E-02 
360	 0.03854842655264 
361	 3.73080760383255E-02 
362	 3.64357928411967E-02 
363	 3.76616479317905E-02 
364	 3.89236953198255E-02 
365	 3.89569775794555E-02 
366	 3.75012295880174E-02 
367	 3.60870031342214E-02 
368	 3.67103466859217E-02 
369	 3.62349271023933E-02 
370	 3.49800437756129E-02 
371	 3.65243682796255E-02 
372	 3.78036691493012E-02 
373	 3.72091780057473E-02 
374	 3.58292012156694E-02 
375	 3.48210711624022E-02 
376	 3.55162510780742E-02 
377	 3.51142468116452E-02 
378	 3.36184345096679E-02 
379	 3.32456279041406E-02 
380	 3.35934481551241E-02 
381	 3.44145970820044E-02 
382	 3.53463510622593E-02 
383	 3.65039476980862E-02 
384	 0.038081876509706 
385	 3.71683768327385E-02 
386	 3.43216466751302E-02 
387	 3.33571704108232E-02 
388	 3.33849834495938E-02 
389	 3.37944424939984E-02 
390	 3.34173900502087E-02 
391	 0.032926310474075 
392	 3.32116267967217E-02 
393	 3.40419707368886E-02 
394	 3.48083221234402E-02 
395	 3.39000752451737E-02 
396	 3.36081217515861E-02 
397	 3.45971165176779E-02 
398	 3.47619091875655E-02 
399	 3.44187587514914E-02 
400	 3.41016021476555E-02 
401	 3.33454560898809E-02 
402	 3.25380934685963E-02 
403	 3.27079389312657E-02 
404	 3.32097061119207E-02 
405	 3.36071796168553E-02 
406	 3.29988992309333E-02 
407	 3.23243507823793E-02 
408	 3.27972814765639E-02 
409	 3.32601674250359E-02 
410	 3.33286035520594E-02 
411	 3.26726596809341E-02 
412	 3.21455858739449E-02 
413	 3.21818434423627E-02 
414	 0.032690416205999 
415	 3.30268187871265E-02 
416	 3.24130204950366E-02 
417	 3.23394161357815E-02 
418	 3.28321149176167E-02 
419	 3.28177938177899E-02 
420	 3.28038209221665E-02 
421	 3.30047147756921E-02 
422	 3.29237761744688E-02 
423	 3.27956502449653E-02 
424	 3.30438916955619E-02 
425	 3.28020794323718E-02 
426	 3.21871051927812E-02 
427	 3.24257894425718E-02 
428	 3.26933221179233E-02 
429	 3.25262534081845E-02 
430	 3.28708598482378E-02 
431	 3.32006942821224E-02 
432	 3.24426727503577E-02 
433	 3.21471703101153E-02 
434	 3.24505737767124E-02 
435	 0.032163725879507 
436	 3.19327584951751E-02 
437	 3.21419043830357E-02 
438	 3.21170259951102E-02 
439	 3.19746022558989E-02 
440	 3.20814392763958E-02 
441	 3.24255916128873E-02 
442	 3.28159613055069E-02 
443	 3.25133664696531E-02 
444	 3.20367185174538E-02 
445	 3.18401940616754E-02 
446	 0.031871825302355 
447	 3.20199098993681E-02 
448	 3.20197648021411E-02 
449	 3.22294254330963E-02 
450	 0.032653829532112 
451	 3.27717892529882E-02 
452	 3.26509914386875E-02 
453	 3.24101134199664E-02 
454	 3.23985640683208E-02 
455	 3.25488527623007E-02 
456	 3.24216339276319E-02 
457	 3.24575338333432E-02 
458	 0.032763082605077 
459	 3.28654696751189E-02 
460	 3.28674996213391E-02 
461	 3.29324493977742E-02 
462	 0.032688107040371 
463	 3.22893453870889E-02 
464	 3.24559999029364E-02 
465	 3.26065139965142E-02 
466	 3.24481948946137E-02 
467	 3.21933624840197E-02 
468	 3.20110673633055E-02 
469	 3.21041645108475E-02 
470	 3.23761904757026E-02 
471	 3.26674757542731E-02 
472	 3.25618318177016E-02 
473	 3.24351084396482E-02 
474	 3.24991969477709E-02 
475	 0.032344979508394 
476	 3.21347278929832E-02 
477	 3.22439209443717E-02 
478	 3.22898918943105E-02 
479	 0.032183787500929 
480	 3.20486244001622E-02 
481	 3.19644980122026E-02 
482	 3.20014819784726E-02 
483	 0.032233687213475 
484	 3.24782613456321E-02 
485	 3.22072011400662E-02 
486	 3.24685564905992E-02 
487	 3.33336727227472E-02 
488	 3.30302281806228E-02 
489	 3.24612718620327E-02 
490	 3.26479637669341E-02 
491	 3.29445557670566E-02 
492	 0.033123830359161 
493	 0.032912890235157 
494	 3.26983805450369E-02 
495	 3.26856725357045E-02 
496	 3.28928656323897E-02 
497	 3.32940772873353E-02 
498	 3.38556355625548E-02 
499	 3.37452447994329E-02 
500	 3.31983540352966E-02 
501	 3.37582193803894E-02 
502	 3.43515155993589E-02 
503	 3.43660913496659E-02 
504	 3.44580882941078E-02 
505	 3.47716862222605E-02 
506	 3.54264027671743E-02 
507	 0.035788475722245 
508	 3.57618791025946E-02 
509	 3.56873602833415E-02 
510	 3.60885262647076E-02 
511	 3.72684770706531E-02 
512	 3.78989238493933E-02 
513	 0.037931683405529 
514	 3.77002108288734E-02 
515	 3.81032674685676E-02 
516	 3.92745409028145E-02 
517	 0.039743502222343 
518	 3.99902184085604E-02 
519	 4.06416596002207E-02 
520	 4.13924462965852E-02 
521	 4.21771984597366E-02 
522	 4.30529343135558E-02 
523	 4.36909499070667E-02 
524	 4.40012660368769E-02 
525	 4.44208879539623E-02 
526	 4.50581034266273E-02 
527	 4.59915616585108E-02 
528	 4.65609343100477E-02 
529	 4.67775375757893E-02 
530	 4.73559361530572E-02 
531	 4.80080383667165E-02 
532	 4.85386840086101E-02 
533	 4.90124035663697E-02 
534	 4.94024399537698E-02 
535	 4.96326568211906E-02 
536	 4.99340617995815E-02 
537	 5.03443374628193E-02 
538	 5.06237461017703E-02 
539	 5.09071843127533E-02 
540	 5.13230417181342E-02 
541	 5.16492462023441E-02 
542	 5.18889689617907E-02 
543	 5.21500436349871E-02 
544	 5.25577867840626E-02 
545	 5.30789293918443E-02 
546	 5.31450097620396E-02 
547	 5.30850676459302E-02 
548	 5.33892968608476E-02 
549	 5.36006726580196E-02 
550	 5.36975993401766E-02 
551	 5.39872482905652E-02 
552	 5.43031342676229E-02 
553	 5.45374298341995E-02 
554	 0.054755702872012 
555	 5.49064717332615E-02 
556	 0.054869856273343 
557	 5.49470157473386E-02 
558	 5.51626051820883E-02 
559	 5.51612213029295E-02 
560	 5.49908157888531E-02 
561	 5.47335993021387E-02 
562	 0.054655437844539 
563	 5.47399497485617E-02 
564	 5.48269779459299E-02 
565	 0.054759616739055 
566	 0.054489277744721 
567	 5.42706209150594E-02 
568	 5.40045140865204E-02 
569	 5.35356761900449E-02 
570	 5.32098412734079E-02 
571	 5.30708685898067E-02 
572	 5.29537321629587E-02 
573	 5.27315079522402E-02 
574	 5.23602879756693E-02 
575	 5.22546251211023E-02 
576	 5.21845181308104E-02 
577	 0.051613384609089 
578	 0.051219145457308 
579	 5.11669512702014E-02 
580	 5.11618420807701E-02 
581	 5.10553529612097E-02 
582	 5.07365076528467E-02 
583	 5.03590222119263E-02 
584	 5.01235444051477E-02 
585	 0.050514252423037 
586	 0.050632143474596 
587	 5.01766382756647E-02 
588	 4.98595302969469E-02 
589	 4.97119435271182E-02 
590	 4.96877638225436E-02 
591	 4.94743897331677E-02 
592	 4.91179547788348E-02 
593	 4.90004800892941E-02 
594	 4.90825263013569E-02 
595	 4.92861815382476E-02 
596	 4.91842355510284E-02 
597	 4.88999228919955E-02 
598	 4.87413150744507E-02 
599	 4.87273474956422E-02 
600	 4.88560432644397E-02 
601	 4.90997463437684E-02 
602	 4.90422588681858E-02 
603	 4.83974485544618E-02 
604	 4.82868131199608E-02 
605	 4.86177039191961E-02 
606	 0.048673720280888 
607	 4.84062541258477E-02 
608	 4.78426062853788E-02 
609	 4.74580413836945E-02 
610	 4.73131247379857E-02 
611	 4.74103983181446E-02 
612	 4.71860742884959E-02 
613	 4.66437838885395E-02 
614	 4.63037127856952E-02 
615	 4.60810572888116E-02 
616	 4.59407328193301E-02 
617	 4.59989899136484E-02 
618	 4.59796579769296E-02 
619	 0.045369043247105 
620	 4.50514487024571E-02 
621	 4.52085025145807E-02 
622	 4.54096894246586E-02 
623	 4.52860418495831E-02 
624	 4.46107945462923E-02 
625	 4.48501937195868E-02 
626	 4.56469180090679E-02 
627	 4.53453383954915E-02 
628	 4.49616294874769E-02 
629	 4.48711314587684E-02 
630	 4.48407245135169E-02 
631	 4.47800706334289E-02 
632	 4.46000620600406E-02 
633	 4.47949866241279E-02 
634	 4.52108611448914E-02 
635	 4.50378650022666E-02 
636	 4.45072747225603E-02 
637	 4.38281574023079E-02 
638	 4.34726422743523E-02 
639	 4.33441379311026E-02 
640	 4.31584494135353E-02 
641	 4.27868330811609E-02 
642	 4.22225135822787E-02 
643	 4.16620851964506E-02 
644	 0.041226195430901 
645	 0.040988352389422 
646	 4.05932405337126E-02 
647	 0.040048147922191 
648	 3.95377182704998E-02 
649	 3.92170818703833E-02 
650	 3.91182419656429E-02 
651	 3.89376151705856E-02 
652	 3.87442673520717E-02 
653	 0.038649292594897 
654	 3.85512053678145E-02 
655	 3.84722495705447E-02 
656	 3.86515497832222E-02 
657	 3.85339772416854E-02 
658	 3.79110283993943E-02 
659	 3.77777802627091E-02 
660	 0.037722356489246 
661	 3.68740972780848E-02 
662	 3.64844094763022E-02 
663	 3.66475719360356E-02 
664	 3.61730180399112E-02 
665	 3.54846377976531E-02 
666	 3.50077396565327E-02 
667	 3.51296811292421E-02 
668	 3.55007673722634E-02 
669	 3.50881016385769E-02 
670	 3.47605928805759E-02 
671	 3.47415219021719E-02 
672	 0.034388919540296 
673	 3.40865841957631E-02 
674	 3.43122690280762E-02 
675	 3.46782935745909E-02 
676	 3.49961590839002E-02 
677	 3.50514499133268E-02 
678	 3.48739925330486E-02 
679	 3.45910091092999E-02 
680	 3.49354631937541E-02 
681	 3.55798644490738E-02 
682	 3.58600753506427E-02 
683	 3.62435521866718E-02 
684	 3.68904313758017E-02 
685	 3.79374247476212E-02 
686	 3.91735263020083E-02 
687	 4.04017470091641E-02 
688	 4.18161965868678E-02 
689	 4.32787253591399E-02 
690	 4.46731957387766E-02 
691	 4.62486654460869E-02 
692	 4.82463590557186E-02 
693	 5.11006632420133E-02 
694	 0.054233898972609 
695	 0.056889095343439 
696	 5.94247599632063E-02 
697	 6.20739811727585E-02 
698	 6.53669928811489E-02 
699	 0.068968449116699 
700	 7.25796287025994E-02 
701	 7.57449143957842E-02 
702	 7.87834918249652E-02 
703	 8.22189002933516E-02 
704	 8.58343046173396E-02 
705	 8.95073219675611E-02 
706	 9.28968283454214E-02 
707	 9.60841796666487E-02 
708	 9.91629967304297E-02 
709	 0.102490223975058 
710	 0.10595878271957 
711	 0.109325318796228 
712	 0.112381628072381 
713	 0.115099298725962 
714	 0.117825016251948 
715	 0.120454280646108 
716	 0.123008393272259 
717	 0.125335007791617 
718	 0.127756367222538 
719	 0.130945686116214 
720	 0.133740794325024 
721	 0.135635982959053 
722	 0.137225658551437 
723	 0.139056855686616 
724	 0.141552242285909 
725	 0.143422946809333 
726	 0.144517138670519 
727	 0.145919985522231 
728	 0.147384914072264 
729	 0.148813364073042 
730	 0.150219516158075 
731	 0.151595693594965 
732	 0.152929559330037 
733	 0.153968899381595 
734	 0.154861284461573 
735	 0.156175357921858 
736	 0.157546080314973 
737	 0.158641828549864 
738	 0.159264901256901 
739	 0.159729630042128 
740	 0.160678292080781 
741	 0.161266454765336 
742	 0.161495013781349 
743	 0.162507818259352 
744	 0.163516526486935 
745	 0.163883090084481 
746	 0.164509702829304 
747	 0.165297101521169 
748	 0.165622423767669 
749	 0.166051817699336 
750	 0.166675918783495 
751	 0.166804587898955 
752	 0.167013291707887 
753	 0.167907005053939 
754	 0.168181617954312 
755	 0.168001196290067 
756	 0.16861539524272 
757	 0.169293678932272 
758	 0.169710454871804 
759	 0.169574424756987 
760	 0.169213073905136 
761	 0.170085456754577 
762	 0.170452898559404 
763	 0.170279286665282 
764	 0.17082460365426 
765	 0.171660682627619 
766	 0.172499903414571 
767	 0.173136637611442 
768	 0.173533642302173 
769	 0.173603220971054 
770	 0.174038010162989 
771	 0.174780484649701 
772	 0.174980997280961 
773	 0.175029468542148 
774	 0.175196925512951 
775	 0.175369017842546 
776	 0.175700592396482 
777	 0.176516836455714 
778	 0.176937052166884 
779	 0.176847480549761 
780	 0.177013557392133 
781	 0.177379071660597 
782	 0.177868358218268 
783	 0.178367894422886 
784	 0.178685806169974 
785	 0.178451133015437 
786	 0.178438041062245 
787	 0.178838473554446 
788	 0.179113848775062 
789	 0.179348196669726 
790	 0.179627552283543 
791	 0.17974486277572 
792	 0.179823025086471 
793	 0.18026482630103 
794	 0.180607914372239 
795	 0.180686652179682 
796	 0.180559271610823 
797	 0.180554600620292 
798	 0.18097629481825 
799	 0.181472757336228 
800	 0.181785675032652 
801	 0.181319713964799 
802	 0.181416512775229 
803	 0.182409458184152 
804	 0.182831417753646 
805	 0.183028865097796 
806	 0.183484293434429 
807	 0.183809601896668 
808	 0.18396378794693 
809	 0.183955004435541 
810	 0.184387048325469 
811	 0.185317720747905 
812	 0.185220777181515 
813	 0.184595152139374 
814	 0.184311232651199 
815	 0.184516458685977 
816	 0.185176633551336 
817	 0.185859175538355 
818	 0.186631428848842 
819	 0.187421426777465 
820	 0.188009222484399 
821	 0.188148614416796 
822	 0.187593233362571 
823	 0.187809227034972 
824	 0.188809139821864 
825	 0.189661331355883 
826	 0.190212692849247 
827	 0.190348145786189 
828	 0.189884031542712 
829	 0.189557141207243 
830	 0.190245561274765 
831	 0.191105614390012 
832	 0.191727174974369 
833	 0.191531593778692 
834	 0.19160914605731 
835	 0.1922356272093 
836	 0.191979058318705 
837	 0.191646627795652 
838	 0.192246309074454 
839	 0.193153758186953 
840	 0.193869551697518 
841	 0.193292342075074 
842	 0.193303808230336 
843	 0.194407756014305 
844	 0.194333783146936 
845	 0.194008020563819 
846	 0.194621059852674 
847	 0.194678189328403 
848	 0.194277767160132 
849	 0.194622363509128 
850	 0.194803104143425 
851	 0.19449390707286 
852	 0.194027237662423 
853	 0.1938678924739 
854	 0.194433240611548 
855	 0.194956366400048 
856	 0.195228159368992 
857	 0.195125674557659 
858	 0.195380581458003 
859	 0.196074817912072 
860	 0.196169016311993 
861	 0.196191391428579 
862	 0.196614081220617 
863	 0.195981314434024 
864	 0.195106038096065 
865	 0.196566762424418 
866	 0.197477437840668 
867	 0.197114965277405 
868	 0.197082037141385 
869	 0.197545566242309 
870	 0.198485050173871 
871	 0.198812350838669 
872	 0.198732427779832 
873	 0.1989880984924 
874	 0.199251357082699 
875	 0.199518954786276 
876	 0.199972487291014 
877	 0.201063353870252 
878	 0.202872988049864 
879	 0.203466441411907 
880	 0.203303918873957 
881	 0.203591699489488 
882	 0.203920405893928 
883	 0.204320371653643 
884	 0.205217219399074 
885	 0.205720222518601 
886	 0.205513076380425 
887	 0.206062258061523 
888	 0.207332608945248 
889	 0.209015530680124 
890	 0.209478535982476 
891	 0.208671751414275 
892	 0.207727747628387 
893	 0.207518820882336 
894	 0.208197827054064 
895	 0.206958456287408 
896	 0.206294507483587 
897	 0.209207866459399 
898	 0.209749257432534 
899	 0.208549839482771 
900	 0.210586592834153 
901	 0.212317262441329 
902	 0.21246129726829 
903	 0.210924067642383 
904	 0.208847798457811 
905	 0.207404248856928 
906	 0.208497823492932 
907	 0.210546685832773 
908	 0.210279424421611 
909	 0.209636187114667 
910	 0.209223150716072 
911	 0.209061625010784 
912	 0.209600571024564 
913	 0.210877498645117 
914	 0.211682787505477 
915	 0.211516561277919 
916	 0.210082946553028 
917	 0.209867886982607 
918	 0.211041609863047 
919	 0.21283061541266 
920	 0.212923254597205 
921	 0.210855479227106 
922	 0.209051460079174 
923	 0.208162224901552 
924	 0.208591472755366 
925	 0.209199294098513 
926	 0.209123883692386 
927	 0.207034569700644 
928	 0.204293477092598 
929	 0.20147708687257 
930	 0.198625331699383 
931	 0.195669227057352 
932	 0.193199848906893 
933	 0.196416915841855 
934	 0.199438661344988 
935	 0.192727773073166 
936	 0.18832455153353 
937	 0.187673343082569 
938	 0.186089799401921 
939	 0.185235660247793 
940	 0.184837565752994 
941	 0.181500058886096 
942	 0.181424402922439 
943	 0.187896693342857 
944	 0.188336645508006 
945	 0.18565460733461 
946	 0.187190863599059 
947	 0.186266465708816 
948	 0.182641805044969 
949	 0.181050162920976 
950	 0.178245284973037 
951	 0.173776423481851 
952	 0.17298686170672 
953	 0.172882436025855 
954	 0.170714793702476 
955	 0.171484578829248 
956	 0.171665560125299 
957	 0.163640715588197 
958	 0.160363236385471 
959	 0.163090146222408 
960	 0.163996417187934 
961	 0.163950244573525 
962	 0.163714976879857 
963	 0.165710448173074 
964	 0.167640655396317 
965	 0.167390691104397 
966	 0.167982728311164 
967	 0.168398934729582 
968	 0.165683782363608 
969	 0.16322502609317 
970	 0.16244823361301 
971	 0.164750180874769 
972	 0.166190753272561 
973	 0.164917886171196 
974	 0.16405004266191 
975	 0.16501982786817 
976	 0.168676785477882 
977	 0.169444364363445 
978	 0.168157882702697 
979	 0.169181310739676 
980	 0.16841348720551 
981	 0.166080297015977 
982	 0.166825988075481 
983	 0.170090958654698 
984	 0.174304565570919 
985	 0.17304221048013 
986	 0.169354089063158 
987	 0.167545007018342 
988	 0.171135099488241 
989	 0.176025071993196 
990	 0.172838848535705 
991	 0.16920645268327 
992	 0.168456146079756 
993	 0.173734303001113 
994	 0.178778198301695 
995	 0.180019506058121 
996	 0.177493251716685 
997	 0.176358154934042 
998	 0.180925820519186 
999	 0.18203282831065 
1000	 0.179794473197473 
1001	 0.177088685884961 
1002	 0.179787377435981 
1003	 0.185298020315407 
1004	 0.180108678915627 
1005	 0.174397466740389 
1006	 0.174328497170168 
1007	 0.186682048442362 
1008	 0.197153474777892 
1009	 0.19477523188797 
1010	 0.187802366886115 
1011	 0.182633241487812 
1012	 0.186110594261392 
1013	 0.19100894497731 
1014	 0.194121477416709 
1015	 0.192118218912669 
1016	 0.190540803924243 
1017	 0.189211868435662 
1018	 0.178228303675245 
1019	 0.175136789543168 
1020	 0.187395568989871 
1021	 0.195729571410101 
1022	 0.198059532815272 
1023	 0.194654647781087 
1024	 0.192526085372722 
1025	 0.193089041866528 
1026	 0.196292944582841 
1027	 0.194439704543527 
1028	 0.189598713186893 
1029	 0.194038524542809 
1030	 0.198711341916278 
1031	 0.199533929576725 
1032	 0.193675777757843 
1033	 0.192318785497444 
1034	 0.200150766148303 
1035	 0.197457256348921 
1036	 0.191802856016205 
1037	 0.193035343260558 
1038	 0.198421707556089 
1039	 0.203820738523536 
1040	 0.203380197194936 
1041	 0.203050729957448 
1042	 0.202175745606952 
1043	 0.193172298938845 
1044	 0.191298462769343 
1045	 0.199203440763319 
1046	 0.203974226321828 
1047	 0.194443475496993 
1048	 0.171720412546027 
1049	 0.185091300601386 
1050	 0.210054089518535 
1051	 0.217671959256666 
1052	 0.212285287467359 
1053	 0.200041832577779 
1054	 0.191586004098828 
1055	 0.194776435374606 
1056	 0.203911466507291 
1057	 0.200679839177356 
1058	 0.188783997740016 
1059	 0.177733612264982 
1060	 0.20484981958076 
1061	 0.213191290514847 
1062	 0.185208007368296 
1063	 0.174522012612937 
1064	 0.171758355399533 
1065	 0.169423824269711 
1066	 0.177141954520941 
1067	 0.188178577829303 
1068	 0.193183755703997 
1069	 0.192058786710912 
1070	 0.187680091644987 
1071	 0.184875974810816 
1072	 0.186956719391371 
1073	 0.19138385359356 
1074	 0.189732743526998 
1075	 0.180938622516206 
