Wavelength	AVEI200309.asd
325	 4.86773502100312E-02 
326	 3.85360213183524E-02 
327	 2.01934519605323E-02 
328	 3.95187475882945E-02 
329	 4.97588339802965E-02 
330	 3.98030622864388E-02 
331	 3.92292097240646E-02 
332	 4.30828545083469E-02 
333	 4.42193804932146E-02 
334	 3.88447232793158E-02 
335	 3.13723248081858E-02 
336	 0.033267388418268 
337	 3.79779471915597E-02 
338	 0.041231532022487 
339	 3.46441367990963E-02 
340	 2.65016486768213E-02 
341	 2.42678126041098E-02 
342	 2.59141987975582E-02 
343	 0.031445851438848 
344	 4.31835021468433E-02 
345	 4.23865532392387E-02 
346	 3.02974517509603E-02 
347	 3.39744284631749E-02 
348	 3.57103101579936E-02 
349	 2.58764262790535E-02 
350	 3.19280609289219E-02 
351	 4.44218914151795E-02 
352	 4.34663122986883E-02 
353	 0.036562562813814 
354	 2.83858538182465E-02 
355	 0.028209714351225 
356	 3.12172588270438E-02 
357	 3.37014712205196E-02 
358	 3.21799176331854E-02 
359	 2.96753193137104E-02 
360	 0.031378531642934 
361	 3.09992736566148E-02 
362	 2.88929371283188E-02 
363	 3.14769679540648E-02 
364	 3.39326183169091E-02 
365	 3.37865557189417E-02 
366	 0.033895191930214 
367	 3.35797178545678E-02 
368	 3.15543541768577E-02 
369	 3.04175224476326E-02 
370	 3.05511561930588E-02 
371	 3.06671964200673E-02 
372	 3.23461549631493E-02 
373	 3.56818323485066E-02 
374	 3.55381434508968E-02 
375	 3.30599619070953E-02 
376	 3.06213683362186E-02 
377	 3.16343767927097E-02 
378	 3.47559144004133E-02 
379	 3.24198838389742E-02 
380	 2.95158004027504E-02 
381	 2.87064823627956E-02 
382	 2.93092029433612E-02 
383	 3.07608520375882E-02 
384	 3.23911285196415E-02 
385	 3.16691932725238E-02 
386	 0.029088243299089 
387	 2.83191462670037E-02 
388	 2.74709379593583E-02 
389	 2.63405443498536E-02 
390	 2.89758710256918E-02 
391	 3.16351722661453E-02 
392	 2.98066798850048E-02 
393	 2.89625719086794E-02 
394	 2.95504870514925E-02 
395	 0.029006564679315 
396	 3.02697485852936E-02 
397	 3.33078706890312E-02 
398	 3.11417449118893E-02 
399	 2.75371245525246E-02 
400	 2.68615601872414E-02 
401	 2.99717582774642E-02 
402	 3.38310212654714E-02 
403	 3.06808191634494E-02 
404	 2.84309342937289E-02 
405	 2.98598849565757E-02 
406	 0.030747753045536 
407	 3.04324377788305E-02 
408	 2.86299149034434E-02 
409	 2.80489053946914E-02 
410	 2.88476540657711E-02 
411	 2.96973411000562E-02 
412	 2.91547647779451E-02 
413	 2.71956130193422E-02 
414	 2.85323305904874E-02 
415	 3.07769305880123E-02 
416	 3.03429990713418E-02 
417	 2.99644050101465E-02 
418	 2.99216233495319E-02 
419	 2.90024395239088E-02 
420	 2.84029848630933E-02 
421	 2.87442319838452E-02 
422	 2.95302285242637E-02 
423	 2.96920870177096E-02 
424	 2.77611903751028E-02 
425	 0.027911517499976 
426	 3.01543446091469E-02 
427	 3.04825650774168E-02 
428	 3.00110382290797E-02 
429	 0.029557940846611 
430	 2.96478330705475E-02 
431	 2.98496542042836E-02 
432	 2.92769632766396E-02 
433	 2.90091070695867E-02 
434	 2.92387579975964E-02 
435	 2.95423064309432E-02 
436	 2.97374310578377E-02 
437	 2.96575476176218E-02 
438	 2.88946957791208E-02 
439	 2.80231139733622E-02 
440	 2.81988166898402E-02 
441	 2.81095596401716E-02 
442	 2.77852545100093E-02 
443	 2.90629266925425E-02 
444	 3.05838635345863E-02 
445	 3.11346306282512E-02 
446	 3.03057245299787E-02 
447	 2.90768778527196E-02 
448	 2.98035818685597E-02 
449	 3.02593530031951E-02 
450	 2.98339730121538E-02 
451	 2.94734777435193E-02 
452	 2.93235168916325E-02 
453	 2.94591753770399E-02 
454	 2.94712668555231E-02 
455	 2.92970948082867E-02 
456	 2.89789619880345E-02 
457	 2.88233763512806E-02 
458	 2.90901070802165E-02 
459	 3.04953037255192E-02 
460	 3.13472162716577E-02 
461	 2.96954018300657E-02 
462	 2.95004943805013E-02 
463	 3.08863603871885E-02 
464	 3.12794749790677E-02 
465	 3.11678161200313E-02 
466	 3.07869861489691E-02 
467	 3.02922394281463E-02 
468	 3.01361816997431E-02 
469	 3.09100711063761E-02 
470	 3.12212100487364E-02 
471	 3.08548080729973E-02 
472	 3.04417815297956E-02 
473	 3.05848089200787E-02 
474	 0.03146664035619 
475	 3.11781637016092E-02 
476	 0.030263071107582 
477	 0.030148654954453 
478	 2.98496846194217E-02 
479	 2.94772478302738E-02 
480	 0.030562536514952 
481	 3.17935424167736E-02 
482	 3.20472101187501E-02 
483	 3.12636230882479E-02 
484	 3.04402645785839E-02 
485	 3.21087241878073E-02 
486	 3.29875221080029E-02 
487	 3.20631379071634E-02 
488	 3.09585724533716E-02 
489	 3.06855442636197E-02 
490	 3.20006927485434E-02 
491	 3.21467119361616E-02 
492	 3.12192213301613E-02 
493	 0.030944589889074 
494	 3.13686740756538E-02 
495	 0.032347258273594 
496	 3.25985523612474E-02 
497	 3.23386791893452E-02 
498	 3.20239759574091E-02 
499	 3.23623383039877E-02 
500	 3.30904259102303E-02 
501	 3.25662992531583E-02 
502	 3.21629385431841E-02 
503	 3.28026598192304E-02 
504	 3.47644391108614E-02 
505	 0.036470355180894 
506	 3.52622715271662E-02 
507	 3.51846089002252E-02 
508	 3.66540662907571E-02 
509	 3.62950901688991E-02 
510	 0.035529285454648 
511	 3.56212205671158E-02 
512	 3.67991902478893E-02 
513	 3.83302487666124E-02 
514	 3.85308027837488E-02 
515	 3.80395565256299E-02 
516	 3.73076213010469E-02 
517	 3.73353144843213E-02 
518	 3.83728645490338E-02 
519	 4.04490150131144E-02 
520	 4.10534962187389E-02 
521	 4.05341657574896E-02 
522	 4.12901225974108E-02 
523	 4.25650104317342E-02 
524	 4.38652240879437E-02 
525	 4.42009961190821E-02 
526	 4.37643051260856E-02 
527	 4.29417642554046E-02 
528	 4.40025140413262E-02 
529	 4.65177767637284E-02 
530	 4.68777797956118E-02 
531	 4.69483450067837E-02 
532	 4.78552805197193E-02 
533	 4.78261706240102E-02 
534	 4.72809597557907E-02 
535	 4.74690269896222E-02 
536	 4.79473120002516E-02 
537	 4.84877900115707E-02 
538	 4.85514161549776E-02 
539	 4.88096268767758E-02 
540	 4.98764933192548E-02 
541	 0.050557486649754 
542	 5.07137196143811E-02 
543	 0.050679280188614 
544	 5.05535432612667E-02 
545	 5.04976603026388E-02 
546	 5.09537712520511E-02 
547	 5.16182676649246E-02 
548	 5.20453136073707E-02 
549	 5.19568415233251E-02 
550	 5.15256234339669E-02 
551	 5.14559865022675E-02 
552	 5.20882575573946E-02 
553	 5.34279430902717E-02 
554	 5.36274101706148E-02 
555	 5.31140229148204E-02 
556	 5.31723118037508E-02 
557	 5.33226447880811E-02 
558	 5.34684359861477E-02 
559	 5.38043845515255E-02 
560	 5.36951291699184E-02 
561	 0.052692739773735 
562	 5.29620547723465E-02 
563	 5.41773980993886E-02 
564	 5.44423455433677E-02 
565	 5.45050649323281E-02 
566	 5.45348985933474E-02 
567	 5.39295216560504E-02 
568	 0.053387796843569 
569	 0.053842417408005 
570	 5.38504730894977E-02 
571	 5.32829150314068E-02 
572	 5.30408972520722E-02 
573	 5.27275264285751E-02 
574	 5.22411745617512E-02 
575	 5.29523638418378E-02 
576	 5.35674540528742E-02 
577	 5.13110785852516E-02 
578	 5.03544388293326E-02 
579	 5.13822078588785E-02 
580	 5.08446216672844E-02 
581	 5.07384039328113E-02 
582	 5.26600634787668E-02 
583	 0.052356460520652 
584	 5.07010966868956E-02 
585	 5.21200074267185E-02 
586	 5.29614917005411E-02 
587	 5.19259547433629E-02 
588	 5.04087468036146E-02 
589	 4.97643992542038E-02 
590	 5.15529094571635E-02 
591	 5.21765826119916E-02 
592	 5.11666648156545E-02 
593	 5.00603579152232E-02 
594	 4.99445290356317E-02 
595	 5.12666915223334E-02 
596	 5.16411281611062E-02 
597	 5.13473777579778E-02 
598	 5.14763874263566E-02 
599	 5.17055738063067E-02 
600	 5.19064563184566E-02 
601	 5.18822015355481E-02 
602	 5.15857407658574E-02 
603	 5.10294400120461E-02 
604	 0.050682501605435 
605	 5.06453336472907E-02 
606	 5.11049691446109E-02 
607	 5.05623934783889E-02 
608	 4.88967813160997E-02 
609	 4.93969121743937E-02 
610	 5.09074440906863E-02 
611	 0.051575741642355 
612	 5.07145857417427E-02 
613	 4.89482438213501E-02 
614	 4.89858152656297E-02 
615	 4.94533598437971E-02 
616	 4.95787276454367E-02 
617	 5.03166857986126E-02 
618	 5.10837561476123E-02 
619	 5.08097039743653E-02 
620	 4.93300061995325E-02 
621	 4.72432933002915E-02 
622	 0.047204952503275 
623	 0.047858692440511 
624	 4.79316698350449E-02 
625	 4.85630362709105E-02 
626	 4.93542561407054E-02 
627	 4.86770332804832E-02 
628	 4.88378459133204E-02 
629	 5.03067537254401E-02 
630	 4.98728781720687E-02 
631	 4.89705295810479E-02 
632	 4.96949405794445E-02 
633	 0.05010541802723 
634	 4.97968545854258E-02 
635	 4.89334249081002E-02 
636	 4.84804126839079E-02 
637	 4.88015527218269E-02 
638	 4.74990565859218E-02 
639	 4.60538032339083E-02 
640	 4.77124870876579E-02 
641	 4.86932820808133E-02 
642	 4.80267164024238E-02 
643	 4.72266675374337E-02 
644	 4.62104885629583E-02 
645	 4.50153759959215E-02 
646	 4.57981845352182E-02 
647	 4.75316209407724E-02 
648	 4.63055326529656E-02 
649	 4.56768702363331E-02 
650	 0.046614152593997 
651	 4.61835311669955E-02 
652	 4.49521779143537E-02 
653	 4.38789179803421E-02 
654	 4.34822880726173E-02 
655	 4.38094361040152E-02 
656	 4.46648939358002E-02 
657	 0.044080700548371 
658	 4.15214524224713E-02 
659	 4.17788371167087E-02 
660	 4.31109617786282E-02 
661	 4.17993029139237E-02 
662	 4.23017700276696E-02 
663	 4.45753434329684E-02 
664	 4.30535619255829E-02 
665	 4.08464532978068E-02 
666	 4.06376559450827E-02 
667	 4.04868760659534E-02 
668	 4.01567091087169E-02 
669	 3.98591288396467E-02 
670	 0.039450767083369 
671	 3.90473899501981E-02 
672	 0.039447373901789 
673	 4.03049952342099E-02 
674	 4.11179057149637E-02 
675	 4.08719667945935E-02 
676	 4.00024177719565E-02 
677	 4.05658722957724E-02 
678	 4.13652152178444E-02 
679	 4.16948419883122E-02 
680	 4.13202881252613E-02 
681	 4.09825696118023E-02 
682	 4.19018111080267E-02 
683	 0.042542024551229 
684	 4.28989609467924E-02 
685	 4.48753619177764E-02 
686	 4.70565853641053E-02 
687	 4.81957720384213E-02 
688	 0.05013631926368 
689	 5.22965771166445E-02 
690	 0.053001681840969 
691	 5.44196443246442E-02 
692	 5.71093381084429E-02 
693	 5.98299467306033E-02 
694	 6.25555945122094E-02 
695	 6.52284295779945E-02 
696	 6.79409895251454E-02 
697	 7.07405354189629E-02 
698	 7.38451454581233E-02 
699	 0.077028676725327 
700	 8.01368905351912E-02 
701	 8.32685863253507E-02 
702	 8.63203970097459E-02 
703	 8.91609671121146E-02 
704	 9.33166192181892E-02 
705	 9.79946975333349E-02 
706	 9.90822780638434E-02 
707	 0.100418985716886 
708	 0.104280828505918 
709	 0.107440008176161 
710	 0.109990446690316 
711	 0.113031792842473 
712	 0.11518748923369 
713	 0.116438078100277 
714	 0.118589855587305 
715	 0.121139067687629 
716	 0.123662414895619 
717	 0.125702374699695 
718	 0.12752562188537 
719	 0.130260793331819 
720	 0.131991033218101 
721	 0.132589050967169 
722	 0.135045698812099 
723	 0.137817555114587 
724	 0.138846846853113 
725	 0.14048622617805 
726	 0.14274342525636 
727	 0.144528611240702 
728	 0.145012459561756 
729	 0.144367848094345 
730	 0.147058514708781 
731	 0.150008643874557 
732	 0.148517911406029 
733	 0.147888943122076 
734	 0.14879924898795 
735	 0.149011539081185 
736	 0.150164555291852 
737	 0.152965567578527 
738	 0.153839201415536 
739	 0.153765262321419 
740	 0.155595804002934 
741	 0.15637987899317 
742	 0.155773167797747 
743	 0.156047856151849 
744	 0.157022129694527 
745	 0.158387002579294 
746	 0.159212615474105 
747	 0.159293669535117 
748	 0.158431424724858 
749	 0.158356889657018 
750	 0.15964615921904 
751	 0.161301384608183 
752	 0.162512849552131 
753	 0.162569170093691 
754	 0.162712121362513 
755	 0.163209011342451 
756	 0.164067625134725 
757	 0.164431661142302 
758	 0.164107698654589 
759	 0.165234895600344 
760	 0.168358312280102 
761	 0.170466510560724 
762	 0.171327635308147 
763	 0.171387500058994 
764	 0.171233078456771 
765	 0.171696223929209 
766	 0.172589254231171 
767	 0.171726051727191 
768	 0.170578563082062 
769	 0.170937967210051 
770	 0.170786084729519 
771	 0.170231154602585 
772	 0.171474858897233 
773	 0.172406949867537 
774	 0.17181834633247 
775	 0.172311632507879 
776	 0.173716828204231 
777	 0.175083246617581 
778	 0.176358377533402 
779	 0.177041979501545 
780	 0.175165168160106 
781	 0.174528807449549 
782	 0.177781473298038 
783	 0.179391268948511 
784	 0.179426891214601 
785	 0.180169594673082 
786	 0.179815492581073 
787	 0.178590992864543 
788	 0.180226062510317 
789	 0.182122345972912 
790	 0.181794556234796 
791	 0.181811137568237 
792	 0.182251999455491 
793	 0.182055132625823 
794	 0.182452556030326 
795	 0.183624922991386 
796	 0.184195504574467 
797	 0.184254912380153 
798	 0.18405289270856 
799	 0.184599757896246 
800	 0.185819046307866 
801	 0.187009911526129 
802	 0.18764655898031 
803	 0.187542261550125 
804	 0.187169986392898 
805	 0.187463105953981 
806	 0.189238473373836 
807	 0.189430099583893 
808	 0.188888767859388 
809	 0.19238802151864 
810	 0.193717556417205 
811	 0.191092327269084 
812	 0.192436296354351 
813	 0.195027930301151 
814	 0.194302339975997 
815	 0.193697063120759 
816	 0.194575978080942 
817	 0.198847874663182 
818	 0.199139060830103 
819	 0.194259888067139 
820	 0.19697237750975 
821	 0.200779347965788 
822	 0.197279410499449 
823	 0.196938591226606 
824	 0.200148054900438 
825	 0.2009917324133 
826	 0.202515754968062 
827	 0.205010271482679 
828	 0.202073142499656 
829	 0.199206318609645 
830	 0.20357569295276 
831	 0.204368730219102 
832	 0.201746592966857 
833	 0.20306926601326 
834	 0.204296512091477 
835	 0.204298809837853 
836	 0.206837489231688 
837	 0.208770775921923 
838	 0.20650292661543 
839	 0.206360225634247 
840	 0.208319448553362 
841	 0.208519094643271 
842	 0.207446991434904 
843	 0.205660453288786 
844	 0.20537867856202 
845	 0.206608299742253 
846	 0.208988944308998 
847	 0.20969693389603 
848	 0.209387553568945 
849	 0.212465273637996 
850	 0.212131137396167 
851	 0.207162248295162 
852	 0.208171401367634 
853	 0.210473398819965 
854	 0.208408569819495 
855	 0.208314083731219 
856	 0.210074555711638 
857	 0.21043789230788 
858	 0.210334508958004 
859	 0.21036866527034 
860	 0.212338911471778 
861	 0.214066477967463 
862	 0.213561003100208 
863	 0.213458956586333 
864	 0.214744379474812 
865	 0.218856140697974 
866	 0.219967877378178 
867	 0.217026043741644 
868	 0.21563445645158 
869	 0.215630148644527 
870	 0.216669019059388 
871	 0.21898285359404 
872	 0.220581081037641 
873	 0.217577506115889 
874	 0.216630027406212 
875	 0.218735528061724 
876	 0.218353534756848 
877	 0.219494013640979 
878	 0.224362146427771 
879	 0.226244109578227 
880	 0.226325400494251 
881	 0.228202288342284 
882	 0.227212201496371 
883	 0.224284094135799 
884	 0.227018968477013 
885	 0.228548036550028 
886	 0.225752062202752 
887	 0.225795210265282 
888	 0.229088945475472 
889	 0.234884079556635 
890	 0.237210822759148 
891	 0.236107465070322 
892	 0.236974876617734 
893	 0.236497563850852 
894	 0.234296549593484 
895	 0.237950359768913 
896	 0.241300046675329 
897	 0.236749393134531 
898	 0.237099984966654 
899	 0.241316361790183 
900	 0.239920655505429 
901	 0.237794460559794 
902	 0.23717122723508 
903	 0.240613015311855 
904	 0.242903618169794 
905	 0.24056640242726 
906	 0.241843019303917 
907	 0.245153562610345 
908	 0.245479686673426 
909	 0.244441845706186 
910	 0.242982178349092 
911	 0.242934837613101 
912	 0.24519305597043 
913	 0.248491193219329 
914	 0.241717988103619 
915	 0.233718732264092 
916	 0.235724726235833 
917	 0.239559561554795 
918	 0.244412956499626 
919	 0.255186075363515 
920	 0.256071408928382 
921	 0.24513352934056 
922	 0.244081032894512 
923	 0.246570281383968 
924	 0.246178551021614 
925	 0.248370289498871 
926	 0.251351284477485 
927	 0.24950665424751 
928	 0.247884606953396 
929	 0.248827909266623 
930	 0.254249549532542 
931	 0.253751050152449 
932	 0.242351157639409 
933	 0.258129476338244 
934	 0.279587562598645 
935	 0.265635805547413 
936	 0.243098057672891 
937	 0.22705170582375 
938	 0.23729623772616 
939	 0.247391018917471 
940	 0.251870344876788 
941	 0.269937846719623 
942	 0.279115927505483 
943	 0.26472876205643 
944	 0.26503123534937 
945	 0.268892008623607 
946	 0.252006533795716 
947	 0.239043408609145 
948	 0.239449163046287 
949	 0.255158311167063 
950	 0.258133298143955 
951	 0.242287631711891 
952	 0.243937509604057 
953	 0.248084903479135 
954	 0.241812557061997 
955	 0.260032943169561 
956	 0.280032419879202 
957	 0.255984286099212 
958	 0.247137393590434 
959	 0.256552301355375 
960	 0.23781324033663 
961	 0.223416434407941 
962	 0.229233992240954 
963	 0.245381130682168 
964	 0.253701572958704 
965	 0.241571076366615 
966	 0.230383082015402 
967	 0.225543605370154 
968	 0.229574098087594 
969	 0.246456328967281 
970	 0.265744215971203 
971	 0.24879266776244 
972	 0.234534458312182 
973	 0.24355515230116 
974	 0.253488938382956 
975	 0.258339256805574 
976	 0.253892752547029 
977	 0.251437798980857 
978	 0.251522958856606 
979	 0.25007444000611 
980	 0.246764208346861 
981	 0.242114650946828 
982	 0.239374734259967 
983	 0.237918188193649 
984	 0.237997496769722 
985	 0.243470462984833 
986	 0.250122385020656 
987	 0.252956966271249 
988	 0.248868668874006 
989	 0.240947144713689 
990	 0.234213196422858 
991	 0.244353251971421 
992	 0.265758220305693 
993	 0.264367048095692 
994	 0.259463266839477 
995	 0.259994427793706 
996	 0.260831894442326 
997	 0.256640011364432 
998	 0.244881129995363 
999	 0.255504022312483 
1000	 0.270463961120013 
1001	 0.251827043298931 
1002	 0.242429045153133 
1003	 0.251130385315868 
1004	 0.270507014739833 
1005	 0.27198371541472 
1006	 0.249356990868514 
1007	 0.243070780465267 
1008	 0.246219544933911 
1009	 0.250638191117576 
1010	 0.250466003961987 
1011	 0.251204954716101 
1012	 0.261233886529966 
1013	 0.27269104984498 
1014	 0.271307234344286 
1015	 0.222221170264284 
1016	 0.212277044580189 
1017	 0.251756108908138 
1018	 0.25872069901531 
1019	 0.248593464787919 
1020	 0.23124247119705 
1021	 0.214277628888346 
1022	 0.224527039389981 
1023	 0.275968941633397 
1024	 0.28259094555407 
1025	 0.26212577593007 
1026	 0.270702594891237 
1027	 0.283675203848347 
1028	 0.288631556033527 
1029	 0.261317678084013 
1030	 0.275556308075032 
1031	 0.32890903144419 
1032	 0.297944260485651 
1033	 0.256252277099727 
1034	 0.250080356881958 
1035	 0.242517110399272 
1036	 0.247883290728165 
1037	 0.281485597880416 
1038	 0.28063350309581 
1039	 0.269200389597228 
1040	 0.30641407736208 
1041	 0.30410812918944 
1042	 0.26223439433591 
1043	 0.233269844766902 
1044	 0.253049596448937 
1045	 0.307390060206488 
1046	 0.27521565805297 
1047	 0.243671350951693 
1048	 0.263928741244452 
1049	 0.291347023182166 
1050	 0.312769751203986 
1051	 0.313364315937188 
1052	 0.273459944406531 
1053	 0.230452858713579 
1054	 0.245321363144144 
1055	 0.223188287779995 
1056	 0.184389726336296 
1057	 0.240713476931767 
1058	 0.251994851273806 
1059	 0.211629182988701 
1060	 0.291838815259967 
1061	 0.318840991670168 
1062	 0.260659483794456 
1063	 0.216220010514242 
1064	 0.223801011256282 
1065	 0.289897592390896 
1066	 0.322055394463995 
1067	 0.328416951011889 
1068	 0.335364025131628 
1069	 0.328358933774596 
1070	 0.32293282210351 
1071	 0.343433762429011 
1072	 0.354130341346957 
1073	 0.341424221774116 
1074	 0.29788989347671 
1075	 0.268430746680296 
