Wavelength	AVEI200038.asd
325	 2.89888113715376E-02 
326	 3.20132268507516E-02 
327	 3.25431582689496E-02 
328	 2.99933109751815E-02 
329	 2.62324036521536E-02 
330	 2.29568437475141E-02 
331	 2.34397578565368E-02 
332	 2.48262783938426E-02 
333	 2.44252883344203E-02 
334	 2.63569843371903E-02 
335	 2.95500989781627E-02 
336	 3.03801054873436E-02 
337	 2.96182147944785E-02 
338	 2.81093430726523E-02 
339	 2.84268161733164E-02 
340	 2.91110545862293E-02 
341	 2.88734941844469E-02 
342	 2.80604975080151E-02 
343	 2.78573083781736E-02 
344	 3.06724696327088E-02 
345	 3.08791633259268E-02 
346	 2.81156384309759E-02 
347	 2.71135363628555E-02 
348	 2.69030631737147E-02 
349	 2.68180884077641E-02 
350	 2.79573746441347E-02 
351	 2.89926994573222E-02 
352	 2.77323076643947E-02 
353	 2.71621565981922E-02 
354	 2.76501684089188E-02 
355	 2.76812135333672E-02 
356	 2.72672969689005E-02 
357	 2.65212360098381E-02 
358	 2.60639133265277E-02 
359	 2.62061697858387E-02 
360	 2.73082227022677E-02 
361	 2.66299595852148E-02 
362	 0.024872082583175 
363	 2.68414893219931E-02 
364	 2.83284651858514E-02 
365	 2.72934143190899E-02 
366	 2.65176341436823E-02 
367	 2.61933831535112E-02 
368	 2.61605137258066E-02 
369	 2.66650537733123E-02 
370	 2.74003761667602E-02 
371	 2.72659421878276E-02 
372	 0.027331117705195 
373	 2.78700270745079E-02 
374	 0.02644446206703 
375	 0.025025857743835 
376	 2.65489246589939E-02 
377	 2.73232215194828E-02 
378	 2.69052529226188E-02 
379	 2.69426733792557E-02 
380	 2.72642532098619E-02 
381	 2.76401553495459E-02 
382	 2.69648092019618E-02 
383	 2.63299810353166E-02 
384	 2.72437860994059E-02 
385	 2.73666575096479E-02 
386	 2.67190789573742E-02 
387	 2.72961831340442E-02 
388	 2.73844168609009E-02 
389	 2.65384639157098E-02 
390	 2.71369934178366E-02 
391	 2.77388265875779E-02 
392	 2.65209702158833E-02 
393	 2.61545556268492E-02 
394	 2.66994624677985E-02 
395	 2.66048016645311E-02 
396	 2.66587590831699E-02 
397	 2.70365319781982E-02 
398	 2.69042856575601E-02 
399	 2.65313670206877E-02 
400	 2.62685922982098E-02 
401	 2.64390341136771E-02 
402	 2.67976810510605E-02 
403	 2.65961619396167E-02 
404	 2.64465732022979E-02 
405	 2.65706957415057E-02 
406	 2.67107257023143E-02 
407	 2.68109471656516E-02 
408	 2.68340339572966E-02 
409	 2.64662197134151E-02 
410	 2.59508200667747E-02 
411	 2.61627045631865E-02 
412	 2.63362457255586E-02 
413	 2.62022634297744E-02 
414	 2.65905834864082E-02 
415	 2.69636405337229E-02 
416	 2.65589008406672E-02 
417	 2.60832649967287E-02 
418	 2.58489338449132E-02 
419	 2.62588483153022E-02 
420	 2.66364396049153E-02 
421	 2.65940264813655E-02 
422	 2.61822266655208E-02 
423	 2.60452964778446E-02 
424	 2.70977271653502E-02 
425	 0.027508898040384 
426	 2.70576874148533E-02 
427	 2.67609869052124E-02 
428	 2.66731569231524E-02 
429	 2.67931361371871E-02 
430	 2.66517968586717E-02 
431	 2.64935171852948E-02 
432	 2.68472991017884E-02 
433	 2.69087482080598E-02 
434	 2.65942293994779E-02 
435	 2.64130301900013E-02 
436	 2.64337511445342E-02 
437	 2.66655551827692E-02 
438	 2.67947367533497E-02 
439	 2.68849455014799E-02 
440	 2.71511093630633E-02 
441	 2.74042307599922E-02 
442	 2.75391128632287E-02 
443	 2.73996773942139E-02 
444	 0.027206097460993 
445	 2.71484768387127E-02 
446	 2.72119464725464E-02 
447	 2.73410247276858E-02 
448	 0.027433250755336 
449	 2.74302879483523E-02 
450	 2.73383577409127E-02 
451	 2.73109724728923E-02 
452	 2.73297434959972E-02 
453	 2.73812875375375E-02 
454	 0.027775137986203 
455	 2.82776166556381E-02 
456	 2.80787870240478E-02 
457	 2.79995946778603E-02 
458	 2.83061636619353E-02 
459	 2.84411409108394E-02 
460	 2.83357723591245E-02 
461	 2.79843808533457E-02 
462	 2.82353826067677E-02 
463	 2.88398571693189E-02 
464	 2.83640390490195E-02 
465	 2.80130265154426E-02 
466	 2.83512805417135E-02 
467	 2.86273699585828E-02 
468	 2.87707348376718E-02 
469	 2.88087488349284E-02 
470	 2.87165001998644E-02 
471	 2.85156060402548E-02 
472	 2.82250674072356E-02 
473	 0.028164600635608 
474	 2.84917553024207E-02 
475	 2.86891217757945E-02 
476	 2.87746131165152E-02 
477	 2.89262599807202E-02 
478	 2.89751254441496E-02 
479	 2.89155858828692E-02 
480	 2.89307607437579E-02 
481	 2.89082165982234E-02 
482	 2.87843966056205E-02 
483	 2.89617638019502E-02 
484	 2.93066340598604E-02 
485	 2.93383255121115E-02 
486	 2.93532221910337E-02 
487	 2.94905709817796E-02 
488	 2.99392537227461E-02 
489	 0.03025071745547 
490	 2.99828665901905E-02 
491	 2.95340223226968E-02 
492	 0.02921564024583 
493	 2.96200054804202E-02 
494	 2.98950083413704E-02 
495	 2.97513715401478E-02 
496	 2.99940860858737E-02 
497	 3.02480522342771E-02 
498	 2.99421599193448E-02 
499	 3.00152064546004E-02 
500	 3.04943172616116E-02 
501	 3.06907021600526E-02 
502	 3.05876151348777E-02 
503	 3.02626196124626E-02 
504	 3.04243816021929E-02 
505	 0.030836444575081 
506	 0.030946151104514 
507	 3.10270809831572E-02 
508	 3.11687499717263E-02 
509	 3.14607793044058E-02 
510	 3.16554454288938E-02 
511	 3.16086860968856E-02 
512	 3.21150606866654E-02 
513	 3.27709096412506E-02 
514	 3.23367777615928E-02 
515	 3.18045433135569E-02 
516	 3.16662623331821E-02 
517	 0.032442405754473 
518	 3.32015466370743E-02 
519	 3.29352409891808E-02 
520	 3.27877730998464E-02 
521	 3.29570198946646E-02 
522	 3.33091453464797E-02 
523	 0.033563699078698 
524	 3.35934884517655E-02 
525	 3.35492452879713E-02 
526	 3.35838520858139E-02 
527	 3.38786711293004E-02 
528	 3.42599980178966E-02 
529	 3.46063075384626E-02 
530	 3.47324395393045E-02 
531	 3.47521727321565E-02 
532	 3.47924419949651E-02 
533	 3.52726538379042E-02 
534	 3.58655726249885E-02 
535	 3.58370165660115E-02 
536	 3.55970176424184E-02 
537	 3.54122750882057E-02 
538	 3.58443884303653E-02 
539	 0.036368605432361 
540	 3.64573007354684E-02 
541	 3.64055296922946E-02 
542	 3.63698298157257E-02 
543	 3.65918048947592E-02 
544	 3.69038531125481E-02 
545	 3.71788897806919E-02 
546	 3.71494343272665E-02 
547	 3.70019303538719E-02 
548	 3.70079101327863E-02 
549	 3.72630608340573E-02 
550	 3.76552547684466E-02 
551	 3.77180524543153E-02 
552	 3.77448771537753E-02 
553	 3.78967462721818E-02 
554	 3.78219656029804E-02 
555	 3.77916107983907E-02 
556	 3.84136032545915E-02 
557	 3.88248732488415E-02 
558	 3.87599547617926E-02 
559	 3.84443651685957E-02 
560	 3.81815156584462E-02 
561	 3.82498050903241E-02 
562	 3.86138922403554E-02 
563	 3.90724570095815E-02 
564	 3.91349372796019E-02 
565	 3.92860398397099E-02 
566	 0.039617999584005 
567	 3.94402220317277E-02 
568	 3.91350101520571E-02 
569	 3.92615166151983E-02 
570	 3.93345459580679E-02 
571	 3.92734529135231E-02 
572	 3.91924707667421E-02 
573	 3.92517725812258E-02 
574	 3.95264381955027E-02 
575	 3.97478810148113E-02 
576	 3.98735759610204E-02 
577	 3.99148744094473E-02 
578	 3.98032523188012E-02 
579	 3.96211653446902E-02 
580	 3.97606714583923E-02 
581	 4.00189143082648E-02 
582	 0.040199884824116 
583	 4.03650635413441E-02 
584	 4.05025037381389E-02 
585	 4.05788699398249E-02 
586	 4.05941558280722E-02 
587	 4.05612445491086E-02 
588	 4.05466599553675E-02 
589	 4.05684895008209E-02 
590	 4.06378914034004E-02 
591	 4.05972377439064E-02 
592	 4.05390656545244E-02 
593	 4.08909070922533E-02 
594	 4.12342411283983E-02 
595	 0.041319423821409 
596	 4.12707274544198E-02 
597	 4.12590829903504E-02 
598	 4.15653878070016E-02 
599	 4.16687416123162E-02 
600	 4.15375350639627E-02 
601	 4.17961095825376E-02 
602	 4.20616925572683E-02 
603	 4.20043603463248E-02 
604	 4.21745596843529E-02 
605	 4.24070239020794E-02 
606	 4.19737472263536E-02 
607	 4.18136609592536E-02 
608	 4.22331569830736E-02 
609	 4.25908297208961E-02 
610	 4.27059044954834E-02 
611	 4.24403655350545E-02 
612	 4.24664135902624E-02 
613	 4.27672449248161E-02 
614	 4.26407412409137E-02 
615	 0.042599668419453 
616	 4.29053792399042E-02 
617	 4.30322841837016E-02 
618	 4.28999853277254E-02 
619	 0.042451369664342 
620	 4.26221300962604E-02 
621	 4.33806018646353E-02 
622	 4.32656031970779E-02 
623	 4.28353022803211E-02 
624	 4.26598324882837E-02 
625	 4.28313534561078E-02 
626	 4.32233352385069E-02 
627	 4.34790564942089E-02 
628	 4.35097017698118E-02 
629	 4.33275934359072E-02 
630	 0.043344566722304 
631	 0.043478941894415 
632	 4.35787647846158E-02 
633	 4.39159925851482E-02 
634	 4.43933576962401E-02 
635	 4.45054168669882E-02 
636	 4.46562504203715E-02 
637	 4.50056935129149E-02 
638	 4.47709059159354E-02 
639	 4.44092256832286E-02 
640	 4.49239291885653E-02 
641	 4.51392747159637E-02 
642	 4.48633306294241E-02 
643	 4.49851267801917E-02 
644	 4.50787840619897E-02 
645	 4.47915934397323E-02 
646	 4.49356254164607E-02 
647	 4.53747586562569E-02 
648	 4.53409869845497E-02 
649	 4.52791191796968E-02 
650	 4.53661579870649E-02 
651	 0.045642130340043 
652	 4.57474946297824E-02 
653	 4.52675017221172E-02 
654	 0.045188933458651 
655	 4.55262064928637E-02 
656	 4.54072804874971E-02 
657	 4.52213451916215E-02 
658	 4.51964137713681E-02 
659	 4.51842050124108E-02 
660	 4.50686626998713E-02 
661	 4.46703768900787E-02 
662	 0.044490140346103 
663	 0.04462486410878 
664	 4.48487634186069E-02 
665	 4.47930990220381E-02 
666	 4.42011911476794E-02 
667	 4.37606581948297E-02 
668	 4.35359555656033E-02 
669	 4.32750931906842E-02 
670	 4.34209733665185E-02 
671	 4.39683677103334E-02 
672	 4.39740618042945E-02 
673	 4.37645958054291E-02 
674	 4.38057752385241E-02 
675	 4.40865436464784E-02 
676	 0.044473167011132 
677	 4.45365363191878E-02 
678	 4.46414013250652E-02 
679	 4.49641511258367E-02 
680	 4.52519028577957E-02 
681	 4.55235612973622E-02 
682	 4.58530895884242E-02 
683	 4.62661980708904E-02 
684	 4.67671204472932E-02 
685	 4.73380614070677E-02 
686	 4.80683560780542E-02 
687	 4.90055229082375E-02 
688	 4.96759280156189E-02 
689	 5.02435834106296E-02 
690	 0.051447021196713 
691	 5.25214381175198E-02 
692	 5.33096060462574E-02 
693	 5.41072516312652E-02 
694	 5.51308973360288E-02 
695	 5.65128545095923E-02 
696	 5.77343322284092E-02 
697	 0.058767881202042 
698	 5.98839058235651E-02 
699	 6.11747283205633E-02 
700	 0.062594083101903 
701	 6.35378800712739E-02 
702	 6.44029415915253E-02 
703	 6.58318005657261E-02 
704	 6.69407127704896E-02 
705	 6.77406430593646E-02 
706	 6.90206953115364E-02 
707	 7.01673265857737E-02 
708	 7.08478460660429E-02 
709	 0.071854204804285 
710	 7.30246753073952E-02 
711	 7.38619809546637E-02 
712	 7.46585778497726E-02 
713	 7.54834329992948E-02 
714	 7.62948103685509E-02 
715	 7.69696569956235E-02 
716	 7.74369992718957E-02 
717	 7.79533342767861E-02 
718	 7.86310571494638E-02 
719	 7.93928984261062E-02 
720	 8.04673681071052E-02 
721	 8.16194498834725E-02 
722	 8.19461661522654E-02 
723	 8.21930645864852E-02 
724	 8.31717588610761E-02 
725	 8.38917315148519E-02 
726	 8.42758868119339E-02 
727	 8.50749698829913E-02 
728	 8.57365505308525E-02 
729	 8.60438788058849E-02 
730	 8.64529786985969E-02 
731	 8.70710397471595E-02 
732	 8.79537728508722E-02 
733	 8.85294214018052E-02 
734	 8.88005484246182E-02 
735	 8.91576979535012E-02 
736	 8.96826771542205E-02 
737	 9.04072659892765E-02 
738	 9.12360421309829E-02 
739	 0.091919211432908 
740	 9.20138606035559E-02 
741	 9.23773803514276E-02 
742	 9.32063198150565E-02 
743	 9.41235502200575E-02 
744	 9.47947972104687E-02 
745	 9.49879835667758E-02 
746	 9.52388336381952E-02 
747	 9.56107869383154E-02 
748	 9.59822627511689E-02 
749	 9.64659941084579E-02 
750	 9.70447433185042E-02 
751	 9.74413612059543E-02 
752	 9.77442114393117E-02 
753	 9.80703445670507E-02 
754	 9.83005753340035E-02 
755	 9.86129917300407E-02 
756	 9.96511424628875E-02 
757	 0.10031842032991 
758	 0.100112256466697 
759	 0.099086228149476 
760	 0.09796294196845 
761	 0.100227500299444 
762	 0.101955159712195 
763	 0.10215552668832 
764	 0.102750365544555 
765	 0.103082852265647 
766	 0.103103296091131 
767	 0.10359324068746 
768	 0.10428231338514 
769	 0.104831506788053 
770	 0.10538497052675 
771	 0.105907111031389 
772	 0.106164255067916 
773	 0.106587444870603 
774	 0.107405533834283 
775	 0.107989087856556 
776	 0.10825056962101 
777	 0.108181986960736 
778	 0.108517683586695 
779	 0.109312903201797 
780	 0.109688976923592 
781	 0.110043373288331 
782	 0.110666574423669 
783	 0.110939521601806 
784	 0.111061498723947 
785	 0.111688575563934 
786	 0.112071990338822 
787	 0.112128990787454 
788	 0.112736961929207 
789	 0.113349859428731 
790	 0.113457840945942 
791	 0.11390677904068 
792	 0.114536451808661 
793	 0.114554024449378 
794	 0.114744060796874 
795	 0.115303219981147 
796	 0.115709386421916 
797	 0.115997118723706 
798	 0.116246162378215 
799	 0.116635093516457 
800	 0.117196131268169 
801	 0.117941764996505 
802	 0.118425661280489 
803	 0.118565751364235 
804	 0.119064071264653 
805	 0.119667884293874 
806	 0.120060493128057 
807	 0.120499537779921 
808	 0.120856876413916 
809	 0.120551386359013 
810	 0.120561704149544 
811	 0.12122327650046 
812	 0.12155205214764 
813	 0.121675487570928 
814	 0.121867473826236 
815	 0.121896429220028 
816	 0.121955295583858 
817	 0.122770033088565 
818	 0.123553425092666 
819	 0.124001103886876 
820	 0.12460716694962 
821	 0.125305507361703 
822	 0.125972784549839 
823	 0.126790566092756 
824	 0.127574942792606 
825	 0.127836478636449 
826	 0.127972616819471 
827	 0.128204126898295 
828	 0.128670420855843 
829	 0.129084846140755 
830	 0.129095404646677 
831	 0.129543452458253 
832	 0.130280707753295 
833	 0.130284929914543 
834	 0.130626951407083 
835	 0.131586229021375 
836	 0.131952665249229 
837	 0.132264083568064 
838	 0.133204036122784 
839	 0.133878580221827 
840	 0.134214171667917 
841	 0.134598603298075 
842	 0.134781928329048 
843	 0.134715647960053 
844	 0.134613097684174 
845	 0.134860822619735 
846	 0.135816612493027 
847	 0.136350149362173 
848	 0.136451606583663 
849	 0.136937814173987 
850	 0.136967134242251 
851	 0.136332270783962 
852	 0.135796270223417 
853	 0.135980931317369 
854	 0.137329778119537 
855	 0.137402433809079 
856	 0.136854996441748 
857	 0.138760167879226 
858	 0.139787193162897 
859	 0.139229862389184 
860	 0.13962743442789 
861	 0.140364988096402 
862	 0.140707721026328 
863	 0.140490367714115 
864	 0.140058060237734 
865	 0.140303776426254 
866	 0.140637482938435 
867	 0.140840373076173 
868	 0.140838115088675 
869	 0.140959063417716 
870	 0.141505660961906 
871	 0.14272795267283 
872	 0.144057726792345 
873	 0.144357943370702 
874	 0.144756721320836 
875	 0.145344745356841 
876	 0.14480839868621 
877	 0.145304417577351 
878	 0.14795607005938 
879	 0.148567209412349 
880	 0.148196835830126 
881	 0.149545876754754 
882	 0.149888016865689 
883	 0.149291693331325 
884	 0.15059393362959 
885	 0.151662794169969 
886	 0.151527153586918 
887	 0.15244236613423 
888	 0.15376316230999 
889	 0.154336410397047 
890	 0.154698635547859 
891	 0.154705094956051 
892	 0.15345563830893 
893	 0.152590832570141 
894	 0.152907138798896 
895	 0.153600225732039 
896	 0.154001197994804 
897	 0.153519252206105 
898	 0.154681544521621 
899	 0.157198868788414 
900	 0.15934241773534 
901	 0.158253840287154 
902	 0.154522455607744 
903	 0.155020564869095 
904	 0.157136774997617 
905	 0.158514280472547 
906	 0.158954889590343 
907	 0.158785641409592 
908	 0.158732224562176 
909	 0.159350241874814 
910	 0.159954986942211 
911	 0.156678650671891 
912	 0.156453856077964 
913	 0.161866471245095 
914	 0.161316224207122 
915	 0.158509759706 
916	 0.159327451512817 
917	 0.161319995281292 
918	 0.162694473383925 
919	 0.159740675149395 
920	 0.15824486017211 
921	 0.15996037783883 
922	 0.162698741048481 
923	 0.162501006567703 
924	 0.156703566358154 
925	 0.157185349233289 
926	 0.161466536417384 
927	 0.159101332339262 
928	 0.156241447053982 
929	 0.155199213645529 
930	 0.157010374457592 
931	 0.155362189881383 
932	 0.146078006195918 
933	 0.143711621061146 
934	 0.149766449667145 
935	 0.16080539121732 
936	 0.163917023445716 
937	 0.157580768199332 
938	 0.147415775575343 
939	 0.1400703685302 
940	 0.138179443318607 
941	 0.140480850351638 
942	 0.142475714374284 
943	 0.140981017092713 
944	 0.138721347557223 
945	 0.136353790120471 
946	 0.134276184212292 
947	 0.140255826885176 
948	 0.151244252325178 
949	 0.151989657559325 
950	 0.147076114293272 
951	 0.140575596855931 
952	 0.143238585119508 
953	 0.146464198279796 
954	 0.142814822535984 
955	 0.143781092361997 
956	 0.147575743006006 
957	 0.148138236644305 
958	 0.1452633914603 
959	 0.140591259802478 
960	 0.138941144385709 
961	 0.140363049747002 
962	 0.143683946322201 
963	 0.143670768844444 
964	 0.141276614228668 
965	 0.138141635132507 
966	 0.138726004792839 
967	 0.142956004381538 
968	 0.149775089343514 
969	 0.148942519822884 
970	 0.141094467443379 
971	 0.140265874723401 
972	 0.140899313247204 
973	 0.140936792885237 
974	 0.148842697227389 
975	 0.153815929452844 
976	 0.144624810077577 
977	 0.14164017423296 
978	 0.144646613251172 
979	 0.14417074648154 
980	 0.14318076387672 
981	 0.143756054828595 
982	 0.15188143594482 
983	 0.154337462783803 
984	 0.146582332931058 
985	 0.147330946766235 
986	 0.151475923933852 
987	 0.152041184483844 
988	 0.155453372182044 
989	 0.158612378243175 
990	 0.153488692638647 
991	 0.150090632392384 
992	 0.150572266806611 
993	 0.150978332479749 
994	 0.152266882585706 
995	 0.154622141636983 
996	 0.157318117091291 
997	 0.158526988036194 
998	 0.156906742152334 
999	 0.157352990309825 
1000	 0.158717795757301 
1001	 0.157441888642505 
1002	 0.158826360332838 
1003	 0.162534597627962 
1004	 0.163629506679075 
1005	 0.160332676475091 
1006	 0.154202336851478 
1007	 0.156189310773194 
1008	 0.163658660061478 
1009	 0.172264845977249 
1010	 0.174539101512684 
1011	 0.168736831298065 
1012	 0.154724217813518 
1013	 0.153970852320618 
1014	 0.165103490769377 
1015	 0.172233410314012 
1016	 0.172300576939773 
1017	 0.166757317852105 
1018	 0.169560780815869 
1019	 0.165978063849739 
1020	 0.1534762734435 
1021	 0.16961936464742 
1022	 0.183419911092593 
1023	 0.166027235299886 
1024	 0.16851804348678 
1025	 0.182986383886689 
1026	 0.182447473845856 
1027	 0.170557786753789 
1028	 0.156052366332942 
1029	 0.164744458693557 
1030	 0.171626168038111 
1031	 0.170174312560866 
1032	 0.173844202726041 
1033	 0.175064098492908 
1034	 0.170148901922405 
1035	 0.166223795780374 
1036	 0.16941676375197 
1037	 0.18382671551492 
1038	 0.190117249797374 
1039	 0.18246510535381 
1040	 0.15811431535858 
1041	 0.153802240927975 
1042	 0.171463934872115 
1043	 0.184942958258626 
1044	 0.182452744024662 
1045	 0.165380224613634 
1046	 0.164418712875826 
1047	 0.157999826319188 
1048	 0.139427993852678 
1049	 0.151182555469217 
1050	 0.167106714622145 
1051	 0.160347510265552 
1052	 0.162012717432024 
1053	 0.168451264054238 
1054	 0.168234560087954 
1055	 0.162028242550539 
1056	 0.156023650726384 
1057	 0.164085780043239 
1058	 0.182955147268505 
1059	 0.201028943558812 
1060	 0.178328398708282 
1061	 0.160125169133705 
1062	 0.164193434613928 
1063	 0.163533953242283 
1064	 0.159684884371536 
1065	 0.156217019153808 
1066	 0.163041128175651 
1067	 0.175821374128862 
1068	 0.18667185102452 
1069	 0.196321759832109 
1070	 0.202419691328721 
1071	 0.198719044346854 
1072	 0.161008903538296 
1073	 0.113788836140098 
1074	 0.141581857005332 
1075	 0.15333417086572 
