Wavelength	AVEI200221.asd
325	 6.09650097651859E-02 
326	 5.99006943761549E-02 
327	 6.24985734827563E-02 
328	 0.060600623825174 
329	 6.11415282720317E-02 
330	 0.065064898813373 
331	 6.45229431474604E-02 
332	 6.11139208786142E-02 
333	 5.72946007956046E-02 
334	 0.062540123443095 
335	 7.07959303571962E-02 
336	 6.43429661983012E-02 
337	 5.95505007185774E-02 
338	 0.060800725713275 
339	 6.33860062908155E-02 
340	 6.42343342792333E-02 
341	 6.15037245464701E-02 
342	 6.16337158656213E-02 
343	 6.31048254649523E-02 
344	 6.07199298841294E-02 
345	 6.22541588347774E-02 
346	 6.75073916756685E-02 
347	 6.82837086688704E-02 
348	 0.066034401168889 
349	 6.27048960093433E-02 
350	 6.43288888094483E-02 
351	 0.067845503365335 
352	 6.71893847137158E-02 
353	 6.77286580292848E-02 
354	 0.069665948267692 
355	 6.90146886248824E-02 
356	 6.78641970787983E-02 
357	 6.74984039134936E-02 
358	 6.69262958362844E-02 
359	 6.67479295637778E-02 
360	 6.80422013022196E-02 
361	 6.71094889832875E-02 
362	 6.47260265296609E-02 
363	 6.65904511310628E-02 
364	 6.86616307076501E-02 
365	 6.87868168847531E-02 
366	 6.82907577980868E-02 
367	 6.78744839324894E-02 
368	 6.82652062195633E-02 
369	 6.83076351446974E-02 
370	 6.80685390668519E-02 
371	 6.87445587483261E-02 
372	 0.069137381175731 
373	 6.86963957718209E-02 
374	 6.84454148405144E-02 
375	 6.83993008624328E-02 
376	 6.84128888158081E-02 
377	 6.84779637301958E-02 
378	 6.86061807263079E-02 
379	 6.89700330720228E-02 
380	 6.87663497492828E-02 
381	 6.79089543092666E-02 
382	 6.86309013317386E-02 
383	 6.96214689061975E-02 
384	 6.89453992063918E-02 
385	 6.74871391262837E-02 
386	 6.61879335946869E-02 
387	 6.70228718217658E-02 
388	 6.82444411485313E-02 
389	 0.068902835015568 
390	 6.87773968763883E-02 
391	 6.88801645971704E-02 
392	 7.03433727608387E-02 
393	 7.04924235702694E-02 
394	 6.96912180486551E-02 
395	 0.070884806890736 
396	 7.06256258991791E-02 
397	 6.81905331090639E-02 
398	 6.79194407942823E-02 
399	 6.87292597738645E-02 
400	 6.90997259495697E-02 
401	 0.069228563586126 
402	 6.94375611266066E-02 
403	 7.06110831943188E-02 
404	 0.071372728902013 
405	 7.12816600708292E-02 
406	 7.14282370345402E-02 
407	 7.14148329725283E-02 
408	 7.06556059106474E-02 
409	 0.070724693352893 
410	 7.15243553494215E-02 
411	 7.17647947729414E-02 
412	 7.17480646632647E-02 
413	 7.15918279420005E-02 
414	 7.10844608118101E-02 
415	 7.08020625183568E-02 
416	 7.14667085964886E-02 
417	 7.21122871494818E-02 
418	 7.24416714588856E-02 
419	 7.23584247259655E-02 
420	 7.21639552467842E-02 
421	 7.20924987973345E-02 
422	 7.24126716366547E-02 
423	 7.29276023274235E-02 
424	 7.33148601935487E-02 
425	 7.35763184132897E-02 
426	 7.37776402995373E-02 
427	 7.41541126001814E-02 
428	 7.46621407772084E-02 
429	 7.51968809957721E-02 
430	 7.53257275756775E-02 
431	 7.50192675787376E-02 
432	 7.42914126750869E-02 
433	 7.43791092216077E-02 
434	 7.52592085119856E-02 
435	 7.55382555892295E-02 
436	 7.55198373486385E-02 
437	 0.075488025979178 
438	 7.59649699790298E-02 
439	 7.66429665403343E-02 
440	 7.68139660794391E-02 
441	 7.70527234358932E-02 
442	 7.74253975351529E-02 
443	 7.74693606911986E-02 
444	 7.75304427710048E-02 
445	 7.78758311308916E-02 
446	 0.078098054739048 
447	 7.82122628607433E-02 
448	 7.83867331517986E-02 
449	 7.86698561840283E-02 
450	 7.90252724701056E-02 
451	 7.91382331955464E-02 
452	 0.079328707932577 
453	 7.98848038721133E-02 
454	 7.98646510964471E-02 
455	 0.079472593218986 
456	 7.97613295783382E-02 
457	 8.01572037033845E-02 
458	 0.080474687513499 
459	 8.10692910050105E-02 
460	 8.15171656354788E-02 
461	 8.13160254253663E-02 
462	 8.12835246151997E-02 
463	 8.15241883219567E-02 
464	 8.17493909333644E-02 
465	 8.17898192365607E-02 
466	 0.081635852519133 
467	 8.19873764946196E-02 
468	 8.23831127368643E-02 
469	 8.20358840467768E-02 
470	 8.21971113388425E-02 
471	 8.29853673946748E-02 
472	 8.37250017399921E-02 
473	 8.37528954044961E-02 
474	 8.28811620421903E-02 
475	 8.33120040456271E-02 
476	 8.43564594235338E-02 
477	 8.42834344097575E-02 
478	 8.41219807371468E-02 
479	 8.41610424234392E-02 
480	 8.43109873791842E-02 
481	 8.46427497397247E-02 
482	 8.51575098035498E-02 
483	 8.51806286839833E-02 
484	 8.49171244690819E-02 
485	 8.51742246447714E-02 
486	 0.085178742223794 
487	 8.48126689770038E-02 
488	 0.084926996996698 
489	 8.52871123239016E-02 
490	 8.55800980326023E-02 
491	 8.56568006878411E-02 
492	 8.56326298451351E-02 
493	 8.59118269094444E-02 
494	 8.62147241707229E-02 
495	 8.64359228106504E-02 
496	 8.67256167942879E-02 
497	 8.70131512399288E-02 
498	 8.71944479367706E-02 
499	 8.74046299308298E-02 
500	 8.76422380367771E-02 
501	 8.77984610526798E-02 
502	 8.78485169566479E-02 
503	 8.78473883946059E-02 
504	 8.83821693582645E-02 
505	 8.89374780487129E-02 
506	 8.85191758505977E-02 
507	 8.85372941806398E-02 
508	 8.91293002859893E-02 
509	 8.90825894727967E-02 
510	 8.90512137218896E-02 
511	 0.08955716175411 
512	 9.01428242498134E-02 
513	 9.06248383024713E-02 
514	 9.07553450076157E-02 
515	 9.09690941903363E-02 
516	 0.091381076917992 
517	 0.091667821024397 
518	 9.18367493458752E-02 
519	 0.091921892880076 
520	 9.17983918885156E-02 
521	 9.17107049185781E-02 
522	 9.23369057118547E-02 
523	 9.30725292527946E-02 
524	 9.35528349015284E-02 
525	 9.34292703826924E-02 
526	 9.30983259944027E-02 
527	 9.31600581914073E-02 
528	 0.093435011684279 
529	 9.38398514864979E-02 
530	 9.42667126716961E-02 
531	 9.45623075898915E-02 
532	 9.46535481201688E-02 
533	 9.48815968246785E-02 
534	 9.51608031077228E-02 
535	 9.52176066377636E-02 
536	 9.52501928164852E-02 
537	 0.095374976549358 
538	 9.57953012095603E-02 
539	 9.62722243876172E-02 
540	 9.65502126752383E-02 
541	 9.64295034224475E-02 
542	 9.62004773081186E-02 
543	 9.67476556707032E-02 
544	 9.72039027832218E-02 
545	 9.72497901853903E-02 
546	 9.73600285314356E-02 
547	 9.75284650617602E-02 
548	 9.76885212143927E-02 
549	 9.80293030529481E-02 
550	 0.098455513845539 
551	 9.85017766783214E-02 
552	 9.85230611154263E-02 
553	 9.87321592496713E-02 
554	 9.89009815611959E-02 
555	 9.89883232201792E-02 
556	 9.89525250700642E-02 
557	 9.91228984075366E-02 
558	 9.95601108073413E-02 
559	 0.100037680492595 
560	 0.100221752922415 
561	 9.98772665321586E-02 
562	 0.099940664877641 
563	 0.100352093794784 
564	 0.100450597492528 
565	 0.100604474835602 
566	 0.100877757817416 
567	 0.100786536727987 
568	 0.100670255735677 
569	 0.101008071778179 
570	 0.101318878863578 
571	 0.101459252647779 
572	 0.101380661361164 
573	 0.101364335373768 
574	 0.101567466735555 
575	 0.101693949682248 
576	 0.101789416777773 
577	 0.102035155712172 
578	 0.101964089238268 
579	 0.101636853621905 
580	 0.102005153890239 
581	 0.102364346728181 
582	 0.102115255107596 
583	 0.102218543079032 
584	 0.102589348832637 
585	 0.10252744856426 
586	 0.102609366341682 
587	 0.102998177420186 
588	 0.103241615631923 
589	 0.103267338381089 
590	 0.103044596330551 
591	 0.103009449904073 
592	 0.103168746958605 
593	 0.103125172656349 
594	 0.103105617098804 
595	 0.103241155759583 
596	 0.103468428529785 
597	 0.103690723289046 
598	 0.103769722897235 
599	 0.103738372720569 
600	 0.103630221178883 
601	 0.103490571407682 
602	 0.103591211083667 
603	 0.104096156916973 
604	 0.103961789892744 
605	 0.103452629429559 
606	 0.103737072747673 
607	 0.104033995318512 
608	 0.10402083783648 
609	 0.103667297306949 
610	 0.10340292601591 
611	 0.103758002923916 
612	 0.103979891106765 
613	 0.103932278244361 
614	 0.103841066454809 
615	 0.103761889551503 
616	 0.103756033776026 
617	 0.103973897045836 
618	 0.104154517980664 
619	 0.103812253387661 
620	 0.103570471855288 
621	 0.103592188265661 
622	 0.10365239635421 
623	 0.103789111205154 
624	 0.104025149373202 
625	 0.104165055768752 
626	 0.104163981476051 
627	 0.10398161683096 
628	 0.103971831159634 
629	 0.104230110903646 
630	 0.104332047527603 
631	 0.104313209651658 
632	 0.104268995286875 
633	 0.104224397293083 
634	 0.104283167873818 
635	 0.104802341391679 
636	 0.104972945113715 
637	 0.104440500580281 
638	 0.104533077243041 
639	 0.105034069961413 
640	 0.105252731158939 
641	 0.105304272597439 
642	 0.105205602427647 
643	 0.104918895089733 
644	 0.104937379584249 
645	 0.105618367672078 
646	 0.105662648834508 
647	 0.10527350851268 
648	 0.105695731170536 
649	 0.106041038244016 
650	 0.105992230010731 
651	 0.105901701466632 
652	 0.105668968471853 
653	 0.105146743858766 
654	 0.104822475647173 
655	 0.104782693002071 
656	 0.104944247937956 
657	 0.104745510000464 
658	 0.103998835340292 
659	 0.103837472521177 
660	 0.103977903873722 
661	 0.103791471890555 
662	 0.103260972729999 
663	 0.102524116746581 
664	 0.102210457390899 
665	 0.102087702544595 
666	 0.101927016603084 
667	 0.101607149284482 
668	 0.101233923741629 
669	 0.101091644638772 
670	 0.101189799240847 
671	 0.101456352165274 
672	 0.101439456205911 
673	 0.101355273974844 
674	 0.101488037209428 
675	 0.101454390025292 
676	 0.101294916900236 
677	 0.101369384702511 
678	 0.101556992680863 
679	 0.101800621266108 
680	 0.102183682814246 
681	 0.102503944554297 
682	 0.102416022738744 
683	 0.102851695103285 
684	 0.10381886652989 
685	 0.104267654800672 
686	 0.104524620594659 
687	 0.104898011209819 
688	 0.105623050910465 
689	 0.106400356202895 
690	 0.106585709348849 
691	 0.106983483789943 
692	 0.107748169739772 
693	 0.108238057667724 
694	 0.10858494399108 
695	 0.108948676962126 
696	 0.109340962153336 
697	 0.109736817787119 
698	 0.110059678428749 
699	 0.11039979608155 
700	 0.110758265104682 
701	 0.110897972166107 
702	 0.110936586619892 
703	 0.111069990894302 
704	 0.111351383053264 
705	 0.11169917873634 
706	 0.111807779407719 
707	 0.111723602564405 
708	 0.111558298178045 
709	 0.11201434441838 
710	 0.112622046652178 
711	 0.112353274793484 
712	 0.111883925086183 
713	 0.11165244010435 
714	 0.112612937342766 
715	 0.113493492952298 
716	 0.11313769874163 
717	 0.113199408896205 
718	 0.113823504253784 
719	 0.114153058375611 
720	 0.114095448594462 
721	 0.113758211972329 
722	 0.113589400501566 
723	 0.113835329984528 
724	 0.114772625140752 
725	 0.114932120911654 
726	 0.114433983293801 
727	 0.11498043111458 
728	 0.115289641156914 
729	 0.114854788770179 
730	 0.114825269253996 
731	 0.115061673503069 
732	 0.115194699039102 
733	 0.115191918467942 
734	 0.115037150284148 
735	 0.114621293723584 
736	 0.114653108698187 
737	 0.115451420356676 
738	 0.11530178035168 
739	 0.114669573401707 
740	 0.11487189302492 
741	 0.11507058320467 
742	 0.115126345517841 
743	 0.115555024218861 
744	 0.115830498170714 
745	 0.115545965911104 
746	 0.115480508093437 
747	 0.115562369441305 
748	 0.115208254743966 
749	 0.115195338985687 
750	 0.11570278140371 
751	 0.11605895768549 
752	 0.116261350767224 
753	 0.116364039678752 
754	 0.116395447330581 
755	 0.116355809763219 
756	 0.116193258224775 
757	 0.116028351337727 
758	 0.115970673196848 
759	 0.116473239470208 
760	 0.117621874468542 
761	 0.118156166618932 
762	 0.118624928981966 
763	 0.118904547873167 
764	 0.118253993208887 
765	 0.117817901534603 
766	 0.117938980286288 
767	 0.118151318198084 
768	 0.118232391518938 
769	 0.117953998420425 
770	 0.117765679123503 
771	 0.117734026808819 
772	 0.117593136336275 
773	 0.117737502833538 
774	 0.118334723149529 
775	 0.118423497728355 
776	 0.118244017780555 
777	 0.118497837156304 
778	 0.118600490611433 
779	 0.118518422001666 
780	 0.118865689104404 
781	 0.119103000761984 
782	 0.11885285829982 
783	 0.118970697252727 
784	 0.119359556861659 
785	 0.119545685633444 
786	 0.119417964168521 
787	 0.11904640943112 
788	 0.119000876033049 
789	 0.119194964431905 
790	 0.119504151462204 
791	 0.119831598326431 
792	 0.120082478211161 
793	 0.120102106234053 
794	 0.1201704225835 
795	 0.120341986875957 
796	 0.120338907297695 
797	 0.120163935633638 
798	 0.119877194227496 
799	 0.120130216693867 
800	 0.120739507149613 
801	 0.120876371661012 
802	 0.120797295879075 
803	 0.120679583275734 
804	 0.121016305853164 
805	 0.121388596525671 
806	 0.12132146505894 
807	 0.121139314114056 
808	 0.12095905676609 
809	 0.120958629333839 
810	 0.120685526636664 
811	 0.120089482043478 
812	 0.120139956349135 
813	 0.120737882257491 
814	 0.121611196414708 
815	 0.122292977499014 
816	 0.122567513752896 
817	 0.1223001614393 
818	 0.122604408152439 
819	 0.123595854827791 
820	 0.123044760279582 
821	 0.121912383846814 
822	 0.121522153097032 
823	 0.122308762041685 
824	 0.1235669456586 
825	 0.123161501863689 
826	 0.122368152689713 
827	 0.121838207927998 
828	 0.122201991504405 
829	 0.122749238378062 
830	 0.122542404098053 
831	 0.122338576536233 
832	 0.122370283061085 
833	 0.122866991116357 
834	 0.123072192900986 
835	 0.12270030713552 
836	 0.122119955568815 
837	 0.122012222862803 
838	 0.123015827714561 
839	 0.122813517009379 
840	 0.121732491588623 
841	 0.122211972592779 
842	 0.122582423128173 
843	 0.122257431303869 
844	 0.122099443111878 
845	 0.122158630295008 
846	 0.12240637420877 
847	 0.122698274233045 
848	 0.122838810595555 
849	 0.122297111460518 
850	 0.122321178158238 
851	 0.123245052209888 
852	 0.123756453117956 
853	 0.123434275834962 
854	 0.12209939493861 
855	 0.122202194759277 
856	 0.123189989977036 
857	 0.122300234531902 
858	 0.121908423975711 
859	 0.122520658890922 
860	 0.122428437474605 
861	 0.122256124881773 
862	 0.122675253230847 
863	 0.123579631340737 
864	 0.124158771130851 
865	 0.122461460626389 
866	 0.12179508026532 
867	 0.122885950424321 
868	 0.123054614441141 
869	 0.123361660021856 
870	 0.124511567721402 
871	 0.123800015999909 
872	 0.122192704905603 
873	 0.122301817457862 
874	 0.122872526155774 
875	 0.123513441506829 
876	 0.124198502058844 
877	 0.124501088651025 
878	 0.124166249781669 
879	 0.123714132236717 
880	 0.123288994806829 
881	 0.122957067354023 
882	 0.123239650317987 
883	 0.123882478338945 
884	 0.123442748272351 
885	 0.123327427322848 
886	 0.12412862265601 
887	 0.124081302815883 
888	 0.123576505955393 
889	 0.123381223476977 
890	 0.122406945017817 
891	 0.121335257338777 
892	 0.123089254354146 
893	 0.124992321088692 
894	 0.125597604701776 
895	 0.124891732857911 
896	 0.123855592766441 
897	 0.123706341746825 
898	 0.123491786665346 
899	 0.123576045558836 
900	 0.125390759058553 
901	 0.126009805841893 
902	 0.125124248494907 
903	 0.126431838809601 
904	 0.126255718848083 
905	 0.122372767174815 
906	 0.122741589916649 
907	 0.125279748968821 
908	 0.124086606526344 
909	 0.124410529950223 
910	 0.12653018721117 
911	 0.125690384229435 
912	 0.124840034616556 
913	 0.125730568918683 
914	 0.12781864765615 
915	 0.128790124535049 
916	 0.126202565061524 
917	 0.125432824627435 
918	 0.126517648256211 
919	 0.126297760587383 
920	 0.126102036601108 
921	 0.126105356155216 
922	 0.125142653962473 
923	 0.124057728793043 
924	 0.123830038550973 
925	 0.125976844629693 
926	 0.12871367373416 
927	 0.12750510596848 
928	 0.125236590886145 
929	 0.123382817115212 
930	 0.123913419488351 
931	 0.125338892935326 
932	 0.126175313224343 
933	 0.125934128011971 
934	 0.126895181080757 
935	 0.132025977960439 
936	 0.128947306704476 
937	 0.121846247755757 
938	 0.130244715230092 
939	 0.133490394245652 
940	 0.127560324103958 
941	 0.123922930587465 
942	 0.122617708053172 
943	 0.123161657316103 
944	 0.123674710299054 
945	 0.12409594958516 
946	 0.124806185543297 
947	 0.129463833797169 
948	 0.134961068526176 
949	 0.129505693014092 
950	 0.12218648247396 
951	 0.117907901757035 
952	 0.118859010989226 
953	 0.120210746493002 
954	 0.118017078727701 
955	 0.120677405390684 
956	 0.126735929880147 
957	 0.131615973822073 
958	 0.133719956769424 
959	 0.131957585261211 
960	 0.124271853228148 
961	 0.12020323436169 
962	 0.123395299887322 
963	 0.126478861336513 
964	 0.128732559448944 
965	 0.130005724292365 
966	 0.128366451905623 
967	 0.126287625033616 
968	 0.129155513209197 
969	 0.129959983887771 
970	 0.128156257888797 
971	 0.129253017982967 
972	 0.130365218166223 
973	 0.129817954533138 
974	 0.127461863081696 
975	 0.127074400429855 
976	 0.132048688125507 
977	 0.12951918665471 
978	 0.123284887340572 
979	 0.126663557371748 
980	 0.12941063988655 
981	 0.129001618874855 
982	 0.127219158535836 
983	 0.127655056490794 
984	 0.130977607884246 
985	 0.127898115175507 
986	 0.125755693611712 
987	 0.132104784113921 
988	 0.131368778222953 
989	 0.125746590584238 
990	 0.125361152646892 
991	 0.124002241953907 
992	 0.122591129173665 
993	 0.13081533616854 
994	 0.134955142650664 
995	 0.129512680278211 
996	 0.126729097121424 
997	 0.124480342567555 
998	 0.120434978045794 
999	 0.122732741074708 
1000	 0.127452996455517 
1001	 0.125267415698654 
1002	 0.128588084411799 
1003	 0.135659810864426 
1004	 0.130361840976106 
1005	 0.125315359635324 
1006	 0.124563242530094 
1007	 0.119830540174811 
1008	 0.116866778955842 
1009	 0.119810105528658 
1010	 0.121291661788558 
1011	 0.123449348349399 
1012	 0.130116024656266 
1013	 0.129784797321942 
1014	 0.125462316961263 
1015	 0.130572096946256 
1016	 0.1347019354292 
1017	 0.13308866115665 
1018	 0.119979662501278 
1019	 0.115398816115114 
1020	 0.127454881982002 
1021	 0.126993148088697 
1022	 0.122831035306243 
1023	 0.125242119598685 
1024	 0.123116916682149 
1025	 0.117655668296956 
1026	 0.113999010098717 
1027	 0.126110136383002 
1028	 0.144280693346114 
1029	 0.133355709371257 
1030	 0.126552957792523 
1031	 0.132524017940118 
1032	 0.132162268941649 
1033	 0.125716215755977 
1034	 0.115109845001599 
1035	 0.112277140183268 
1036	 0.112810956146841 
1037	 0.110688788027918 
1038	 0.110614674027 
1039	 0.11450614797008 
1040	 0.124127755848409 
1041	 0.127018668448316 
1042	 0.12462007142886 
1043	 0.131685846084053 
1044	 0.134983861688075 
1045	 0.130149789330858 
1046	 0.119178543475216 
1047	 0.119729012125519 
1048	 0.137264748599207 
1049	 0.140286797368947 
1050	 0.136649298775016 
1051	 0.135905650499104 
1052	 0.125184797244034 
1053	 0.117307098574155 
1054	 0.132889134905969 
1055	 0.115986411925075 
1056	 8.54924403956251E-02 
1057	 0.125735042770243 
1058	 0.142937637860904 
1059	 0.124088397697918 
1060	 0.120506825313718 
1061	 0.110103890404813 
1062	 8.90953997714724E-02 
1063	 8.64373470298164E-02 
1064	 0.108035193155858 
1065	 0.145993569639663 
1066	 0.138406575285165 
1067	 0.101044399536283 
1068	 5.96089967669868E-02 
1069	 7.59884537492143E-02 
1070	 0.114273297643567 
1071	 0.107003525332362 
1072	 0.106745294001971 
1073	 0.121474448135109 
1074	 0.141971269891994 
1075	 0.132815424033157 
