Wavelength	AVEI200275.asd
325	 7.74599511244933E-02 
326	 7.75192224929761E-02 
327	 7.90789034098612E-02 
328	 8.16195491017896E-02 
329	 8.10852109318575E-02 
330	 7.67421891190414E-02 
331	 7.18813091367068E-02 
332	 7.03670192420219E-02 
333	 7.51233639917422E-02 
334	 7.78707253922664E-02 
335	 7.82316595095776E-02 
336	 7.89664248146413E-02 
337	 8.04817337040295E-02 
338	 8.10547079200675E-02 
339	 7.13591113194098E-02 
340	 6.44387429429572E-02 
341	 7.04063951763615E-02 
342	 7.54264223836892E-02 
343	 7.75249527829062E-02 
344	 7.73894036392542E-02 
345	 7.68320027053652E-02 
346	 0.077138835022462 
347	 8.10550193204573E-02 
348	 8.25267288710598E-02 
349	 7.83161071172608E-02 
350	 7.70137294802425E-02 
351	 7.84681657140168E-02 
352	 8.06166297464989E-02 
353	 8.22177069794433E-02 
354	 8.24869900785296E-02 
355	 8.03098515633291E-02 
356	 7.84220935078342E-02 
357	 7.85750279778171E-02 
358	 8.04747673165692E-02 
359	 8.20926190335702E-02 
360	 8.05322896595518E-02 
361	 8.06810151636274E-02 
362	 8.25715994030117E-02 
363	 8.23491336553194E-02 
364	 8.05442490951325E-02 
365	 7.82228008063908E-02 
366	 8.00541695309736E-02 
367	 0.082563456041162 
368	 8.06220396783299E-02 
369	 8.02994624042719E-02 
370	 8.18676904170337E-02 
371	 0.081556975898777 
372	 8.04241601018961E-02 
373	 7.92138567777986E-02 
374	 7.91818240270051E-02 
375	 7.93009190609086E-02 
376	 7.80021577378903E-02 
377	 7.76232121993345E-02 
378	 7.82895585571522E-02 
379	 7.84048940506061E-02 
380	 7.89523437693304E-02 
381	 8.04360939634931E-02 
382	 0.083462691417088 
383	 8.47797575966559E-02 
384	 8.02886768111722E-02 
385	 7.84079154601842E-02 
386	 0.079796201510432 
387	 7.89957664791165E-02 
388	 7.97422843822844E-02 
389	 8.25124002453176E-02 
390	 8.00823315110158E-02 
391	 7.71945062962011E-02 
392	 0.079840558160444 
393	 8.19615292374406E-02 
394	 0.08215271340152 
395	 0.080288532581164 
396	 7.92873295084854E-02 
397	 8.00198210897702E-02 
398	 0.079300308094094 
399	 7.85338628590267E-02 
400	 7.93092834366012E-02 
401	 8.01228665721503E-02 
402	 8.05237272854956E-02 
403	 8.00161180722094E-02 
404	 8.01713507407579E-02 
405	 8.13264391812636E-02 
406	 8.11561696532304E-02 
407	 8.06880726178232E-02 
408	 8.14027273147826E-02 
409	 8.15509732646926E-02 
410	 8.11073955149454E-02 
411	 8.10788697101173E-02 
412	 0.081318005285044 
413	 8.17242150965463E-02 
414	 8.20641457884564E-02 
415	 8.23533043126347E-02 
416	 8.26504617496364E-02 
417	 8.30268375762353E-02 
418	 8.34078717048208E-02 
419	 8.35790942160553E-02 
420	 8.33446271623122E-02 
421	 8.28031954352853E-02 
422	 8.34409861092815E-02 
423	 8.43054072326381E-02 
424	 8.37902732066263E-02 
425	 8.35123960532954E-02 
426	 8.38256264415795E-02 
427	 8.44452005047302E-02 
428	 8.49139792297407E-02 
429	 8.49756195754926E-02 
430	 8.52772295315413E-02 
431	 8.56707159338089E-02 
432	 8.57628162340367E-02 
433	 8.58086754193824E-02 
434	 8.58957935928629E-02 
435	 8.60374121171532E-02 
436	 8.62900522110322E-02 
437	 8.66813399420185E-02 
438	 8.71073719872447E-02 
439	 8.74791365453607E-02 
440	 8.76646175432989E-02 
441	 8.79391422947036E-02 
442	 8.82739737480144E-02 
443	 8.81480807559899E-02 
444	 8.80783189497783E-02 
445	 0.08849576186569 
446	 8.92787538420805E-02 
447	 9.00228412716921E-02 
448	 0.089883597701429 
449	 0.089797094729669 
450	 9.00863441756511E-02 
451	 9.06101147914775E-02 
452	 9.10496422549849E-02 
453	 9.11010649544994E-02 
454	 0.090817519857713 
455	 9.05893798756985E-02 
456	 9.14615314953408E-02 
457	 9.20893849758062E-02 
458	 9.20528918528145E-02 
459	 9.25292110936631E-02 
460	 0.093087176667063 
461	 9.31174985363654E-02 
462	 0.092966880194327 
463	 9.29749167624599E-02 
464	 9.40018239422448E-02 
465	 9.45626963460718E-02 
466	 9.40277860362102E-02 
467	 9.39407078690647E-02 
468	 9.42899040049141E-02 
469	 9.47885232664905E-02 
470	 9.48539251338354E-02 
471	 9.45954012963836E-02 
472	 0.095078816149944 
473	 9.53850304639086E-02 
474	 9.50254300505024E-02 
475	 9.51241897028795E-02 
476	 9.54405750479333E-02 
477	 9.52648900611191E-02 
478	 9.53922412180614E-02 
479	 0.095876882024302 
480	 9.58948027593065E-02 
481	 9.61109009865681E-02 
482	 9.69703328729525E-02 
483	 9.69137121049439E-02 
484	 0.096344284582533 
485	 9.68707429758301E-02 
486	 9.73693471148622E-02 
487	 9.74602227966475E-02 
488	 9.73489548062113E-02 
489	 9.73825350084343E-02 
490	 9.78624324205938E-02 
491	 9.80284547431563E-02 
492	 9.79333723590114E-02 
493	 9.81018148986463E-02 
494	 9.85065517557157E-02 
495	 9.90232370240139E-02 
496	 9.88539788287118E-02 
497	 9.87479480487131E-02 
498	 0.099755239659592 
499	 0.100197308701084 
500	 9.99354192098147E-02 
501	 9.99335102019961E-02 
502	 0.100347029655569 
503	 0.101170829800187 
504	 0.101507565776816 
505	 0.101582552926613 
506	 0.101987538844178 
507	 0.102300889402508 
508	 0.102467289272173 
509	 0.102720567261407 
510	 0.102990824203861 
511	 0.103229184593685 
512	 0.103587703476316 
513	 0.103998981925644 
514	 0.104318727101392 
515	 0.104170636543372 
516	 0.10371295155151 
517	 0.104609732993817 
518	 0.105610473753299 
519	 0.105296754505556 
520	 0.10549060489819 
521	 0.106170424882405 
522	 0.106228163479562 
523	 0.106395764813005 
524	 0.106901336552196 
525	 0.106895836948767 
526	 0.106907496533843 
527	 0.107802446977837 
528	 0.108179171125376 
529	 0.107972024686709 
530	 0.108293480326762 
531	 0.108751645480867 
532	 0.10904940509898 
533	 0.108929799424089 
534	 0.108758156216706 
535	 0.109319096400392 
536	 0.109918953658584 
537	 0.110283137069033 
538	 0.110227139157606 
539	 0.110324890034125 
540	 0.111092704256346 
541	 0.111533325338737 
542	 0.111661814681194 
543	 0.112114692041284 
544	 0.112411362657166 
545	 0.112424943636994 
546	 0.112611368875296 
547	 0.112940520739093 
548	 0.113313462909998 
549	 0.113626176995311 
550	 0.113878682181165 
551	 0.114221839819222 
552	 0.114455819437211 
553	 0.114470561395372 
554	 0.114458491607827 
555	 0.114527167467186 
556	 0.114788354007654 
557	 0.115401141678778 
558	 0.116152533815942 
559	 0.115913028376173 
560	 0.115464834295957 
561	 0.115574074530994 
562	 0.11589993210569 
563	 0.116245094475666 
564	 0.116254537101053 
565	 0.116259327544608 
566	 0.116410043677034 
567	 0.116699369576022 
568	 0.117065580809775 
569	 0.117427962911799 
570	 0.117481089972343 
571	 0.117289938960428 
572	 0.117322450925895 
573	 0.11752378524864 
574	 0.117839328261249 
575	 0.118022171423772 
576	 0.11822199684402 
577	 0.118800753839307 
578	 0.119154567120911 
579	 0.119143120487114 
580	 0.119138347110792 
581	 0.118980869384878 
582	 0.11857374521038 
583	 0.118639559767467 
584	 0.119060102703388 
585	 0.119208451612424 
586	 0.119211474217667 
587	 0.119140583574153 
588	 0.11923368070915 
589	 0.119464813628139 
590	 0.119754592075042 
591	 0.119971875567539 
592	 0.120040711531304 
593	 0.119789487765357 
594	 0.119944713388486 
595	 0.120752269825007 
596	 0.120474328898529 
597	 0.119696536496629 
598	 0.119813332196358 
599	 0.120316241360395 
600	 0.120895109771656 
601	 0.120929902196686 
602	 0.120456348386815 
603	 0.119640592534586 
604	 0.119837558655013 
605	 0.120603206930988 
606	 0.120161645459029 
607	 0.119686058433573 
608	 0.119590054877332 
609	 0.11938228270428 
610	 0.119501168326189 
611	 0.120513173244735 
612	 0.120743375045488 
613	 0.120196012970895 
614	 0.12041836518691 
615	 0.120617671264941 
616	 0.12036560721682 
617	 0.120274028324105 
618	 0.120265869202791 
619	 0.120029980761688 
620	 0.120243321741007 
621	 0.120834205667276 
622	 0.120592025422338 
623	 0.120187938148483 
624	 0.120279624601702 
625	 0.120876732318875 
626	 0.121494633837918 
627	 0.120832060143623 
628	 0.120412574422628 
629	 0.120748608367076 
630	 0.120777403009606 
631	 0.12084435523196 
632	 0.121470661482123 
633	 0.121820757419423 
634	 0.121677901475489 
635	 0.120983161548395 
636	 0.120617187675697 
637	 0.121049719893531 
638	 0.12131509447142 
639	 0.121471303415091 
640	 0.121904473756064 
641	 0.121799540307455 
642	 0.121236184517907 
643	 0.121688355071804 
644	 0.122280496151961 
645	 0.122220913964345 
646	 0.122214212406509 
647	 0.122230359717752 
648	 0.121791326114231 
649	 0.121672346845322 
650	 0.122058927894861 
651	 0.122097037660148 
652	 0.121812703421927 
653	 0.121331583295849 
654	 0.121222850083416 
655	 0.121453709012185 
656	 0.121350299968375 
657	 0.121167847522639 
658	 0.120988533826807 
659	 0.120177777203176 
660	 0.119314762084735 
661	 0.119436593869271 
662	 0.119192326198202 
663	 0.118470238336434 
664	 0.11862548591632 
665	 0.118506356617398 
666	 0.117248971583174 
667	 0.116875193553255 
668	 0.117163869365765 
669	 0.116622437201147 
670	 0.116381834477814 
671	 0.116703643355898 
672	 0.116743477451775 
673	 0.116583123593081 
674	 0.116398831166263 
675	 0.11630100866374 
676	 0.116369924875064 
677	 0.116761327127937 
678	 0.116970045039132 
679	 0.116862032785823 
680	 0.117693210735218 
681	 0.118677157362143 
682	 0.118331681816618 
683	 0.118532810083512 
684	 0.119519736614609 
685	 0.119967398318075 
686	 0.120556583953001 
687	 0.121832984482196 
688	 0.122649032223153 
689	 0.123056691851392 
690	 0.123915730030951 
691	 0.124320254776061 
692	 0.124302735611776 
693	 0.125315933653058 
694	 0.126513978202844 
695	 0.126906909389094 
696	 0.127234470826208 
697	 0.12762820545515 
698	 0.128106454179404 
699	 0.128265984446944 
700	 0.128032749818737 
701	 0.128447340996604 
702	 0.129003492669049 
703	 0.128853744038092 
704	 0.12911041936832 
705	 0.129683414193173 
706	 0.129243978827567 
707	 0.129024211786617 
708	 0.129719712992159 
709	 0.129934173286426 
710	 0.129979219629327 
711	 0.130840517799403 
712	 0.131239088103069 
713	 0.131005558235055 
714	 0.131252937169641 
715	 0.131696117678699 
716	 0.132084510513054 
717	 0.132981674628362 
718	 0.134074332941326 
719	 0.133852087984865 
720	 0.133419615815446 
721	 0.13328008759202 
722	 0.133207600061635 
723	 0.133370653941432 
724	 0.133987845758388 
725	 0.134119259309393 
726	 0.133902797266627 
727	 0.134671415239195 
728	 0.134996506494865 
729	 0.134330672583269 
730	 0.134261751376939 
731	 0.134277682188292 
732	 0.133439587515074 
733	 0.133511593581102 
734	 0.134390975340208 
735	 0.134484470134132 
736	 0.134288578185468 
737	 0.134132922631934 
738	 0.133936572525384 
739	 0.13373589684714 
740	 0.133594942949978 
741	 0.133422791266007 
742	 0.133291656415058 
743	 0.133600616097918 
744	 0.133998084919313 
745	 0.134155198769452 
746	 0.133887041262171 
747	 0.133506198727202 
748	 0.133817294735403 
749	 0.13420769055103 
750	 0.134454616308932 
751	 0.134672703508171 
752	 0.134757211314647 
753	 0.13460895346419 
754	 0.134445269725196 
755	 0.134415864880022 
756	 0.134841224655652 
757	 0.134929500426017 
758	 0.134442929568787 
759	 0.134789192502694 
760	 0.136636444844037 
761	 0.139279706178261 
762	 0.1400037551273 
763	 0.139215246994006 
764	 0.13981334364462 
765	 0.139359558702504 
766	 0.137618031165151 
767	 0.136973513188891 
768	 0.136952524034086 
769	 0.1369465002716 
770	 0.136563683857336 
771	 0.135945374447369 
772	 0.135999704627709 
773	 0.136331183811047 
774	 0.13664968557306 
775	 0.136986111038367 
776	 0.137064511274163 
777	 0.136369782885513 
778	 0.136225849223387 
779	 0.136892581925156 
780	 0.137630804905577 
781	 0.137788913796213 
782	 0.137022625665152 
783	 0.137269975790596 
784	 0.138232450809119 
785	 0.138635434670953 
786	 0.138385978050935 
787	 0.137628205808096 
788	 0.13734937316666 
789	 0.137664379849518 
790	 0.138547998037883 
791	 0.139020221285409 
792	 0.139057681950459 
793	 0.139191866736647 
794	 0.138856171807903 
795	 0.138190604009771 
796	 0.138861123503322 
797	 0.139640931828989 
798	 0.139250890126464 
799	 0.13887373709756 
800	 0.13877465106456 
801	 0.138991933665957 
802	 0.139497234569766 
803	 0.140033140656371 
804	 0.139439815405356 
805	 0.13864516170501 
806	 0.138713946997353 
807	 0.139008744157998 
808	 0.139501964758084 
809	 0.140659414163311 
810	 0.140849024687362 
811	 0.13968974544079 
812	 0.139946461831971 
813	 0.140946855908158 
814	 0.141450076849761 
815	 0.142052512063838 
816	 0.142755016711996 
817	 0.143288996111146 
818	 0.143589936134812 
819	 0.143537053541344 
820	 0.142575349133774 
821	 0.141580018464525 
822	 0.141611177122439 
823	 0.14213144350595 
824	 0.142394814846395 
825	 0.14047145761843 
826	 0.140223017352087 
827	 0.142657021582128 
828	 0.142957380073244 
829	 0.142313918346075 
830	 0.142707738847993 
831	 0.142401546105383 
832	 0.141666798991356 
833	 0.142375575636618 
834	 0.142283927666832 
835	 0.140965816403673 
836	 0.14185522906058 
837	 0.143040435373375 
838	 0.142133950960743 
839	 0.140956924949763 
840	 0.140336283519441 
841	 0.14163851217336 
842	 0.141863695714669 
843	 0.140120018452131 
844	 0.139449502439828 
845	 0.139824852598412 
846	 0.140854865413361 
847	 0.141301104028572 
848	 0.141141408107111 
849	 0.141216772105834 
850	 0.141405957668274 
851	 0.14164838646504 
852	 0.141705807237419 
853	 0.141692460426048 
854	 0.141703473985258 
855	 0.140622157098937 
856	 0.139303630704269 
857	 0.140437784436404 
858	 0.141211388551393 
859	 0.140861124305691 
860	 0.140812470270799 
861	 0.140854818674363 
862	 0.140770374075614 
863	 0.141203601753303 
864	 0.142135162211876 
865	 0.143439185074291 
866	 0.143061262539725 
867	 0.141027822376538 
868	 0.140988785183933 
869	 0.141978616109428 
870	 0.142876354045603 
871	 0.142021963895071 
872	 0.14038468883747 
873	 0.140332158095126 
874	 0.140889118406205 
875	 0.141679966273735 
876	 0.142349313315115 
877	 0.142804347082036 
878	 0.143010037791366 
879	 0.143394060127173 
880	 0.14334036662323 
881	 0.141735085180607 
882	 0.141799970451029 
883	 0.143427992076553 
884	 0.142870899608422 
885	 0.142435856747362 
886	 0.143386559392899 
887	 0.145094528928034 
888	 0.145750115003526 
889	 0.143178586869315 
890	 0.142183179329895 
891	 0.142897912843727 
892	 0.14162409551831 
893	 0.140662220652292 
894	 0.140927169314238 
895	 0.140818047747687 
896	 0.141354271212404 
897	 0.143757512972678 
898	 0.14573630278512 
899	 0.146894746337369 
900	 0.147817627825219 
901	 0.148592287014456 
902	 0.148813182444399 
903	 0.146249181051126 
904	 0.144262156466703 
905	 0.145183857650643 
906	 0.14476223873105 
907	 0.143648947149246 
908	 0.1441369792895 
909	 0.144895497810886 
910	 0.145999211269642 
911	 0.149736230044622 
912	 0.149956518617488 
913	 0.144348570036919 
914	 0.142714270471438 
915	 0.144177017644473 
916	 0.146114599402138 
917	 0.146729536110067 
918	 0.146274822171673 
919	 0.147019323654851 
920	 0.146472029068052 
921	 0.144686630817941 
922	 0.146758108462559 
923	 0.147204916717995 
924	 0.141621230577934 
925	 0.140670353703056 
926	 0.143934925914606 
927	 0.146078073414112 
928	 0.148698554717563 
929	 0.150523994965454 
930	 0.143409867417607 
931	 0.139632247400939 
932	 0.148813820258598 
933	 0.152969508411003 
934	 0.149392914935054 
935	 0.140146047845937 
936	 0.141648197513022 
937	 0.152485367616037 
938	 0.157776060801968 
939	 0.155957428700338 
940	 0.149861759590816 
941	 0.154325741809298 
942	 0.158525436595168 
943	 0.154699734192897 
944	 0.151811159318056 
945	 0.151630448107182 
946	 0.155125353371754 
947	 0.153324604538077 
948	 0.146555580702316 
949	 0.142651509783478 
950	 0.14574754949788 
951	 0.154288139226072 
952	 0.150328315336604 
953	 0.147977625742978 
954	 0.159030614656882 
955	 0.159411239642937 
956	 0.150836225297156 
957	 0.142849835994139 
958	 0.142612184237561 
959	 0.148091086972067 
960	 0.144726095602973 
961	 0.145497097095133 
962	 0.1539763256522 
963	 0.155674097283745 
964	 0.153759608307293 
965	 0.152539482899844 
966	 0.153973536707622 
967	 0.15414839227213 
968	 0.144373691618543 
969	 0.138874843297522 
970	 0.140898847762856 
971	 0.148008137633233 
972	 0.146652657255757 
973	 0.133821697444044 
974	 0.141572095600497 
975	 0.154060160354634 
976	 0.151127247367543 
977	 0.147693031498606 
978	 0.145248016834921 
979	 0.141072171254274 
980	 0.138271676596827 
981	 0.138699842054197 
982	 0.145685928472462 
983	 0.149961923403752 
984	 0.147456779026799 
985	 0.146129975373343 
986	 0.144065072874303 
987	 0.139061540575342 
988	 0.138687763583192 
989	 0.143375165234509 
990	 0.151251417352182 
991	 0.152105669528548 
992	 0.145526475085122 
993	 0.140695608602951 
994	 0.143151530016139 
995	 0.152118059898935 
996	 0.145590408934144 
997	 0.136886660141308 
998	 0.140407322585151 
999	 0.148845309877851 
1000	 0.154164588528678 
1001	 0.14507205412442 
1002	 0.139836809343167 
1003	 0.141694178686262 
1004	 0.144076899797267 
1005	 0.144550455739003 
1006	 0.142704012270366 
1007	 0.143274698752324 
1008	 0.145650447623477 
1009	 0.148426490256447 
1010	 0.146005386416986 
1011	 0.142213804562115 
1012	 0.143198396117467 
1013	 0.142169204113436 
1014	 0.13973944884554 
1015	 0.140937235043832 
1016	 0.142346532816299 
1017	 0.144179812474263 
1018	 0.153414813419916 
1019	 0.152832768325611 
1020	 0.136603900188003 
1021	 0.132683023699224 
1022	 0.139966653926423 
1023	 0.152473864406709 
1024	 0.146283591236768 
1025	 0.133386538243498 
1026	 0.141104524156213 
1027	 0.148280084325732 
1028	 0.150255965745069 
1029	 0.148128133645846 
1030	 0.150263095031928 
1031	 0.156083689951414 
1032	 0.147991105321734 
1033	 0.143154222635759 
1034	 0.149953380380078 
1035	 0.140153528386417 
1036	 0.133562539114178 
1037	 0.151674634468877 
1038	 0.156958270801933 
1039	 0.151707156380915 
1040	 0.150136617889739 
1041	 0.151459464473024 
1042	 0.150702240261203 
1043	 0.130904633708142 
1044	 0.125384616553441 
1045	 0.1391878183679 
1046	 0.139792914568982 
1047	 0.130599923764555 
1048	 0.119030125210256 
1049	 0.129918736864978 
1050	 0.148562023867967 
1051	 0.15678964565956 
1052	 0.15608079444528 
1053	 0.147006491259076 
1054	 0.129416269152681 
1055	 0.124640816722919 
1056	 0.130011442698978 
1057	 0.122076768365542 
1058	 0.117203477689159 
1059	 0.115626015355839 
1060	 0.100213729140682 
1061	 7.81646235451757E-02 
1062	 6.60351393656194E-02 
1063	 0.115148941181482 
1064	 0.157924230697638 
1065	 0.144312280739169 
1066	 0.145899775667516 
1067	 0.135309606903323 
1068	 8.17480443503293E-02 
1069	 9.71180197264724E-02 
1070	 0.140521231997678 
1071	 0.123058944269442 
1072	 0.108014489664147 
1073	 0.114802132947577 
1074	 0.151260795775976 
1075	 0.170972139052602 
