Wavelength	AVEI200033.asd
325	 2.59049353314482E-02 
326	 3.12361932317527E-02 
327	 3.72855571117288E-02 
328	 3.50979234089389E-02 
329	 3.37299909013491E-02 
330	 3.54726521216096E-02 
331	 3.26090405498825E-02 
332	 2.97923066177927E-02 
333	 3.15942500582047E-02 
334	 3.47082437838924E-02 
335	 3.68776357808621E-02 
336	 3.40447497044139E-02 
337	 3.35506833672543E-02 
338	 3.59988415416527E-02 
339	 3.24825135191001E-02 
340	 0.029982524088003 
341	 3.36587643528251E-02 
342	 3.13343746216417E-02 
343	 2.69818860379459E-02 
344	 3.19908805888941E-02 
345	 3.26797980892739E-02 
346	 0.027781338106042 
347	 2.70459659934066E-02 
348	 2.77475625021354E-02 
349	 2.79502257640098E-02 
350	 2.95739896571662E-02 
351	 3.04128612335828E-02 
352	 0.026594885604928 
353	 2.64410106423105E-02 
354	 2.99470321032693E-02 
355	 2.92384947539737E-02 
356	 2.76159070592119E-02 
357	 2.72774837066113E-02 
358	 2.84133569251892E-02 
359	 2.96572038583635E-02 
360	 0.028994370156687 
361	 2.78254809429771E-02 
362	 2.69741269188198E-02 
363	 2.78544567245258E-02 
364	 2.87982391939469E-02 
365	 2.87478748761464E-02 
366	 2.74278616504317E-02 
367	 0.025752655582275 
368	 2.49008712170553E-02 
369	 2.53747058274113E-02 
370	 2.68226049895604E-02 
371	 2.77627208699464E-02 
372	 2.85243419847767E-02 
373	 2.90347167023231E-02 
374	 2.78764490652079E-02 
375	 2.62781073344271E-02 
376	 2.60611644979997E-02 
377	 2.70580548341098E-02 
378	 2.83337334284086E-02 
379	 2.68897611223831E-02 
380	 2.62671631491288E-02 
381	 2.78410175235348E-02 
382	 2.77758296017865E-02 
383	 2.71937456114267E-02 
384	 2.79904861383973E-02 
385	 2.79406876697021E-02 
386	 2.71681719719898E-02 
387	 2.77333304231397E-02 
388	 2.81393423307751E-02 
389	 2.78340721160433E-02 
390	 2.79175993953573E-02 
391	 2.82234661024009E-02 
392	 2.84395675465305E-02 
393	 2.75934901262445E-02 
394	 2.62255658589671E-02 
395	 2.63297984080003E-02 
396	 2.68620403453666E-02 
397	 2.73147444238575E-02 
398	 2.77040192906542E-02 
399	 2.77650947895127E-02 
400	 2.72939230361298E-02 
401	 2.69418655606088E-02 
402	 2.68149995326984E-02 
403	 2.68604126817745E-02 
404	 2.67480934240018E-02 
405	 2.64236665791604E-02 
406	 0.026455547264342 
407	 2.66820348615836E-02 
408	 2.68447028364567E-02 
409	 2.66856836865477E-02 
410	 2.63817790033394E-02 
411	 2.66402512444921E-02 
412	 2.68130310738965E-02 
413	 2.66457884210348E-02 
414	 2.65987842711177E-02 
415	 2.67111463194288E-02 
416	 2.69731375039964E-02 
417	 2.68677455180096E-02 
418	 2.66021653315143E-02 
419	 2.72999292437388E-02 
420	 2.76445082129803E-02 
421	 0.027020512165355 
422	 2.64459352753667E-02 
423	 2.63109783966605E-02 
424	 2.69882949905399E-02 
425	 2.73075461816306E-02 
426	 2.70430602085036E-02 
427	 2.65641591187469E-02 
428	 2.64037954241872E-02 
429	 2.68257956934003E-02 
430	 0.026834935512846 
431	 2.67348053582948E-02 
432	 0.02728144116009 
433	 2.73632861727818E-02 
434	 0.026934371149472 
435	 2.69649407181854E-02 
436	 2.70783245908009E-02 
437	 2.70335067706557E-02 
438	 2.70987875424994E-02 
439	 2.72348868465234E-02 
440	 2.73259573505617E-02 
441	 0.027212290200862 
442	 2.70179308189131E-02 
443	 2.75123692960354E-02 
444	 2.79062789893506E-02 
445	 2.75855414326187E-02 
446	 0.027284443144956 
447	 2.71913749673121E-02 
448	 0.02745381828677 
449	 2.75725507363788E-02 
450	 2.74733772999126E-02 
451	 2.77806718846525E-02 
452	 2.80580180278784E-02 
453	 2.78793241293241E-02 
454	 0.028071199819895 
455	 2.84819447707012E-02 
456	 2.82117940282264E-02 
457	 0.028101797453589 
458	 2.83953755919181E-02 
459	 2.83189577385335E-02 
460	 2.82266091463366E-02 
461	 2.85925683120475E-02 
462	 2.87564178644495E-02 
463	 2.86130044408328E-02 
464	 2.82652168313565E-02 
465	 2.82708233922321E-02 
466	 2.88195292006812E-02 
467	 0.028951639338136 
468	 2.87660032229363E-02 
469	 2.85794827785915E-02 
470	 2.84992637090505E-02 
471	 2.85403902870075E-02 
472	 2.85532663386382E-02 
473	 2.86687188553641E-02 
474	 2.89487931019416E-02 
475	 2.92213595321698E-02 
476	 2.93968079756596E-02 
477	 2.93696622709646E-02 
478	 2.93641649668973E-02 
479	 2.94172233121476E-02 
480	 2.93921704760221E-02 
481	 2.92020568713726E-02 
482	 0.028831852699671 
483	 2.89354288418826E-02 
484	 2.93034316766048E-02 
485	 2.91236259336964E-02 
486	 2.92118079375806E-02 
487	 2.97291641948658E-02 
488	 2.99311676443462E-02 
489	 2.99041982808782E-02 
490	 2.98069667306619E-02 
491	 2.98285871492414E-02 
492	 2.99521859913311E-02 
493	 3.00106017360226E-02 
494	 3.00106741939816E-02 
495	 0.029988175550812 
496	 3.02057606513881E-02 
497	 3.03444678126426E-02 
498	 2.99685644469961E-02 
499	 2.99625757706566E-02 
500	 3.04312956236537E-02 
501	 3.09808412956895E-02 
502	 3.11916034153066E-02 
503	 3.08919513315245E-02 
504	 3.09939730938084E-02 
505	 0.031258711485375 
506	 3.10640948698313E-02 
507	 3.10738982299852E-02 
508	 3.13948228433456E-02 
509	 3.16844297908074E-02 
510	 3.18448084964902E-02 
511	 3.18322682074172E-02 
512	 3.20272842002898E-02 
513	 3.23086024294393E-02 
514	 3.22362801553871E-02 
515	 3.21492327215826E-02 
516	 0.032198933287401 
517	 3.24650659569364E-02 
518	 3.28069589322255E-02 
519	 0.033054774628719 
520	 3.30537784563326E-02 
521	 3.29694751231983E-02 
522	 3.32923580615513E-02 
523	 3.38270022323471E-02 
524	 3.43776450404142E-02 
525	 3.42996436315162E-02 
526	 3.40025149896167E-02 
527	 3.41534653582805E-02 
528	 3.43957240092515E-02 
529	 3.46158967683329E-02 
530	 3.47395854757647E-02 
531	 3.48565535305843E-02 
532	 3.50464957156133E-02 
533	 0.035463806202908 
534	 3.59058975575484E-02 
535	 3.59510829712824E-02 
536	 3.59012245334961E-02 
537	 3.58820661921308E-02 
538	 0.035963422295937 
539	 3.61214172662352E-02 
540	 3.63270609687003E-02 
541	 3.66082733499495E-02 
542	 3.68749264227089E-02 
543	 3.68686336246443E-02 
544	 3.70035365540249E-02 
545	 3.73870307931341E-02 
546	 3.75360892971609E-02 
547	 3.74649613828115E-02 
548	 0.037253771273826 
549	 3.72620982935184E-02 
550	 3.75081951869631E-02 
551	 0.037681590581523 
552	 3.78535708010106E-02 
553	 3.80657681595219E-02 
554	 3.83287394096957E-02 
555	 3.85576808563635E-02 
556	 3.85956045351049E-02 
557	 3.86447999804189E-02 
558	 3.87214064941857E-02 
559	 3.85642844315216E-02 
560	 3.84169026597812E-02 
561	 0.038516237121375 
562	 3.88307380046897E-02 
563	 3.92141420091428E-02 
564	 3.92941964593621E-02 
565	 3.95400215834359E-02 
566	 4.00058449298608E-02 
567	 3.98414742305398E-02 
568	 3.93727697008907E-02 
569	 3.91145263057665E-02 
570	 0.039277006330542 
571	 0.03970615539403 
572	 3.96596855728163E-02 
573	 3.95199707843389E-02 
574	 3.95399159647851E-02 
575	 3.97832564826639E-02 
576	 4.00388874460608E-02 
577	 3.98859964743279E-02 
578	 3.99813724592381E-02 
579	 4.03682073893471E-02 
580	 4.02439083492162E-02 
581	 4.01532015135852E-02 
582	 4.05606237208976E-02 
583	 4.07619767895682E-02 
584	 4.06865839439748E-02 
585	 4.04382780050681E-02 
586	 0.040455529450759 
587	 4.08446262930602E-02 
588	 4.09294973330799E-02 
589	 0.04081261821778 
590	 0.040719488403078 
591	 0.040782760883684 
592	 4.09927860093285E-02 
593	 0.041166130466925 
594	 4.14060497688506E-02 
595	 4.17095095306911E-02 
596	 0.041569850088429 
597	 4.13020998419935E-02 
598	 4.15782315151254E-02 
599	 4.16907707182905E-02 
600	 4.15610055295168E-02 
601	 4.18320246586646E-02 
602	 4.21095226974221E-02 
603	 4.20602418586509E-02 
604	 4.23313251075175E-02 
605	 4.27242419696088E-02 
606	 4.24183007715671E-02 
607	 4.22337699482352E-02 
608	 4.24579900967649E-02 
609	 0.042691159191765 
610	 4.27453630033448E-02 
611	 4.24417429884367E-02 
612	 4.26180069242785E-02 
613	 4.32099653684088E-02 
614	 4.33137146158738E-02 
615	 4.31336394174354E-02 
616	 4.28478461455482E-02 
617	 4.28983735248972E-02 
618	 4.30398256388309E-02 
619	 4.26851048301134E-02 
620	 4.28849514929925E-02 
621	 4.36593123181988E-02 
622	 4.36891313715834E-02 
623	 4.34716338619164E-02 
624	 4.34915250834795E-02 
625	 4.35169145930615E-02 
626	 4.35778378784527E-02 
627	 4.38422019837895E-02 
628	 4.40924364686368E-02 
629	 4.42147697887112E-02 
630	 4.41919692143533E-02 
631	 4.40327301670018E-02 
632	 4.37586380463043E-02 
633	 4.40165561617649E-02 
634	 4.46804765634511E-02 
635	 4.48234946374137E-02 
636	 4.48816233740029E-02 
637	 4.50654873546033E-02 
638	 4.49062773926027E-02 
639	 4.46722098679263E-02 
640	 4.49285208290437E-02 
641	 0.045243475422167 
642	 4.54292315766933E-02 
643	 4.53279925929746E-02 
644	 4.51791109914993E-02 
645	 4.52023825488481E-02 
646	 4.53268885960162E-02 
647	 4.54945463531231E-02 
648	 4.55795601921437E-02 
649	 0.045684918866901 
650	 4.58232621268037E-02 
651	 4.58979998306463E-02 
652	 4.57657975971264E-02 
653	 4.52770175421318E-02 
654	 4.51991862398622E-02 
655	 4.55774419947151E-02 
656	 4.58979370736901E-02 
657	 4.57848992229873E-02 
658	 4.51488011822177E-02 
659	 4.49753350552119E-02 
660	 4.50922394780371E-02 
661	 4.50386604608347E-02 
662	 4.50546646705969E-02 
663	 4.51195426742577E-02 
664	 4.49122811085947E-02 
665	 4.47286783564198E-02 
666	 4.47861509175594E-02 
667	 4.45078953143149E-02 
668	 4.39975624395935E-02 
669	 4.36741812259282E-02 
670	 0.043757147684187 
671	 4.41952261958322E-02 
672	 0.044081990062947 
673	 4.38940833636855E-02 
674	 4.42480932143762E-02 
675	 4.45122153295168E-02 
676	 4.46299276846999E-02 
677	 4.48989628380223E-02 
678	 4.50895277851537E-02 
679	 4.51389613872674E-02 
680	 4.55206036280657E-02 
681	 4.60394536606156E-02 
682	 4.63013299594246E-02 
683	 4.65523121429973E-02 
684	 4.69412450467277E-02 
685	 4.78188421448983E-02 
686	 4.87128300298662E-02 
687	 4.92012427148693E-02 
688	 4.97555175771433E-02 
689	 5.05467863001671E-02 
690	 5.18733740312249E-02 
691	 5.30060422942025E-02 
692	 5.38257633531163E-02 
693	 0.054926761594773 
694	 5.59517804450146E-02 
695	 5.64856725459866E-02 
696	 0.057441853190866 
697	 5.88373500927555E-02 
698	 6.03116831221007E-02 
699	 6.16741555851819E-02 
700	 6.28039113078643E-02 
701	 6.39367726390104E-02 
702	 6.50396012161856E-02 
703	 6.60390871315348E-02 
704	 0.067100660280008 
705	 6.82643481426194E-02 
706	 6.95010513108244E-02 
707	 7.05565391735419E-02 
708	 7.13134944150379E-02 
709	 7.23167800732422E-02 
710	 7.34591231588937E-02 
711	 0.074410539487678 
712	 7.52564675393061E-02 
713	 7.59762395959786E-02 
714	 7.63693876762355E-02 
715	 7.69463736883056E-02 
716	 7.81892017249317E-02 
717	 7.87485751313019E-02 
718	 7.87491594303391E-02 
719	 7.96170456645794E-02 
720	 8.08678356333974E-02 
721	 8.20263830708247E-02 
722	 8.24191525756469E-02 
723	 8.26628490536893E-02 
724	 8.34151677395894E-02 
725	 8.44713212060186E-02 
726	 8.54675669309917E-02 
727	 8.57263220053023E-02 
728	 8.58686639318524E-02 
729	 8.62593182453122E-02 
730	 8.69431805455012E-02 
731	 0.087778548209448 
732	 0.08855957136256 
733	 8.90114118916747E-02 
734	 0.089270577169576 
735	 8.99727947638457E-02 
736	 9.06280229973924E-02 
737	 9.09368358016826E-02 
738	 9.15201199747414E-02 
739	 0.092229188123745 
740	 9.26280793979081E-02 
741	 9.30146643564439E-02 
742	 9.34980222024022E-02 
743	 0.09415376711426 
744	 9.47625786100391E-02 
745	 9.51549496234146E-02 
746	 9.55743142999456E-02 
747	 9.60387773558692E-02 
748	 9.64947232191423E-02 
749	 9.69037780855475E-02 
750	 9.72760261912218E-02 
751	 9.77392293670933E-02 
752	 9.83024691707867E-02 
753	 9.89399892510354E-02 
754	 9.90301245029265E-02 
755	 9.88632786373656E-02 
756	 9.96486820239019E-02 
757	 0.100361803009483 
758	 0.100597383932283 
759	 0.100763218768556 
760	 0.101138903923998 
761	 0.101978721582227 
762	 0.1028178124122 
763	 0.103334123395738 
764	 0.103479687985509 
765	 0.103668475781418 
766	 0.104009191665082 
767	 0.104237721959516 
768	 0.104592322951646 
769	 0.105385868042766 
770	 0.106071786943623 
771	 0.106533373562098 
772	 0.106892040435123 
773	 0.107284363950488 
774	 0.107822163180278 
775	 0.108672413309228 
776	 0.109411253254062 
777	 0.109247827499563 
778	 0.109244991200579 
779	 0.109692357145382 
780	 0.110265552321734 
781	 0.110795532755273 
782	 0.111170758155605 
783	 0.111683851603328 
784	 0.112233733319676 
785	 0.112509029154564 
786	 0.112726252427291 
787	 0.112989675765759 
788	 0.11341782152789 
789	 0.113788443851632 
790	 0.11393333984232 
791	 0.114641683133098 
792	 0.115591270587651 
793	 0.115630342390151 
794	 0.115878567425415 
795	 0.116562712170801 
796	 0.11668044490824 
797	 0.11666943726541 
798	 0.117020370466524 
799	 0.117457542109978 
800	 0.117969191140609 
801	 0.118695267814367 
802	 0.119172871744924 
803	 0.119319379221855 
804	 0.119861433953807 
805	 0.120420157117318 
806	 0.120573911687146 
807	 0.121308789570038 
808	 0.122252112583318 
809	 0.121684118065421 
810	 0.121346109659945 
811	 0.121936364615219 
812	 0.122516453288966 
813	 0.122921911153687 
814	 0.123024487314898 
815	 0.123038050584172 
816	 0.123185347066452 
817	 0.123880194401093 
818	 0.124684096445564 
819	 0.125377126818874 
820	 0.12611029413566 
821	 0.12667011626625 
822	 0.126801721688349 
823	 0.127165926126115 
824	 0.127859404934143 
825	 0.12883547298344 
826	 0.129103867969459 
827	 0.128598812088375 
828	 0.129723250375803 
829	 0.131107087293598 
830	 0.13084236383739 
831	 0.130998269902832 
832	 0.13175747336942 
833	 0.132295726180986 
834	 0.132839522960344 
835	 0.133411805126029 
836	 0.133748085267474 
837	 0.133905927625806 
838	 0.134000714305593 
839	 0.134936628997784 
840	 0.136262289464845 
841	 0.136203225657263 
842	 0.135813817678759 
843	 0.135665233329542 
844	 0.136220302608857 
845	 0.137034019337641 
846	 0.137531243563115 
847	 0.137150568598612 
848	 0.13639961602334 
849	 0.137061830826811 
850	 0.1377812809893 
851	 0.138050978308225 
852	 0.138371179644321 
853	 0.138752766661542 
854	 0.139155189938084 
855	 0.139251602876108 
856	 0.13922934174668 
857	 0.139703789195926 
858	 0.140231217423432 
859	 0.140624024209595 
860	 0.140798661658038 
861	 0.140726817727898 
862	 0.14046092351223 
863	 0.141014101104349 
864	 0.142011243285911 
865	 0.14210261322761 
866	 0.142194320115461 
867	 0.142533205660784 
868	 0.142707302148591 
869	 0.143309269976019 
870	 0.144665444130196 
871	 0.144929452134052 
872	 0.14476897060073 
873	 0.146051100792851 
874	 0.146998540962685 
875	 0.147194098352094 
876	 0.147198883774596 
877	 0.147539527562373 
878	 0.148552226561255 
879	 0.149770726347801 
880	 0.150669782419676 
881	 0.150538591236518 
882	 0.151196259396047 
883	 0.152691778910481 
884	 0.1532872917292 
885	 0.153889336260036 
886	 0.15484148295382 
887	 0.154778371496741 
888	 0.154733554802412 
889	 0.156199683745638 
890	 0.15650369866253 
891	 0.15561485150096 
892	 0.155535048511849 
893	 0.155707597639022 
894	 0.155821268213448 
895	 0.155078381798175 
896	 0.155141323769308 
897	 0.157809579502705 
898	 0.157842014494307 
899	 0.156648523591106 
900	 0.16099451765013 
901	 0.162553712426747 
902	 0.159617415701557 
903	 0.157511238201916 
904	 0.157070191512882 
905	 0.158651049393242 
906	 0.160203431234795 
907	 0.161106076363874 
908	 0.160945000588459 
909	 0.160685544244642 
910	 0.160473082576803 
911	 0.159213118795035 
912	 0.159855776065447 
913	 0.163305100253484 
914	 0.163661630973134 
915	 0.162672775461013 
916	 0.163178777820908 
917	 0.163250320602949 
918	 0.163048870130954 
919	 0.164058938885278 
920	 0.164409723620359 
921	 0.163681746109436 
922	 0.163373569018191 
923	 0.163167334233415 
924	 0.162765487372157 
925	 0.162878291048975 
926	 0.163215688385614 
927	 0.162817437748819 
928	 0.16352971171925 
929	 0.164980470947289 
930	 0.162462665641491 
931	 0.155642643595248 
932	 0.146088336985676 
933	 0.147691200129988 
934	 0.155360534075384 
935	 0.156744368804036 
936	 0.156150881815333 
937	 0.154807463841719 
938	 0.154283013647847 
939	 0.150669662144647 
940	 0.145204907492772 
941	 0.147411528332925 
942	 0.153672325970691 
943	 0.159679123680575 
944	 0.156226554359777 
945	 0.147204157142954 
946	 0.140853679816378 
947	 0.143710464237393 
948	 0.152973215653021 
949	 0.154236662938015 
950	 0.149284955567042 
951	 0.142049889339677 
952	 0.149736121630265 
953	 0.158662557247191 
954	 0.156329821728286 
955	 0.150077203658155 
956	 0.14558729310221 
957	 0.150573405887757 
958	 0.151916829697962 
959	 0.148335874390989 
960	 0.147679952650911 
961	 0.148783344179885 
962	 0.150258322394294 
963	 0.147465721835633 
964	 0.146116749551231 
965	 0.151189424925322 
966	 0.149294127113846 
967	 0.14518125233558 
968	 0.152477102491568 
969	 0.154355260179077 
970	 0.149484559770607 
971	 0.151283519818182 
972	 0.151344760341721 
973	 0.146674058252216 
974	 0.149385738637098 
975	 0.152340004034045 
976	 0.147364157155185 
977	 0.149809232372139 
978	 0.15635709634087 
979	 0.154071287959074 
980	 0.149136262966418 
981	 0.145282585876995 
982	 0.149099960155421 
983	 0.153784512855971 
984	 0.155245643528046 
985	 0.153328635076644 
986	 0.151190833343002 
987	 0.152215735578659 
988	 0.155939642339533 
989	 0.160549628522769 
990	 0.16291554910452 
991	 0.162830499952314 
992	 0.161317592622896 
993	 0.162338090392047 
994	 0.163577384817272 
995	 0.163522485636111 
996	 0.16057603573495 
997	 0.1594580801919 
998	 0.164296122692654 
999	 0.167625158027132 
1000	 0.167327789699689 
1001	 0.162269801872143 
1002	 0.164654546626455 
1003	 0.17200810572998 
1004	 0.164848307751582 
1005	 0.160090796528252 
1006	 0.163517958761923 
1007	 0.16631026307147 
1008	 0.168424884850715 
1009	 0.169982378734099 
1010	 0.172254403062252 
1011	 0.169952548884027 
1012	 0.156484777771823 
1013	 0.160215102250567 
1014	 0.175446170380782 
1015	 0.172403053460035 
1016	 0.169814894704731 
1017	 0.170287420770992 
1018	 0.160307001139718 
1019	 0.154569827003058 
1020	 0.161864814912294 
1021	 0.180961104182761 
1022	 0.18966980609046 
1023	 0.170962007030116 
1024	 0.176199128554277 
1025	 0.193991383414899 
1026	 0.191367009455208 
1027	 0.177821057261446 
1028	 0.163407916786433 
1029	 0.173437771742222 
1030	 0.180904065855892 
1031	 0.177609887413358 
1032	 0.173049504179093 
1033	 0.170293988311846 
1034	 0.171756746128949 
1035	 0.18039874070225 
1036	 0.186341315110986 
1037	 0.180447687819146 
1038	 0.184645542694109 
1039	 0.193092390114857 
1040	 0.190653803703466 
1041	 0.190230072801941 
1042	 0.191625895668088 
1043	 0.184465798685268 
1044	 0.177025002934071 
1045	 0.17455091517471 
1046	 0.184559379099084 
1047	 0.190976841299787 
1048	 0.183541137939988 
1049	 0.165468760261043 
1050	 0.16097443343612 
1051	 0.187827710681305 
1052	 0.190782797220001 
1053	 0.184661712772324 
1054	 0.202253589621285 
1055	 0.197167684812792 
1056	 0.173705785547192 
1057	 0.170969504846075 
1058	 0.174923075516107 
1059	 0.181589419828435 
1060	 0.191205385218737 
1061	 0.19122674538962 
1062	 0.179937428970778 
1063	 0.180963652107625 
1064	 0.181235098243185 
1065	 0.17249153312428 
1066	 0.169159338896105 
1067	 0.187765288455692 
1068	 0.233614471665223 
1069	 0.219776389971049 
1070	 0.186832676810113 
1071	 0.228772145231559 
1072	 0.212453304013168 
1073	 0.149100941547038 
1074	 0.155919276206832 
1075	 0.153407726171173 
