Wavelength	AVEI200180.asd
325	 0.041728834839246 
326	 4.23525620081519E-02 
327	 4.13683538550657E-02 
328	 3.97093642811313E-02 
329	 3.98792387834216E-02 
330	 4.24785914518151E-02 
331	 4.63274116195209E-02 
332	 4.75481961286509E-02 
333	 4.29875405094497E-02 
334	 4.09843780287216E-02 
335	 4.13041097265348E-02 
336	 0.039733129197488 
337	 3.80924369428098E-02 
338	 3.76970527246871E-02 
339	 4.23141350973622E-02 
340	 4.53523135018041E-02 
341	 4.21593739108891E-02 
342	 4.12234922051171E-02 
343	 4.27120985438551E-02 
344	 4.45494244921115E-02 
345	 4.42021488695766E-02 
346	 4.18733369157219E-02 
347	 4.10711928196533E-02 
348	 0.041644204594844 
349	 4.30988441595708E-02 
350	 4.31161767082719E-02 
351	 4.20655323406195E-02 
352	 4.09894453608369E-02 
353	 4.03458515780003E-02 
354	 4.05175069748335E-02 
355	 4.25172218312627E-02 
356	 4.29873054381754E-02 
357	 4.05278672061582E-02 
358	 4.08924957291492E-02 
359	 4.21784761547643E-02 
360	 4.05577056082044E-02 
361	 3.94238155110537E-02 
362	 3.95275287549567E-02 
363	 4.03711725849884E-02 
364	 4.14984148065611E-02 
365	 0.042479244904655 
366	 0.042842324424142 
367	 4.22273792836359E-02 
368	 4.02311502621433E-02 
369	 3.92989327906212E-02 
370	 3.98501714570766E-02 
371	 0.041272984353457 
372	 0.041823542601734 
373	 4.06965124829849E-02 
374	 0.039749883838224 
375	 3.91248543055816E-02 
376	 3.86956595175083E-02 
377	 3.79420018619558E-02 
378	 3.70896424334691E-02 
379	 3.72055658052432E-02 
380	 3.78682184080529E-02 
381	 3.87864177073968E-02 
382	 3.98181109729676E-02 
383	 4.05838781449352E-02 
384	 4.06470905010182E-02 
385	 3.92101815561764E-02 
386	 0.03726869281618 
387	 3.84518451348334E-02 
388	 3.88947532408275E-02 
389	 3.72051761032729E-02 
390	 3.64176664833795E-02 
391	 3.66404798724682E-02 
392	 3.76333180276009E-02 
393	 3.85098244209607E-02 
394	 3.87226803473449E-02 
395	 3.73995156516404E-02 
396	 3.65572431043934E-02 
397	 3.69264057384766E-02 
398	 3.71188948452382E-02 
399	 0.037450583975863 
400	 3.83284171072527E-02 
401	 3.78813025216324E-02 
402	 3.66498268208227E-02 
403	 3.66242257567911E-02 
404	 0.037188476161897 
405	 0.037804250795961 
406	 3.67429482538239E-02 
407	 3.55087504938279E-02 
408	 3.60795218192572E-02 
409	 3.69421931466874E-02 
410	 3.74904304917095E-02 
411	 3.70661718899505E-02 
412	 3.65807358713506E-02 
413	 3.64818003557918E-02 
414	 3.65339529538031E-02 
415	 3.65261538223887E-02 
416	 3.62204009501398E-02 
417	 3.62629610202173E-02 
418	 0.036601392889254 
419	 3.66234109440244E-02 
420	 3.64723298140773E-02 
421	 3.62585885114816E-02 
422	 3.61568458476453E-02 
423	 3.62529191697568E-02 
424	 3.66447942573285E-02 
425	 3.65240005871252E-02 
426	 3.59911255790506E-02 
427	 3.61580461504168E-02 
428	 3.66200325187744E-02 
429	 3.70382685885517E-02 
430	 3.70282560612677E-02 
431	 3.67381946040668E-02 
432	 3.64990084168349E-02 
433	 3.65907148504431E-02 
434	 3.68175292480332E-02 
435	 3.61302780644224E-02 
436	 3.55505450447171E-02 
437	 3.57334689748934E-02 
438	 3.60801517709563E-02 
439	 3.63723401312944E-02 
440	 3.64012766814155E-02 
441	 0.036223963194813 
442	 3.60107617268166E-02 
443	 3.64223014204595E-02 
444	 3.66188608296626E-02 
445	 3.60057356600412E-02 
446	 3.60250133764523E-02 
447	 3.64518722209221E-02 
448	 3.62210724220925E-02 
449	 3.61633992698234E-02 
450	 3.64648930506838E-02 
451	 3.66652965834364E-02 
452	 3.67123809601071E-02 
453	 3.65979717135579E-02 
454	 3.66676443474121E-02 
455	 3.68378669838513E-02 
456	 3.66719967730223E-02 
457	 3.65034093139909E-02 
458	 3.64557920718368E-02 
459	 0.03635328914693 
460	 3.63515278161828E-02 
461	 3.66351221943183E-02 
462	 3.67373788222902E-02 
463	 0.03662668274532 
464	 0.036543174909504 
465	 3.66309334836793E-02 
466	 3.68760699624869E-02 
467	 0.036547924215081 
468	 3.61043614254318E-02 
469	 3.63216624954549E-02 
470	 3.66918778050629E-02 
471	 3.69518995112168E-02 
472	 3.66816238554953E-02 
473	 3.64957806814205E-02 
474	 3.67326464685384E-02 
475	 3.66812008272637E-02 
476	 3.64373813548474E-02 
477	 3.63194474472542E-02 
478	 3.64238904875221E-02 
479	 0.036672694296936 
480	 3.65950559517658E-02 
481	 3.64621574834807E-02 
482	 3.65058929629771E-02 
483	 3.66648348429256E-02 
484	 3.68067414019382E-02 
485	 3.66039292304409E-02 
486	 3.66397751382517E-02 
487	 3.70176655755495E-02 
488	 3.70566922250035E-02 
489	 3.69616833129417E-02 
490	 3.69830652614574E-02 
491	 3.68693679670197E-02 
492	 3.67015787022593E-02 
493	 3.67838067212046E-02 
494	 3.69827541665335E-02 
495	 3.72344970455934E-02 
496	 3.75340206975785E-02 
497	 3.77928538828564E-02 
498	 3.79074982322564E-02 
499	 3.79411377290455E-02 
500	 0.038000667782596 
501	 3.83715184460107E-02 
502	 3.87359285545077E-02 
503	 3.88926168272041E-02 
504	 3.88697136708719E-02 
505	 3.90170105030051E-02 
506	 3.99207384706071E-02 
507	 4.04691697112502E-02 
508	 4.04897162361714E-02 
509	 4.06497133107111E-02 
510	 4.11061170245122E-02 
511	 4.19244270269453E-02 
512	 4.25240573715359E-02 
513	 4.29041592441809E-02 
514	 4.32803734585913E-02 
515	 4.38834745277336E-02 
516	 4.47134674770743E-02 
517	 4.51756873640046E-02 
518	 4.56217991362883E-02 
519	 4.64556252392846E-02 
520	 0.047227209915891 
521	 4.79738924610464E-02 
522	 4.91427244362702E-02 
523	 0.050017283749979 
524	 5.03563708995888E-02 
525	 5.08634765626405E-02 
526	 0.051609692527874 
527	 5.25778255259388E-02 
528	 5.33186612100636E-02 
529	 5.37925523240592E-02 
530	 5.43263610119339E-02 
531	 5.50597694049688E-02 
532	 5.60129368717341E-02 
533	 0.056456511756504 
534	 5.65477616958713E-02 
535	 5.67788373481338E-02 
536	 5.72224903564633E-02 
537	 0.05785997168678 
538	 5.83954601643728E-02 
539	 5.88088401761296E-02 
540	 5.91007094227456E-02 
541	 5.94005827179592E-02 
542	 5.97108127989718E-02 
543	 5.99164919541367E-02 
544	 6.03064481250799E-02 
545	 6.09218477170019E-02 
546	 6.12137705625553E-02 
547	 6.13508760096197E-02 
548	 6.16182585524305E-02 
549	 6.18779016608604E-02 
550	 6.21005989139831E-02 
551	 6.22629512912686E-02 
552	 6.25186068270419E-02 
553	 6.29239690556243E-02 
554	 6.30826435045276E-02 
555	 6.31026094813346E-02 
556	 6.32987092107325E-02 
557	 6.33789850523944E-02 
558	 6.33045704031711E-02 
559	 6.33590131328727E-02 
560	 6.33021176399664E-02 
561	 6.29366280116835E-02 
562	 6.27684429977341E-02 
563	 6.28251628630166E-02 
564	 6.29648624576701E-02 
565	 6.28509697688807E-02 
566	 6.23952151778253E-02 
567	 6.21383232387873E-02 
568	 6.18538518119109E-02 
569	 6.11929030237052E-02 
570	 6.09096951366914E-02 
571	 6.09664049725172E-02 
572	 6.05636809136615E-02 
573	 6.00877819666867E-02 
574	 5.97743168999846E-02 
575	 5.95680251370046E-02 
576	 5.93422321686193E-02 
577	 5.88677913599502E-02 
578	 5.85260971845363E-02 
579	 5.83914784456566E-02 
580	 5.81685761597176E-02 
581	 5.80555991815097E-02 
582	 5.81890270922417E-02 
583	 5.78633907122946E-02 
584	 5.73233895034698E-02 
585	 5.75577396043526E-02 
586	 5.77154075290992E-02 
587	 5.74628803562617E-02 
588	 5.70438832796433E-02 
589	 5.65896745051435E-02 
590	 0.056259954392241 
591	 5.60167761878679E-02 
592	 5.58669668105103E-02 
593	 5.58249914170786E-02 
594	 5.58990677677175E-02 
595	 5.60369502627909E-02 
596	 5.58293671529713E-02 
597	 5.54745373301419E-02 
598	 5.53958322845348E-02 
599	 5.55294009076784E-02 
600	 5.57477057964539E-02 
601	 5.55990964098662E-02 
602	 5.52611094873531E-02 
603	 5.49321269191947E-02 
604	 5.48372264330484E-02 
605	 5.48953834643164E-02 
606	 5.48131743794248E-02 
607	 5.45798873765109E-02 
608	 5.42013703722528E-02 
609	 5.37907514026834E-02 
610	 5.35800346006978E-02 
611	 5.38266263443966E-02 
612	 5.34568983031519E-02 
613	 5.26038860081254E-02 
614	 5.26526189524228E-02 
615	 0.052761993895863 
616	 5.24526241257766E-02 
617	 5.22777875989779E-02 
618	 5.21373851399841E-02 
619	 5.17287189015129E-02 
620	 5.13813484922299E-02 
621	 0.051177972638914 
622	 0.050976527999105 
623	 5.08884998495048E-02 
624	 5.10264985866823E-02 
625	 5.15656629682092E-02 
626	 5.20716203648471E-02 
627	 5.13470689300825E-02 
628	 5.07348322498883E-02 
629	 5.07548588018169E-02 
630	 5.08582689996487E-02 
631	 0.050988143061918 
632	 5.11270578328039E-02 
633	 5.10861886259272E-02 
634	 5.09094298168235E-02 
635	 5.09705930456487E-02 
636	 5.07131827802146E-02 
637	 4.98961875127126E-02 
638	 4.94311892172632E-02 
639	 4.91244018113079E-02 
640	 0.048387712928311 
641	 4.78954609160025E-02 
642	 4.77108141048225E-02 
643	 4.71817224163749E-02 
644	 4.64711678648838E-02 
645	 4.57566618730416E-02 
646	 4.52353159835153E-02 
647	 4.49033503695728E-02 
648	 4.46502661011319E-02 
649	 0.044286284880257 
650	 4.38321905547051E-02 
651	 4.39596181099693E-02 
652	 4.40719225040452E-02 
653	 0.043413208915232 
654	 4.29710652637063E-02 
655	 4.29482990853137E-02 
656	 4.32105177996094E-02 
657	 4.33345416279791E-02 
658	 0.043043775110194 
659	 4.24096367161803E-02 
660	 4.17772073941292E-02 
661	 4.16705830120119E-02 
662	 4.14021652709109E-02 
663	 4.08747398444032E-02 
664	 4.05665319638045E-02 
665	 0.040310830631354 
666	 3.99801632767478E-02 
667	 3.99342018258678E-02 
668	 4.00104684734695E-02 
669	 3.96425188981913E-02 
670	 3.94616215424138E-02 
671	 3.95665074741409E-02 
672	 3.90871445740062E-02 
673	 3.86889757760945E-02 
674	 3.91773729332799E-02 
675	 3.94603937068054E-02 
676	 3.93964761789411E-02 
677	 3.93492908480261E-02 
678	 3.94331953483122E-02 
679	 3.96985988070877E-02 
680	 3.99080080686269E-02 
681	 4.01111894187099E-02 
682	 4.04301379053004E-02 
683	 4.08353345247403E-02 
684	 4.14345832290132E-02 
685	 0.042675846020975 
686	 4.41949796934976E-02 
687	 4.56391422966187E-02 
688	 4.70256384358108E-02 
689	 4.85457894832354E-02 
690	 5.08896571228721E-02 
691	 5.32603884567263E-02 
692	 5.55314086658617E-02 
693	 5.80686439880831E-02 
694	 6.09308190203405E-02 
695	 6.40155168900046E-02 
696	 6.72115899280051E-02 
697	 7.04782721227899E-02 
698	 7.38765341411066E-02 
699	 7.78361244700258E-02 
700	 8.24003993312267E-02 
701	 0.086671070766766 
702	 9.07268670335071E-02 
703	 9.48525890120815E-02 
704	 9.90985582646388E-02 
705	 0.103453213622342 
706	 0.107682083880241 
707	 0.111556780750429 
708	 0.115028236040027 
709	 0.119061232831419 
710	 0.123463067253856 
711	 0.127687458954897 
712	 0.131484590493576 
713	 0.134836243896005 
714	 0.138284557755632 
715	 0.141643758581972 
716	 0.144895815799434 
717	 0.148025962232839 
718	 0.151286350541289 
719	 0.154819377455651 
720	 0.15829061721126 
721	 0.16126614725617 
722	 0.163538879206581 
723	 0.165709437973186 
724	 0.168224157231822 
725	 0.170496941422869 
726	 0.172406888723129 
727	 0.174632155791067 
728	 0.17677354192596 
729	 0.17862373579867 
730	 0.18024850205193 
731	 0.181670327240966 
732	 0.182900362379649 
733	 0.184324051838155 
734	 0.185910518646497 
735	 0.187131885786745 
736	 0.188283707030911 
737	 0.189500772658819 
738	 0.190552082393659 
739	 0.191567983001304 
740	 0.19288077699755 
741	 0.193621469446328 
742	 0.193792564582212 
743	 0.194593974845991 
744	 0.195543219431213 
745	 0.196215491429489 
746	 0.196874659226307 
747	 0.197520271453226 
748	 0.198036016796959 
749	 0.198737446227741 
750	 0.199611116245528 
751	 0.199904485478387 
752	 0.200204194449135 
753	 0.201140588516087 
754	 0.201499950137789 
755	 0.20144927306232 
756	 0.202215538563539 
757	 0.20283967903798 
758	 0.202959251055342 
759	 0.203063113014946 
760	 0.203494844488162 
761	 0.204600752094307 
762	 0.205217597368034 
763	 0.205417132735635 
764	 0.206360180184841 
765	 0.207221152116245 
766	 0.207655895781562 
767	 0.207622768018589 
768	 0.207529746273897 
769	 0.207799241187194 
770	 0.208344595754116 
771	 0.209030807946396 
772	 0.209461078973898 
773	 0.209761727342497 
774	 0.210034313403284 
775	 0.210393350577182 
776	 0.21077813115709 
777	 0.211040474648232 
778	 0.211388445904235 
779	 0.211836154051944 
780	 0.21217685901468 
781	 0.212472214102125 
782	 0.212776828741449 
783	 0.213076253313204 
784	 0.213375895181806 
785	 0.213692464706891 
786	 0.213967284587967 
787	 0.214192675277285 
788	 0.214438299819347 
789	 0.214637893135445 
790	 0.214756824347332 
791	 0.21525305505621 
792	 0.215923023234516 
793	 0.216095128480055 
794	 0.21611285123862 
795	 0.216143256398599 
796	 0.216379078793017 
797	 0.216701081477567 
798	 0.216974679367482 
799	 0.217227061329088 
800	 0.217504373698891 
801	 0.217926248215769 
802	 0.218298974361916 
803	 0.218562472316254 
804	 0.218882444663028 
805	 0.219173936037917 
806	 0.219342874329927 
807	 0.219462369909892 
808	 0.219643665399272 
809	 0.220156226571875 
810	 0.22068336925852 
811	 0.220970201688745 
812	 0.220440576062801 
813	 0.219817369122557 
814	 0.220146723662558 
815	 0.221021347325585 
816	 0.222084854497604 
817	 0.222619213721375 
818	 0.222883705583322 
819	 0.223143810987015 
820	 0.224272823495864 
821	 0.225039333914042 
822	 0.223989650001091 
823	 0.224165597247446 
824	 0.225536990309576 
825	 0.225980372772035 
826	 0.226309563454046 
827	 0.226731287480832 
828	 0.226446207989032 
829	 0.22610340429735 
830	 0.226554811253973 
831	 0.227056411720275 
832	 0.227411245806886 
833	 0.227538657007782 
834	 0.227869691219104 
835	 0.228413000339321 
836	 0.227987247994724 
837	 0.227707704995852 
838	 0.228861565910539 
839	 0.22957085083796 
840	 0.229610883618346 
841	 0.229492437681566 
842	 0.229723890715811 
843	 0.230379142013418 
844	 0.230303794581152 
845	 0.230083997128561 
846	 0.23045523392841 
847	 0.230636790831116 
848	 0.230526175680401 
849	 0.230315176776416 
850	 0.230016818071248 
851	 0.229716007565378 
852	 0.229680755456989 
853	 0.229913978695059 
854	 0.230384481874093 
855	 0.231280634093949 
856	 0.23204419750651 
857	 0.231182867410639 
858	 0.230919548731738 
859	 0.231739770973031 
860	 0.231807454473118 
861	 0.231707498089147 
862	 0.232006309526622 
863	 0.231296378577463 
864	 0.230325014016548 
865	 0.231434043817578 
866	 0.232423416955443 
867	 0.232665222740347 
868	 0.233122073686224 
869	 0.233412474459254 
870	 0.233302779638651 
871	 0.233909876038974 
872	 0.234681280321207 
873	 0.234174140902276 
874	 0.234279802383447 
875	 0.23540356291686 
876	 0.236720065656132 
877	 0.237566884363662 
878	 0.237601781798871 
879	 0.238154226117909 
880	 0.238998256831629 
881	 0.239461768007127 
882	 0.239793916011093 
883	 0.240132485420247 
884	 0.240913025319902 
885	 0.240805336036468 
886	 0.239512464661682 
887	 0.240354429694847 
888	 0.24244360735366 
889	 0.244068317057757 
890	 0.243678947401329 
891	 0.241835190000497 
892	 0.241474605629081 
893	 0.242514199196083 
894	 0.244514627577611 
895	 0.244337401390083 
896	 0.243146520980583 
897	 0.242798976081542 
898	 0.243587940155632 
899	 0.244946812013234 
900	 0.245315814373778 
901	 0.244740352727947 
902	 0.243936421302273 
903	 0.246232672151083 
904	 0.247385197339781 
905	 0.244530606467292 
906	 0.243980048081772 
907	 0.244711234722254 
908	 0.243107673080069 
909	 0.244057760544563 
910	 0.247105905887702 
911	 0.245087772961155 
912	 0.242430376912867 
913	 0.241986888345676 
914	 0.243473949583194 
915	 0.245044696601187 
916	 0.244546637884089 
917	 0.243801218514182 
918	 0.243674741476675 
919	 0.245822775361691 
920	 0.245186330453633 
921	 0.241384502283772 
922	 0.242254184231163 
923	 0.24410482377562 
924	 0.243309646542683 
925	 0.241735983355416 
926	 0.239952549578401 
927	 0.238679188557118 
928	 0.235806619731773 
929	 0.231791540917219 
930	 0.233411180838908 
931	 0.233313719460298 
932	 0.226583584306975 
933	 0.22969000947918 
934	 0.23589811541435 
935	 0.231203502593048 
936	 0.225039738988786 
937	 0.221469910550121 
938	 0.225101803678415 
939	 0.22357161762909 
940	 0.215435187405398 
941	 0.213360312059504 
942	 0.214474820022678 
943	 0.21600774884523 
944	 0.215799974264787 
945	 0.214122007164538 
946	 0.212044624477367 
947	 0.211063953033694 
948	 0.211328282433245 
949	 0.212396118335069 
950	 0.209957199355632 
951	 0.202819771069008 
952	 0.195236901166528 
953	 0.191659559651751 
954	 0.19487204586979 
955	 0.197349254941329 
956	 0.197632038605669 
957	 0.195742676094454 
958	 0.193834652479042 
959	 0.192074681006907 
960	 0.187951006291583 
961	 0.186544634668297 
962	 0.189297332072961 
963	 0.189910998361005 
964	 0.188892760157172 
965	 0.187408922345804 
966	 0.188299156341929 
967	 0.190124566450692 
968	 0.188961374491423 
969	 0.189947676692868 
970	 0.193290846658317 
971	 0.19507853641885 
972	 0.193397075499966 
973	 0.188549732680481 
974	 0.189606784614615 
975	 0.191833011739311 
976	 0.189445975450729 
977	 0.190625245841882 
978	 0.193557809043378 
979	 0.191087367862071 
980	 0.190476202275046 
981	 0.192445061360616 
982	 0.191285758190424 
983	 0.190320154994212 
984	 0.191188197315512 
985	 0.192113242904206 
986	 0.192826669206704 
987	 0.193395738189545 
988	 0.197935054563244 
989	 0.202298255010522 
990	 0.196775412083015 
991	 0.193402188527176 
992	 0.195692269974294 
993	 0.202971636055 
994	 0.205709686236997 
995	 0.200316350319336 
996	 0.197324652112389 
997	 0.197110794908423 
998	 0.198982272695516 
999	 0.201157687082273 
1000	 0.202411919143576 
1001	 0.201366711753749 
1002	 0.202170918572829 
1003	 0.205148247567337 
1004	 0.20832730488582 
1005	 0.206419119572678 
1006	 0.200579094686211 
1007	 0.209057838805649 
1008	 0.214640964585566 
1009	 0.205761231973042 
1010	 0.208599150919932 
1011	 0.213676072138671 
1012	 0.204075645727071 
1013	 0.205195481873065 
1014	 0.216445531047615 
1015	 0.223810104127879 
1016	 0.220959778261537 
1017	 0.209456442817092 
1018	 0.206055353060131 
1019	 0.206609785089422 
1020	 0.209064137738542 
1021	 0.217428639972377 
1022	 0.219551565283491 
1023	 0.206123329422357 
1024	 0.210467086900083 
1025	 0.223129889310346 
1026	 0.219683668682608 
1027	 0.220304066630632 
1028	 0.226669072857282 
1029	 0.230165286142282 
1030	 0.226846435188155 
1031	 0.218605511722249 
1032	 0.221305437576755 
1033	 0.224879632024705 
1034	 0.223416282379652 
1035	 0.224796368969983 
1036	 0.227960791285679 
1037	 0.230983904549581 
1038	 0.233003280777377 
1039	 0.234150374826386 
1040	 0.235200205946758 
1041	 0.231790168452446 
1042	 0.225455947052807 
1043	 0.22359310717065 
1044	 0.228047593774457 
1045	 0.236990046935746 
1046	 0.24069039139287 
1047	 0.236034947965661 
1048	 0.223798648111978 
1049	 0.220562057477668 
1050	 0.220847275307257 
1051	 0.217676015120259 
1052	 0.212004964605584 
1053	 0.212118877508265 
1054	 0.228984830662199 
1055	 0.224178069175219 
1056	 0.205302004956497 
1057	 0.212022229941461 
1058	 0.229611391105555 
1059	 0.24629256020722 
1060	 0.2282078573519 
1061	 0.220027184748453 
1062	 0.234840940657911 
1063	 0.226937370055279 
1064	 0.211982990089919 
1065	 0.205672532101676 
1066	 0.209505757085482 
1067	 0.213540473796451 
1068	 0.20681735407202 
1069	 0.200612267513806 
1070	 0.198764362784822 
1071	 0.203367580324619 
1072	 0.225178430559827 
1073	 0.247696250295138 
1074	 0.220458248833995 
1075	 0.209111893765828 
