Wavelength	AVEI200181.asd
325	 5.32476965914031E-02 
326	 4.67187460729772E-02 
327	 4.20127505725007E-02 
328	 4.33058521380536E-02 
329	 4.48197817294038E-02 
330	 4.45866683126783E-02 
331	 4.52043759148549E-02 
332	 4.47432125141358E-02 
333	 4.15638304745548E-02 
334	 4.24335873137929E-02 
335	 4.61378254959094E-02 
336	 4.84061225854753E-02 
337	 4.40602119364354E-02 
338	 3.54815515050636E-02 
339	 4.12985992707441E-02 
340	 0.048296823447727 
341	 4.58360387532456E-02 
342	 4.29090116254946E-02 
343	 0.041992795068986 
344	 4.52324071940463E-02 
345	 4.57224713638822E-02 
346	 0.042975109072055 
347	 4.29961666049106E-02 
348	 4.32092423006245E-02 
349	 4.19758630434016E-02 
350	 4.17094671742603E-02 
351	 4.14854773604118E-02 
352	 3.92482243111751E-02 
353	 3.91205694867863E-02 
354	 4.12649499862921E-02 
355	 4.27029872016748E-02 
356	 0.042437816577146 
357	 4.04601758473373E-02 
358	 4.14205545017641E-02 
359	 4.31505618341322E-02 
360	 4.16505697192233E-02 
361	 4.01921995571027E-02 
362	 3.99114746684476E-02 
363	 4.18712813121163E-02 
364	 4.27725826223717E-02 
365	 4.13029752738915E-02 
366	 4.15261723149577E-02 
367	 4.22868206759225E-02 
368	 0.041532709227801 
369	 4.05952368799829E-02 
370	 3.97721044288454E-02 
371	 3.87884901230939E-02 
372	 3.88953617893886E-02 
373	 4.03553752196974E-02 
374	 4.00524441338879E-02 
375	 0.039103082968567 
376	 3.94730869394938E-02 
377	 3.88642877466039E-02 
378	 3.74543069367602E-02 
379	 3.74273206009369E-02 
380	 3.81580164393344E-02 
381	 3.90939239736025E-02 
382	 3.89783076724843E-02 
383	 3.85945841479632E-02 
384	 3.90902425905672E-02 
385	 3.88873325584593E-02 
386	 3.80276233419428E-02 
387	 3.77527246136748E-02 
388	 3.79111800344737E-02 
389	 3.81871746783242E-02 
390	 3.71915291261407E-02 
391	 3.59000023563636E-02 
392	 0.035551584846223 
393	 3.71298758630825E-02 
394	 3.92020038101889E-02 
395	 3.71315820589455E-02 
396	 0.035952197885005 
397	 0.037343317538522 
398	 3.77995605849945E-02 
399	 3.75477901677318E-02 
400	 3.71821318796682E-02 
401	 0.037036828033476 
402	 3.69469024334063E-02 
403	 3.61272293930419E-02 
404	 3.61798919228664E-02 
405	 3.73124431636839E-02 
406	 3.65112974358071E-02 
407	 3.54312389833973E-02 
408	 3.63635372528253E-02 
409	 3.65853685062157E-02 
410	 3.59514438159495E-02 
411	 3.58378972191808E-02 
412	 3.57516468556136E-02 
413	 3.55541287571644E-02 
414	 3.58511117113599E-02 
415	 0.036156036751871 
416	 3.57951339900326E-02 
417	 3.58147545240387E-02 
418	 3.62431379050055E-02 
419	 3.64184170087103E-02 
420	 3.63951085124017E-02 
421	 3.62412863895707E-02 
422	 3.62705966997426E-02 
423	 3.63767394507034E-02 
424	 0.036352462891179 
425	 3.62507550620313E-02 
426	 3.61187165134315E-02 
427	 3.60631335460599E-02 
428	 3.61006482622799E-02 
429	 3.62149023258911E-02 
430	 3.62185468863695E-02 
431	 3.60902436159041E-02 
432	 3.58457433992204E-02 
433	 3.56173420756239E-02 
434	 3.54633080762403E-02 
435	 3.53689027495459E-02 
436	 3.54331912415372E-02 
437	 3.56786603314774E-02 
438	 3.57510433761343E-02 
439	 3.56164181363513E-02 
440	 3.52693206422058E-02 
441	 3.53379659441849E-02 
442	 3.58313975547436E-02 
443	 3.59197090970283E-02 
444	 3.57613833431367E-02 
445	 3.55387550113111E-02 
446	 0.035528599679908 
447	 3.56372162415165E-02 
448	 3.55111765022984E-02 
449	 3.55465422734094E-02 
450	 3.58127150725423E-02 
451	 3.60063044407098E-02 
452	 3.59900844607878E-02 
453	 3.56868736993075E-02 
454	 3.58586387886209E-02 
455	 3.63269196928905E-02 
456	 0.03615416592012 
457	 3.60449073985438E-02 
458	 3.61892638502331E-02 
459	 3.59286286074106E-02 
460	 3.56336329036273E-02 
461	 3.57886997892231E-02 
462	 3.58778470002439E-02 
463	 0.035889942928161 
464	 3.62030963469719E-02 
465	 3.63858943026728E-02 
466	 3.62132718489302E-02 
467	 3.58364789056336E-02 
468	 3.54756479316435E-02 
469	 3.54038459336104E-02 
470	 3.59075205576978E-02 
471	 3.66934487986919E-02 
472	 3.65454970051837E-02 
473	 3.62151689080547E-02 
474	 3.61785391589933E-02 
475	 3.60871788215475E-02 
476	 3.59494244561756E-02 
477	 3.58401068341045E-02 
478	 3.58079763919012E-02 
479	 3.58507232060511E-02 
480	 0.035891830391913 
481	 3.58967517164274E-02 
482	 3.58540671412025E-02 
483	 3.59590647438564E-02 
484	 3.61310911903066E-02 
485	 0.036078209595219 
486	 3.61579139398441E-02 
487	 0.036436504123172 
488	 3.65264378994106E-02 
489	 3.66032630096771E-02 
490	 3.68482332626587E-02 
491	 3.67030741706116E-02 
492	 0.036344726054377 
493	 3.65345705172567E-02 
494	 3.66755821708235E-02 
495	 3.65947308160144E-02 
496	 0.036906194002209 
497	 3.73214489769805E-02 
498	 3.74066823393405E-02 
499	 3.72794978034553E-02 
500	 3.71565803333294E-02 
501	 3.76694972075369E-02 
502	 3.81294799900705E-02 
503	 3.81511539327373E-02 
504	 3.82561622406106E-02 
505	 3.85600927882746E-02 
506	 3.91350461745679E-02 
507	 3.97519282105261E-02 
508	 4.02477427585293E-02 
509	 4.02747115950021E-02 
510	 4.04573563755465E-02 
511	 4.12586425697054E-02 
512	 4.20147466798756E-02 
513	 4.25139336255336E-02 
514	 4.24789450284326E-02 
515	 4.27857047239443E-02 
516	 4.36778148298233E-02 
517	 4.44507484416428E-02 
518	 4.51119724424098E-02 
519	 4.57310458799471E-02 
520	 4.66272428950323E-02 
521	 0.04772231565681 
522	 4.86971882779285E-02 
523	 4.94446702984977E-02 
524	 4.99365621163425E-02 
525	 5.03388195204559E-02 
526	 5.08702616540203E-02 
527	 5.17999537113325E-02 
528	 0.052421666752686 
529	 5.27155924769134E-02 
530	 5.32912817722176E-02 
531	 5.40715767442578E-02 
532	 5.49531485802941E-02 
533	 0.05546841456559 
534	 0.055760780999259 
535	 5.62571405850071E-02 
536	 5.66941642015558E-02 
537	 5.70372789542908E-02 
538	 0.057488049496861 
539	 5.79108367011246E-02 
540	 5.81698809219928E-02 
541	 5.83961839327533E-02 
542	 5.86577432343815E-02 
543	 5.90316850797225E-02 
544	 5.95496079500382E-02 
545	 6.01404424726547E-02 
546	 0.060326440113267 
547	 6.03502937368209E-02 
548	 6.05824098363149E-02 
549	 6.07996646344264E-02 
550	 6.10158416285767E-02 
551	 0.061455326237121 
552	 6.18399988119228E-02 
553	 6.19967577882986E-02 
554	 6.21026492080216E-02 
555	 6.21691240299717E-02 
556	 0.062156881779095 
557	 6.22352040922261E-02 
558	 6.24210483502382E-02 
559	 6.25430256282622E-02 
560	 6.24851223495427E-02 
561	 6.21735677439077E-02 
562	 6.19334686625431E-02 
563	 6.18623229671875E-02 
564	 6.20570058274934E-02 
565	 6.21108969525208E-02 
566	 0.061855092358072 
567	 6.15156248223979E-02 
568	 6.11046734491001E-02 
569	 6.06115661383602E-02 
570	 6.02547892619282E-02 
571	 6.00381424815057E-02 
572	 5.97693403468554E-02 
573	 5.94104856610133E-02 
574	 5.89786557107721E-02 
575	 5.88963159781421E-02 
576	 5.88719642481109E-02 
577	 5.82571490764018E-02 
578	 5.78573980001616E-02 
579	 5.78054913651942E-02 
580	 5.74551870739353E-02 
581	 5.71506505742322E-02 
582	 5.71800424367492E-02 
583	 5.69873635238233E-02 
584	 0.056615799646199 
585	 5.64275450515943E-02 
586	 5.63227582818188E-02 
587	 5.62729658372953E-02 
588	 5.63239082156644E-02 
589	 5.62553411245927E-02 
590	 5.57918042645204E-02 
591	 0.05542019635185 
592	 5.52752120695938E-02 
593	 5.53209482496031E-02 
594	 5.53846541937127E-02 
595	 5.53323955468876E-02 
596	 5.50326923011353E-02 
597	 5.46994621651194E-02 
598	 5.47295393397324E-02 
599	 5.47380428797396E-02 
600	 5.46652887232522E-02 
601	 5.48374827289519E-02 
602	 5.48539265222171E-02 
603	 0.054405205326873 
604	 5.43208927682254E-02 
605	 5.44679410977699E-02 
606	 5.41038662341199E-02 
607	 5.37683911256107E-02 
608	 5.36325594824943E-02 
609	 5.33551052393591E-02 
610	 0.05315476132419 
611	 5.33291092527357E-02 
612	 5.28882859889165E-02 
613	 5.19694690555981E-02 
614	 5.18584740002451E-02 
615	 5.18709022501248E-02 
616	 5.16209258154267E-02 
617	 5.15916045323938E-02 
618	 5.15232722200076E-02 
619	 5.08466520005705E-02 
620	 5.04482942145911E-02 
621	 5.04916806676589E-02 
622	 5.04070557121245E-02 
623	 5.02793655761961E-02 
624	 5.02178586754753E-02 
625	 5.04630997954212E-02 
626	 5.08119603756354E-02 
627	 5.06756546949848E-02 
628	 5.02696552879652E-02 
629	 4.98039194591162E-02 
630	 4.99533575252974E-02 
631	 5.02805717856009E-02 
632	 5.01724462091297E-02 
633	 5.02528232238327E-02 
634	 5.04610125789273E-02 
635	 5.01949486480925E-02 
636	 4.96263775771372E-02 
637	 4.89297877202541E-02 
638	 4.86039427203488E-02 
639	 4.84313164344709E-02 
640	 4.78986609422825E-02 
641	 4.73555017925194E-02 
642	 4.68967042709069E-02 
643	 4.64511831198737E-02 
644	 4.59750093641502E-02 
645	 4.54313747046858E-02 
646	 4.49017093937534E-02 
647	 4.44218082523661E-02 
648	 4.40112984903421E-02 
649	 4.37724595239856E-02 
650	 4.37305713585686E-02 
651	 4.37954916234734E-02 
652	 4.37505732516599E-02 
653	 4.33600708381082E-02 
654	 4.29564012249217E-02 
655	 4.26852772124966E-02 
656	 4.27875714909028E-02 
657	 0.042814996981187 
658	 4.25000010934115E-02 
659	 0.042045909336288 
660	 4.15782288573609E-02 
661	 4.12449133661278E-02 
662	 4.09595027583361E-02 
663	 4.06831770442533E-02 
664	 0.040373720672767 
665	 4.00019601519416E-02 
666	 3.95638561739174E-02 
667	 3.92750068816561E-02 
668	 3.91452543261668E-02 
669	 0.03909596911956 
670	 3.91036239617699E-02 
671	 3.90894739635377E-02 
672	 3.87239519220759E-02 
673	 3.84350542147045E-02 
674	 3.87190736887076E-02 
675	 3.87487215539047E-02 
676	 3.85614426984681E-02 
677	 3.88654134593091E-02 
678	 3.92590364604383E-02 
679	 3.95154345127455E-02 
680	 0.039657003315051 
681	 3.97549815669337E-02 
682	 3.98945600894817E-02 
683	 4.05326553821472E-02 
684	 0.041649457049044 
685	 4.26219267471939E-02 
686	 4.36993448008459E-02 
687	 4.50927062959204E-02 
688	 4.65949002256243E-02 
689	 4.82108597368782E-02 
690	 5.03291236311248E-02 
691	 5.24500625583526E-02 
692	 5.45779369540746E-02 
693	 5.72098709041838E-02 
694	 6.02341470236485E-02 
695	 6.33559528849471E-02 
696	 6.64301880204159E-02 
697	 6.96599069436339E-02 
698	 7.39448043867492E-02 
699	 7.80367846927316E-02 
700	 8.14152860992802E-02 
701	 8.55215152778147E-02 
702	 8.98664079488726E-02 
703	 9.35816852424889E-02 
704	 9.75509488477556E-02 
705	 0.101928844551229 
706	 0.106318576113556 
707	 0.110623025718413 
708	 0.114756429954506 
709	 0.118733404465505 
710	 0.122582816149038 
711	 0.126378651829891 
712	 0.130104650858222 
713	 0.133746279993147 
714	 0.137371498864941 
715	 0.140801416350673 
716	 0.144028271796087 
717	 0.146812990760747 
718	 0.149672559706504 
719	 0.153850571002772 
720	 0.157593951180982 
721	 0.160149934849637 
722	 0.162500341682321 
723	 0.164938381433974 
724	 0.167516032875727 
725	 0.169766439938736 
726	 0.171610875635353 
727	 0.173791373924224 
728	 0.175915729032211 
729	 0.177774512838757 
730	 0.179341669783918 
731	 0.180792932479432 
732	 0.182353278594167 
733	 0.183845949494195 
734	 0.185231422249738 
735	 0.18637419492882 
736	 0.187556593434031 
737	 0.188885637081096 
738	 0.189958095667462 
739	 0.190828530194306 
740	 0.191713508758063 
741	 0.192324124839154 
742	 0.192772604118194 
743	 0.193853090272141 
744	 0.195006455427525 
745	 0.195760681929367 
746	 0.196493594055945 
747	 0.197159944624616 
748	 0.197460228556642 
749	 0.198046975477655 
750	 0.198995774222728 
751	 0.19927554834365 
752	 0.199511139943031 
753	 0.200400821132624 
754	 0.200889240020369 
755	 0.201050168416427 
756	 0.201727972085237 
757	 0.202397477482373 
758	 0.202865697654932 
759	 0.203196198659188 
760	 0.203625476986115 
761	 0.204285097084426 
762	 0.204462001877101 
763	 0.204420033722219 
764	 0.20507927100215 
765	 0.205966254049894 
766	 0.206743404939931 
767	 0.206971816584759 
768	 0.207030982014739 
769	 0.207329844011165 
770	 0.207981118827979 
771	 0.208802462286048 
772	 0.209054848626259 
773	 0.209073184829221 
774	 0.209139286769492 
775	 0.209608831348117 
776	 0.210212616430954 
777	 0.210353942556549 
778	 0.210777858159323 
779	 0.211498796239665 
780	 0.211617487058375 
781	 0.211655432846599 
782	 0.212054209761381 
783	 0.212708824808335 
784	 0.21337681372916 
785	 0.213591748877386 
786	 0.213740115399251 
787	 0.213949531746083 
788	 0.214134411074469 
789	 0.214388972756304 
790	 0.214770970564127 
791	 0.214819422569793 
792	 0.214751646250515 
793	 0.215335525990633 
794	 0.215744050445557 
795	 0.215719467952545 
796	 0.215514220404524 
797	 0.215641895321864 
798	 0.216540046812361 
799	 0.217217536679061 
800	 0.217471759376736 
801	 0.217303174283569 
802	 0.217236724362797 
803	 0.217547636578193 
804	 0.218282166663771 
805	 0.218988865740547 
806	 0.219208070141697 
807	 0.219341387209638 
808	 0.219568480794538 
809	 0.220125928960875 
810	 0.220829438839007 
811	 0.22143403906524 
812	 0.221058597624373 
813	 0.220350648339922 
814	 0.220299377884422 
815	 0.220759573770595 
816	 0.221469680330558 
817	 0.22151734938934 
818	 0.222310908906602 
819	 0.224072744921696 
820	 0.224782281622321 
821	 0.224583418660607 
822	 0.223836562807232 
823	 0.223915259029977 
824	 0.22487314919198 
825	 0.225862827843559 
826	 0.22657974926087 
827	 0.226749435462777 
828	 0.225637520961343 
829	 0.224738904856185 
830	 0.2258736256249 
831	 0.226605619161401 
832	 0.22667856908702 
833	 0.227009423704203 
834	 0.227510291506868 
835	 0.228012620760584 
836	 0.227638561134389 
837	 0.227271714704016 
838	 0.22795097539835 
839	 0.228878937299093 
840	 0.229643312573122 
841	 0.229575516843016 
842	 0.229730879465241 
843	 0.230353900214836 
844	 0.229984603481919 
845	 0.229375548982674 
846	 0.229497910900985 
847	 0.230365350285971 
848	 0.231234355880831 
849	 0.229843749623308 
850	 0.229266757257774 
851	 0.230471692616613 
852	 0.230919649402773 
853	 0.230763007429311 
854	 0.230414458894286 
855	 0.230167328894812 
856	 0.230168804853195 
857	 0.230497116089728 
858	 0.231191684381866 
859	 0.232017122863784 
860	 0.231848936826147 
861	 0.231603088219216 
862	 0.232125461205437 
863	 0.231832239533366 
864	 0.231230599430025 
865	 0.232268189764255 
866	 0.232535871371069 
867	 0.231757344680789 
868	 0.232658360256456 
869	 0.233957685689475 
870	 0.234553459845842 
871	 0.235408928862458 
872	 0.235938336371892 
873	 0.234714886495814 
874	 0.23420592906695 
875	 0.235011402019786 
876	 0.236066443833482 
877	 0.236958543593573 
878	 0.237392276367745 
879	 0.237561550896486 
880	 0.237813625645551 
881	 0.238624236576345 
882	 0.240074245886678 
883	 0.24161418685173 
884	 0.241430383822011 
885	 0.24083783643076 
886	 0.240747889787587 
887	 0.241662672861508 
888	 0.24293551950666 
889	 0.24362641657565 
890	 0.244016961127796 
891	 0.243912687662216 
892	 0.24222673443821 
893	 0.242405194509163 
894	 0.245349681890411 
895	 0.244923732041663 
896	 0.242980790570638 
897	 0.242491314977363 
898	 0.242729192347476 
899	 0.243718516425215 
900	 0.245842483050703 
901	 0.246554423428153 
902	 0.245497067130973 
903	 0.245397477439038 
904	 0.24545919363116 
905	 0.245116351509145 
906	 0.245701715344116 
907	 0.246605046455936 
908	 0.246446338272786 
909	 0.245940590143045 
910	 0.245252902932485 
911	 0.244094246457467 
912	 0.2436464505608 
913	 0.244413959785167 
914	 0.244757245605684 
915	 0.244699776761714 
916	 0.244503748409419 
917	 0.243782307710624 
918	 0.24320961558969 
919	 0.244723953958361 
920	 0.246134681219225 
921	 0.246515385808382 
922	 0.24572588243754 
923	 0.244406961662729 
924	 0.243241572178677 
925	 0.24332645877977 
926	 0.243563719473484 
927	 0.241073761750212 
928	 0.237563190822678 
929	 0.234386247981925 
930	 0.235299933242435 
931	 0.233973681898932 
932	 0.226380581218388 
933	 0.228670276309534 
934	 0.234407593909548 
935	 0.230106048634265 
936	 0.230088473112681 
937	 0.234379969976493 
938	 0.235222334759433 
939	 0.229858645768012 
940	 0.220296295914697 
941	 0.2190969909205 
942	 0.220875923592923 
943	 0.220968180395458 
944	 0.21708076598186 
945	 0.212995732503767 
946	 0.214992061538375 
947	 0.215254821030344 
948	 0.213365639350448 
949	 0.216188473063023 
950	 0.210122865507762 
951	 0.194620547896254 
952	 0.200096044351178 
953	 0.20747990235089 
954	 0.199381696934752 
955	 0.198670914816132 
956	 0.202751277721089 
957	 0.201017345811037 
958	 0.195903417995052 
959	 0.190107705204289 
960	 0.189647998728073 
961	 0.189370426188474 
962	 0.187654930645322 
963	 0.189805256757745 
964	 0.193708554551669 
965	 0.196773206429183 
966	 0.194151811224972 
967	 0.189473597684863 
968	 0.191113659620056 
969	 0.193995481042931 
970	 0.195836118297856 
971	 0.193798524293095 
972	 0.19153575740869 
973	 0.191227883976809 
974	 0.192453438840241 
975	 0.194043204560248 
976	 0.194642382167508 
977	 0.192466565911196 
978	 0.189214630045495 
979	 0.189122249192446 
980	 0.189234762108646 
981	 0.189445296863999 
982	 0.192650562419325 
983	 0.195421917563357 
984	 0.195850128237283 
985	 0.194709790229714 
986	 0.193912961221211 
987	 0.195427041400547 
988	 0.199287961705041 
989	 0.202816809574634 
990	 0.200819967456656 
991	 0.198436142529079 
992	 0.197727946593405 
993	 0.199897514834498 
994	 0.202162071045736 
995	 0.203058907829303 
996	 0.203907281194174 
997	 0.202781125213006 
998	 0.198624651040747 
999	 0.20101302170431 
1000	 0.205943546915891 
1001	 0.203622596956033 
1002	 0.207754792631395 
1003	 0.216068129411173 
1004	 0.210120737218758 
1005	 0.204776028596972 
1006	 0.206660882002718 
1007	 0.215039648702961 
1008	 0.219510408260345 
1009	 0.213474160409023 
1010	 0.212864624918369 
1011	 0.214180945189879 
1012	 0.209991849893836 
1013	 0.213409493389983 
1014	 0.222005708331075 
1015	 0.223550763137527 
1016	 0.22083214675921 
1017	 0.216612003384927 
1018	 0.219327212214335 
1019	 0.220162868009438 
1020	 0.216258849201986 
1021	 0.223301562958927 
1022	 0.229285090071606 
1023	 0.222642783969898 
1024	 0.224956407928002 
1025	 0.230737458987666 
1026	 0.225443247173488 
1027	 0.22152627988394 
1028	 0.221672282755009 
1029	 0.224230042023968 
1030	 0.225741312920641 
1031	 0.225610308133119 
1032	 0.228592325586431 
1033	 0.230140870997586 
1034	 0.228815767127028 
1035	 0.236882071108908 
1036	 0.240296403522667 
1037	 0.225889214596617 
1038	 0.227670166147798 
1039	 0.240237124528522 
1040	 0.244249700384961 
1041	 0.241914374752052 
1042	 0.235552684718372 
1043	 0.230996962816619 
1044	 0.23589619578935 
1045	 0.248880490120315 
1046	 0.251017317237187 
1047	 0.250200711650819 
1048	 0.249812092728576 
1049	 0.238891148090358 
1050	 0.230833009101382 
1051	 0.236942615145967 
1052	 0.230261031581635 
1053	 0.224639253149946 
1054	 0.246223317723126 
1055	 0.256136184519418 
1056	 0.249422608446549 
1057	 0.235261256099534 
1058	 0.223585777704397 
1059	 0.221742249373065 
1060	 0.245041945225144 
1061	 0.256945611276488 
1062	 0.246848775125218 
1063	 0.255791237155595 
1064	 0.254215610348777 
1065	 0.225090309139079 
1066	 0.204080011290785 
1067	 0.205681631170105 
1068	 0.240365378620266 
1069	 0.26341868344528 
1070	 0.260349959481801 
1071	 0.226944702682051 
1072	 0.247531387466406 
1073	 0.294892213248036 
1074	 0.240710034914306 
1075	 0.224488013372937 
