Wavelength	AVEI200008.asd
325	 2.91036727542717E-02 
326	 2.98361769626944E-02 
327	 3.66816937839221E-02 
328	 3.72258622337198E-02 
329	 3.56188192721578E-02 
330	 3.40967756598931E-02 
331	 3.58792922649304E-02 
332	 3.73210289044186E-02 
333	 3.50116477439048E-02 
334	 3.21530222145351E-02 
335	 3.02148197317696E-02 
336	 3.09631103174035E-02 
337	 3.30662972047488E-02 
338	 3.49927725554445E-02 
339	 3.22639774505816E-02 
340	 0.030301010922225 
341	 3.31486587987298E-02 
342	 3.30820281925684E-02 
343	 3.14633203810484E-02 
344	 0.033348996012378 
345	 3.29592514232994E-02 
346	 0.030340183082712 
347	 3.16327444899603E-02 
348	 0.033266582151654 
349	 3.29049640863235E-02 
350	 0.033511937518829 
351	 3.35866926981358E-02 
352	 3.00044377046062E-02 
353	 3.00473882545885E-02 
354	 3.34089264632812E-02 
355	 3.22026509316483E-02 
356	 3.01761676550245E-02 
357	 2.97214596557478E-02 
358	 3.01028576205325E-02 
359	 3.08761026902568E-02 
360	 3.14946705983894E-02 
361	 3.19675151031655E-02 
362	 3.23032187531924E-02 
363	 3.25967231014046E-02 
364	 3.29983507454671E-02 
365	 3.33351333750298E-02 
366	 3.19028161912723E-02 
367	 3.01489955070266E-02 
368	 3.01463929554718E-02 
369	 3.01031460101895E-02 
370	 2.99688271602487E-02 
371	 3.10924484875055E-02 
372	 3.17698052936475E-02 
373	 3.10749853936053E-02 
374	 2.93957134377178E-02 
375	 2.85657877156939E-02 
376	 3.08776870180141E-02 
377	 3.21235047228868E-02 
378	 3.16375224315385E-02 
379	 3.09389592393712E-02 
380	 3.05302299901895E-02 
381	 3.07574773751919E-02 
382	 3.15509207922189E-02 
383	 0.032192038185242 
384	 3.17997731389225E-02 
385	 0.031702292673207 
386	 3.22135158095081E-02 
387	 3.35820939653514E-02 
388	 3.28603768575282E-02 
389	 2.95788474989724E-02 
390	 2.94581675566547E-02 
391	 3.05487017718692E-02 
392	 3.00237088207688E-02 
393	 2.93947259423149E-02 
394	 2.91462127485612E-02 
395	 2.98320632130858E-02 
396	 3.02674967297132E-02 
397	 3.01044630676595E-02 
398	 3.07314827644744E-02 
399	 3.08735680723508E-02 
400	 2.92524648266455E-02 
401	 2.89314651835261E-02 
402	 2.97158381267152E-02 
403	 2.97107904212846E-02 
404	 2.97921485216251E-02 
405	 3.01302116749052E-02 
406	 0.029621910952621 
407	 2.89333328292592E-02 
408	 2.89685400655551E-02 
409	 2.89557638107682E-02 
410	 2.88875626467559E-02 
411	 2.92717313433212E-02 
412	 2.95300618119637E-02 
413	 0.02945762016671 
414	 2.96754037225186E-02 
415	 0.029897803890752 
416	 2.96931558218087E-02 
417	 2.94297876044021E-02 
418	 2.93154304907784E-02 
419	 2.96974784691338E-02 
420	 3.00906246947143E-02 
421	 3.01594254735677E-02 
422	 2.95843132988049E-02 
423	 2.89940537817676E-02 
424	 2.93228693927674E-02 
425	 2.96778907473731E-02 
426	 2.97710659564716E-02 
427	 2.94341467617826E-02 
428	 2.92570465261816E-02 
429	 2.95616879107864E-02 
430	 2.95399070055293E-02 
431	 2.94460229443792E-02 
432	 0.029896789474435 
433	 3.00475882574438E-02 
434	 2.97573283240753E-02 
435	 2.93865960285899E-02 
436	 2.91409947531314E-02 
437	 2.91580887610415E-02 
438	 2.94295463183607E-02 
439	 2.97075386998505E-02 
440	 2.95235087538006E-02 
441	 2.97037055506761E-02 
442	 3.02925063355608E-02 
443	 3.04081336535659E-02 
444	 3.02180276486617E-02 
445	 2.99337901914373E-02 
446	 3.00446756030729E-02 
447	 3.03829044593295E-02 
448	 3.03576519622317E-02 
449	 3.04925154514107E-02 
450	 3.08131413262227E-02 
451	 3.05582956690226E-02 
452	 3.03342989323346E-02 
453	 3.07464302776803E-02 
454	 3.10637228005699E-02 
455	 3.11020048453219E-02 
456	 3.07260844495255E-02 
457	 3.06143466768354E-02 
458	 3.10183158499602E-02 
459	 3.15014891728971E-02 
460	 3.17738244150773E-02 
461	 3.15624374539121E-02 
462	 3.15804472751534E-02 
463	 3.17857167876582E-02 
464	 3.14527587250756E-02 
465	 0.03128358556773 
466	 3.15952052880774E-02 
467	 3.18995397552978E-02 
468	 3.19341995674752E-02 
469	 3.14086107583872E-02 
470	 0.031340954425826 
471	 3.17605914514817E-02 
472	 3.17176449880888E-02 
473	 0.031582551673065 
474	 3.16283103750844E-02 
475	 3.20847950340866E-02 
476	 3.25399217216315E-02 
477	 3.22256577892118E-02 
478	 3.19722646647767E-02 
479	 3.20260688397971E-02 
480	 3.22975868081122E-02 
481	 3.24392468372121E-02 
482	 3.22128050327433E-02 
483	 3.22526453310433E-02 
484	 3.24934657840853E-02 
485	 3.24800717217848E-02 
486	 3.26841455064811E-02 
487	 3.31496187850492E-02 
488	 3.32443363138103E-02 
489	 0.033088467419459 
490	 3.28740000609689E-02 
491	 3.28715691083271E-02 
492	 3.30681102415726E-02 
493	 3.32693206738906E-02 
494	 3.34096897371155E-02 
495	 3.34487724601002E-02 
496	 3.34051098272877E-02 
497	 3.33891345538183E-02 
498	 3.35345073297663E-02 
499	 3.37338811581236E-02 
500	 3.39749761680788E-02 
501	 3.43580841788807E-02 
502	 3.45490163296219E-02 
503	 3.44038246362328E-02 
504	 0.034523115925122 
505	 3.47645007206329E-02 
506	 3.47526345778881E-02 
507	 3.47478102691954E-02 
508	 3.48794096902402E-02 
509	 3.53688634782829E-02 
510	 3.57790999407991E-02 
511	 3.57977767828794E-02 
512	 3.61117398494163E-02 
513	 3.65071973493973E-02 
514	 3.61872367010602E-02 
515	 3.59705319566949E-02 
516	 3.62066928513031E-02 
517	 0.037015978804983 
518	 3.76714946553938E-02 
519	 3.74207352891155E-02 
520	 3.72273855968168E-02 
521	 3.73253002931625E-02 
522	 3.77364594630964E-02 
523	 0.0381536894844 
524	 3.84108733863789E-02 
525	 3.85178898527925E-02 
526	 3.85566103171357E-02 
527	 3.86323687285841E-02 
528	 3.89537881382404E-02 
529	 3.94240784595927E-02 
530	 0.039522656302886 
531	 3.96070945192373E-02 
532	 3.99076465769858E-02 
533	 4.01994220563146E-02 
534	 0.040455451055188 
535	 4.07038110594752E-02 
536	 4.07824579207144E-02 
537	 4.07639209273322E-02 
538	 4.12508418883063E-02 
539	 4.16604237645436E-02 
540	 4.14440429012604E-02 
541	 0.041492499889535 
542	 4.18522289780482E-02 
543	 4.21547114937986E-02 
544	 4.24304351240379E-02 
545	 4.26802201754636E-02 
546	 4.29723396761848E-02 
547	 4.31308422816965E-02 
548	 4.29241694876877E-02 
549	 4.28875590046695E-02 
550	 4.31254603665184E-02 
551	 0.043485254691689 
552	 4.37692720258845E-02 
553	 4.38592330673177E-02 
554	 4.39534946928669E-02 
555	 4.41021462434541E-02 
556	 4.43405412770913E-02 
557	 4.46176985423951E-02 
558	 4.48300419241379E-02 
559	 4.46271548199331E-02 
560	 4.43898551506719E-02 
561	 4.44965672010579E-02 
562	 4.50178294099616E-02 
563	 4.56477192407444E-02 
564	 4.55789217669193E-02 
565	 4.54948309568818E-02 
566	 4.56535371575541E-02 
567	 4.58099923148943E-02 
568	 4.58927096430301E-02 
569	 4.58378760098659E-02 
570	 4.57244435227958E-02 
571	 4.56499862421729E-02 
572	 4.58307117642009E-02 
573	 4.60741939467966E-02 
574	 4.62483194608655E-02 
575	 4.63373008921405E-02 
576	 4.63718473668819E-02 
577	 4.64147891445734E-02 
578	 4.64521917488482E-02 
579	 4.65222475535079E-02 
580	 0.046778846619842 
581	 4.70545704523125E-02 
582	 4.72008426571897E-02 
583	 4.73799641785188E-02 
584	 4.74919974633569E-02 
585	 4.71550465652945E-02 
586	 4.70636044344228E-02 
587	 4.74097073386123E-02 
588	 4.73871750827766E-02 
589	 4.72793468137608E-02 
590	 4.75496501112885E-02 
591	 4.76858497188213E-02 
592	 4.77208848547675E-02 
593	 4.82337668393628E-02 
594	 4.85218597226398E-02 
595	 4.82369310007717E-02 
596	 4.81148192679849E-02 
597	 4.82434825299152E-02 
598	 4.86097502849228E-02 
599	 4.87491139324313E-02 
600	 4.86285344551239E-02 
601	 4.88582549091088E-02 
602	 0.049053602568569 
603	 4.89021051687174E-02 
604	 4.91698822753697E-02 
605	 4.96678449303108E-02 
606	 4.95598927122291E-02 
607	 4.95131976328877E-02 
608	 0.049736894815224 
609	 4.98631666544501E-02 
610	 4.97397318314221E-02 
611	 4.92306597280416E-02 
612	 4.93157837200226E-02 
613	 4.99346252013922E-02 
614	 5.00255459942308E-02 
615	 4.99775051773166E-02 
616	 5.00134815393407E-02 
617	 5.00016890096554E-02 
618	 4.99294249237344E-02 
619	 4.97788478260958E-02 
620	 4.98064368659367E-02 
621	 5.00266967357917E-02 
622	 5.01305482024132E-02 
623	 5.01826520007215E-02 
624	 0.050246247593642 
625	 5.02153490432401E-02 
626	 5.02240962174566E-02 
627	 5.07102013472159E-02 
628	 5.09436643828661E-02 
629	 5.07325524624155E-02 
630	 5.09102532507861E-02 
631	 5.11833936326826E-02 
632	 5.11044256056174E-02 
633	 5.11677183693581E-02 
634	 0.051434988315932 
635	 5.16963277182988E-02 
636	 0.052044606464978 
637	 5.24507186437924E-02 
638	 5.22784373507051E-02 
639	 5.19268914246758E-02 
640	 5.22330987027757E-02 
641	 5.26884905436661E-02 
642	 5.30359675957193E-02 
643	 5.29075252310894E-02 
644	 5.27291833254981E-02 
645	 5.28858375676225E-02 
646	 5.31473594152387E-02 
647	 5.34151124457404E-02 
648	 5.35369389469883E-02 
649	 5.36978181072223E-02 
650	 5.38973110038634E-02 
651	 5.37484771776172E-02 
652	 5.34057131009291E-02 
653	 5.30893754203907E-02 
654	 5.31082674758582E-02 
655	 5.34320080274151E-02 
656	 5.36633167911614E-02 
657	 5.36474728050513E-02 
658	 5.33260021123059E-02 
659	 5.29481390893943E-02 
660	 5.26907105770998E-02 
661	 5.27858115992133E-02 
662	 5.27255848434049E-02 
663	 5.24153334309833E-02 
664	 5.21938942248902E-02 
665	 5.18619776711953E-02 
666	 5.12801884024218E-02 
667	 5.09232612792824E-02 
668	 5.07198010281729E-02 
669	 5.01966564407645E-02 
670	 5.01108028409618E-02 
671	 5.05750579440325E-02 
672	 5.05617804594486E-02 
673	 5.03468459528672E-02 
674	 5.03418845515184E-02 
675	 5.03804968140273E-02 
676	 5.04554171467512E-02 
677	 5.05907739680411E-02 
678	 5.09435856576288E-02 
679	 5.15213154351445E-02 
680	 5.17071787540452E-02 
681	 5.18264935385151E-02 
682	 5.25077877261392E-02 
683	 5.32609632813887E-02 
684	 0.053932471806706 
685	 5.45060770755314E-02 
686	 5.52871662757265E-02 
687	 5.65117164632766E-02 
688	 5.74413610340958E-02 
689	 5.82248889282056E-02 
690	 5.97416541780868E-02 
691	 6.11272475615509E-02 
692	 6.22139058010693E-02 
693	 6.34193650904603E-02 
694	 6.46439149911911E-02 
695	 6.57112612800606E-02 
696	 6.68829417903949E-02 
697	 0.068160212326567 
698	 0.069503920545729 
699	 7.06727084193403E-02 
700	 7.15883468601167E-02 
701	 7.27530202616233E-02 
702	 7.41290850175324E-02 
703	 7.55979409994871E-02 
704	 7.62219418951739E-02 
705	 7.62838762046077E-02 
706	 7.75230477490548E-02 
707	 7.87750095844945E-02 
708	 7.93560489280351E-02 
709	 8.02984234032028E-02 
710	 8.14405859718125E-02 
711	 8.22455476764429E-02 
712	 8.29106102340463E-02 
713	 8.35220274780472E-02 
714	 8.42585227455704E-02 
715	 8.48961870661097E-02 
716	 8.52436037536155E-02 
717	 8.53648294969721E-02 
718	 8.54896269665516E-02 
719	 8.61834871126408E-02 
720	 8.72064525905558E-02 
721	 8.82183509549756E-02 
722	 8.87887096232559E-02 
723	 8.91411922765994E-02 
724	 8.94786878556672E-02 
725	 0.090135450885204 
726	 9.10584264913747E-02 
727	 9.20336251117781E-02 
728	 9.25193914957684E-02 
729	 9.23667051349686E-02 
730	 9.25985337329477E-02 
731	 9.32617716292981E-02 
732	 9.42233618878455E-02 
733	 9.46990622981856E-02 
734	 9.47587874849906E-02 
735	 9.52049270683177E-02 
736	 9.58674566610707E-02 
737	 9.66034058612106E-02 
738	 9.73654075145757E-02 
739	 9.79731062314239E-02 
740	 9.80943928953414E-02 
741	 0.098552001440204 
742	 9.94753767337181E-02 
743	 0.100295424475151 
744	 0.100705202566469 
745	 0.100551277539516 
746	 0.100994073021998 
747	 0.101848577613286 
748	 0.102160947790422 
749	 0.10244012423352 
750	 0.102815634276091 
751	 0.103024208599016 
752	 0.103334397302114 
753	 0.104023297123712 
754	 0.10457121402647 
755	 0.10493746296021 
756	 0.105373682655367 
757	 0.105677130759371 
758	 0.105761579339917 
759	 0.105472834009101 
760	 0.105111611048053 
761	 0.106034785290427 
762	 0.106663888516448 
763	 0.106805476083376 
764	 0.107590596333851 
765	 0.108232464713138 
766	 0.108528658466721 
767	 0.109020511353026 
768	 0.109610638980452 
769	 0.110159524050583 
770	 0.11045695249081 
771	 0.110687536202249 
772	 0.111764987461607 
773	 0.112694367784945 
774	 0.112860165245605 
775	 0.113209348527759 
776	 0.113629059540951 
777	 0.11365541397146 
778	 0.113919749362972 
779	 0.114468908687295 
780	 0.114584588840044 
781	 0.114891568656208 
782	 0.115819204060438 
783	 0.116314064957634 
784	 0.116417029474908 
785	 0.116573763075243 
786	 0.116943897491726 
787	 0.117520473339042 
788	 0.117857863280877 
789	 0.11809660757881 
790	 0.118407192894976 
791	 0.119031715730608 
792	 0.11973332316002 
793	 0.119804532275573 
794	 0.120095845915 
795	 0.120758438382379 
796	 0.120831296381004 
797	 0.121034868772073 
798	 0.122056939499158 
799	 0.122173830648 
800	 0.121685385566205 
801	 0.122313712414339 
802	 0.123005267984281 
803	 0.123439611704383 
804	 0.12420022159159 
805	 0.124874341434349 
806	 0.125015193958427 
807	 0.125227691251733 
808	 0.12552645130867 
809	 0.125490156815536 
810	 0.125828732807985 
811	 0.12667360688411 
812	 0.126631578149448 
813	 0.126496953274107 
814	 0.127444901029703 
815	 0.127226628383218 
816	 0.126207483699965 
817	 0.127409165837374 
818	 0.128864569669602 
819	 0.129672284913684 
820	 0.130214871967215 
821	 0.130587767535758 
822	 0.130860853318617 
823	 0.130893694984699 
824	 0.130956651431413 
825	 0.131892746170461 
826	 0.132624244716252 
827	 0.132731124553499 
828	 0.132511894436293 
829	 0.132571610447312 
830	 0.133557908742997 
831	 0.134044164040789 
832	 0.134039357620577 
833	 0.134450926921075 
834	 0.135355502183151 
835	 0.136586753324227 
836	 0.13701161675586 
837	 0.137016442556132 
838	 0.137155265961198 
839	 0.137552440750891 
840	 0.138117129270408 
841	 0.138543733509904 
842	 0.138491854027345 
843	 0.138026749111783 
844	 0.138353265513491 
845	 0.139348021315857 
846	 0.140673495948995 
847	 0.140553217634924 
848	 0.139373445934338 
849	 0.139323294731157 
850	 0.139711934298023 
851	 0.140234407196769 
852	 0.140552064128382 
853	 0.14060389671571 
854	 0.140392607887014 
855	 0.1400897410937 
856	 0.140182774083195 
857	 0.141882250224033 
858	 0.142751327685255 
859	 0.142296068201544 
860	 0.142839054278433 
861	 0.143290536222777 
862	 0.142598196764471 
863	 0.142469560998166 
864	 0.142871064987266 
865	 0.142939216582199 
866	 0.142965739645618 
867	 0.143184965239611 
868	 0.144269579210433 
869	 0.145299608981493 
870	 0.145567718198367 
871	 0.146044148517275 
872	 0.1468320471867 
873	 0.147859786180811 
874	 0.148416121451189 
875	 0.148395140993966 
876	 0.148233018697187 
877	 0.148928629156652 
878	 0.150944325891573 
879	 0.152068324022418 
880	 0.15220616798595 
881	 0.151755102778287 
882	 0.152128427380221 
883	 0.153391092957142 
884	 0.154201219074742 
885	 0.154540559781854 
886	 0.154533894238599 
887	 0.155160513923824 
888	 0.156327371564713 
889	 0.157728508200913 
890	 0.157897513001251 
891	 0.157282698171728 
892	 0.158744964896292 
893	 0.159152704361407 
894	 0.157430473429427 
895	 0.157078955553409 
896	 0.157582973224766 
897	 0.157889024554803 
898	 0.157121776875596 
899	 0.156324452605 
900	 0.158710415288283 
901	 0.159678660789463 
902	 0.158424756503133 
903	 0.158650823264859 
904	 0.159906569712766 
905	 0.161538401262257 
906	 0.161872733532943 
907	 0.161164503371186 
908	 0.160337607413073 
909	 0.160390794693264 
910	 0.161227417304789 
911	 0.160921711421588 
912	 0.160843064777133 
913	 0.161675768857269 
914	 0.162388488269538 
915	 0.162574824701992 
916	 0.161936946377267 
917	 0.161328520459259 
918	 0.161281840884736 
919	 0.162627094669928 
920	 0.163843510238533 
921	 0.16437071300519 
922	 0.164578335294581 
923	 0.16487305781698 
924	 0.16556837079676 
925	 0.166006980010333 
926	 0.166025332222909 
927	 0.165507998374525 
928	 0.16534531826148 
929	 0.165615525741138 
930	 0.165581229573648 
931	 0.160396698878307 
932	 0.14791614125193 
933	 0.14773282951108 
934	 0.153746205263632 
935	 0.150891982941642 
936	 0.144801890499191 
937	 0.141224955987567 
938	 0.1530590636652 
939	 0.154493486995593 
940	 0.142870292521871 
941	 0.144497745562393 
942	 0.152274022130348 
943	 0.15895615807879 
944	 0.15571779907734 
945	 0.148485555549218 
946	 0.148687265942739 
947	 0.148561518129735 
948	 0.147170745379123 
949	 0.147829480590612 
950	 0.146658848063324 
951	 0.143774384569235 
952	 0.149679786542203 
953	 0.153703569954399 
954	 0.147024703621623 
955	 0.142526324898493 
956	 0.141810411895718 
957	 0.143605932604258 
958	 0.146241579230763 
959	 0.148028516256314 
960	 0.145862118987797 
961	 0.144874886537146 
962	 0.146606535505572 
963	 0.145143148034348 
964	 0.143299482489184 
965	 0.143801345953373 
966	 0.139959485929198 
967	 0.136746431876259 
968	 0.145839060481642 
969	 0.147362371761911 
970	 0.141156506664299 
971	 0.148912656039572 
972	 0.153151101597282 
973	 0.147200980472083 
974	 0.153220742627205 
975	 0.16078012761579 
976	 0.156835007144989 
977	 0.150119625818398 
978	 0.145471735394421 
979	 0.149104544771654 
980	 0.150832890934522 
981	 0.149063062234084 
982	 0.150507507193853 
983	 0.151250823513194 
984	 0.150025689834087 
985	 0.153132726058339 
986	 0.155121326488949 
987	 0.150460189783808 
988	 0.150347996885287 
989	 0.153511747590387 
990	 0.153277439989198 
991	 0.155249466618971 
992	 0.158743009227122 
993	 0.155428835444411 
994	 0.155639924507544 
995	 0.162582583133788 
996	 0.161976437570902 
997	 0.160008388403755 
998	 0.163374799899546 
999	 0.167048231012225 
1000	 0.166936162062318 
1001	 0.157561158244815 
1002	 0.161113946148512 
1003	 0.174700733998771 
1004	 0.169381104414011 
1005	 0.162010537919078 
1006	 0.159723728236189 
1007	 0.160940010849428 
1008	 0.165781921165077 
1009	 0.172430281064497 
1010	 0.170419345778619 
1011	 0.162067159133565 
1012	 0.153111516569478 
1013	 0.155168653595928 
1014	 0.164955274063615 
1015	 0.167583526659479 
1016	 0.169195261120978 
1017	 0.170191834274188 
1018	 0.16555519679629 
1019	 0.161434349775177 
1020	 0.162287233572998 
1021	 0.171026851819157 
1022	 0.176733711229012 
1023	 0.170448708558812 
1024	 0.174482779505706 
1025	 0.18231611667277 
1026	 0.177488282505918 
1027	 0.169133597235747 
1028	 0.163414499380737 
1029	 0.173163693044862 
1030	 0.173982581425444 
1031	 0.164391561848398 
1032	 0.180336405071181 
1033	 0.189948002590531 
1034	 0.177299808748791 
1035	 0.177741515384495 
1036	 0.180934702859593 
1037	 0.173981387926115 
1038	 0.183329379355145 
1039	 0.192160580731855 
1040	 0.167180016025321 
1041	 0.1562596320398 
1042	 0.166937830971864 
1043	 0.180421452116795 
1044	 0.184484515657482 
1045	 0.175782093231781 
1046	 0.164685243464157 
1047	 0.16449712482742 
1048	 0.17962970567418 
1049	 0.182258784452518 
1050	 0.177150685212644 
1051	 0.172742791925126 
1052	 0.177184384592589 
1053	 0.187088850606856 
1054	 0.195614920651851 
1055	 0.190145587135714 
1056	 0.169281200395097 
1057	 0.138536900332105 
1058	 0.138291141608393 
1059	 0.166538493667278 
1060	 0.166382395754574 
1061	 0.173811692750364 
1062	 0.197067017995003 
1063	 0.193744756658351 
1064	 0.179774595983049 
1065	 0.171425521344015 
1066	 0.178035900971574 
1067	 0.195333376714674 
1068	 0.21252909677352 
1069	 0.206378375574506 
1070	 0.190545950686619 
1071	 0.196184340413064 
1072	 0.176201425214662 
1073	 0.145000006294605 
1074	 0.173797234773191 
1075	 0.173205169180457 
