Wavelength	AVEI200283.asd
325	 3.95428587892817E-02 
326	 4.07137354242147E-02 
327	 2.32536953653494E-02 
328	 2.32725552553562E-02 
329	 2.99325389718251E-02 
330	 3.75626200123369E-02 
331	 3.99022748065359E-02 
332	 3.91216404280804E-02 
333	 3.76823168642575E-02 
334	 3.24370381905073E-02 
335	 2.66727847336038E-02 
336	 2.89895630511926E-02 
337	 2.91000715538039E-02 
338	 2.64158560928104E-02 
339	 3.40871407496437E-02 
340	 4.03673459101947E-02 
341	 3.65278684399399E-02 
342	 3.76779368271365E-02 
343	 0.039515952362095 
344	 2.87768949718726E-02 
345	 2.51091261261026E-02 
346	 3.02663273861956E-02 
347	 2.97136528544848E-02 
348	 0.027205246285952 
349	 2.56516655573236E-02 
350	 0.025054546618792 
351	 2.61397887715664E-02 
352	 3.01127728384806E-02 
353	 3.17222282776326E-02 
354	 0.030757788109856 
355	 3.20245341556709E-02 
356	 3.19861480208287E-02 
357	 2.90652128599461E-02 
358	 2.81644582210437E-02 
359	 2.86658438960667E-02 
360	 2.87308985232876E-02 
361	 2.93301656689948E-02 
362	 3.02018315509158E-02 
363	 2.99085179432834E-02 
364	 2.98179365916499E-02 
365	 0.030473477038876 
366	 3.04020839729547E-02 
367	 2.96639079101315E-02 
368	 2.85306371554928E-02 
369	 2.72700566237891E-02 
370	 2.64802056671902E-02 
371	 2.75959500336547E-02 
372	 2.91906236717484E-02 
373	 3.01403437347704E-02 
374	 2.88286204652566E-02 
375	 2.70998733618967E-02 
376	 2.76248502537257E-02 
377	 2.84527185183296E-02 
378	 2.87188177390453E-02 
379	 2.72438684798381E-02 
380	 2.58756333668697E-02 
381	 2.56783232616867E-02 
382	 2.66789642749717E-02 
383	 2.73718763892638E-02 
384	 2.59113680677101E-02 
385	 2.58698622411712E-02 
386	 2.72725920877663E-02 
387	 0.027490796119346 
388	 2.71025683828733E-02 
389	 2.65184334091367E-02 
390	 2.67394065929565E-02 
391	 2.66329728172971E-02 
392	 2.48686637108931E-02 
393	 2.43337339320228E-02 
394	 2.52107460438401E-02 
395	 2.63016371047326E-02 
396	 2.65062792296889E-02 
397	 2.58142146129977E-02 
398	 2.73087612050994E-02 
399	 2.84381295177503E-02 
400	 2.65736784510995E-02 
401	 2.52424726400464E-02 
402	 2.48812616934204E-02 
403	 2.47927777868409E-02 
404	 2.50407368788348E-02 
405	 2.55245220059257E-02 
406	 2.57633352418043E-02 
407	 2.55580899674681E-02 
408	 0.024751638993739 
409	 2.50285457312868E-02 
410	 2.59801511129928E-02 
411	 2.52643636051669E-02 
412	 0.024741445681374 
413	 2.50786594765995E-02 
414	 0.024490413222442 
415	 2.38396277682011E-02 
416	 0.024413838973439 
417	 2.48136311290374E-02 
418	 2.47525513694323E-02 
419	 2.43712883137528E-02 
420	 2.42408025059569E-02 
421	 2.45894077253294E-02 
422	 2.45944212944957E-02 
423	 0.024451540493566 
424	 2.45908247625785E-02 
425	 2.43613413119083E-02 
426	 2.38981347378448E-02 
427	 2.42917131206473E-02 
428	 2.45762304659433E-02 
429	 2.42130767857266E-02 
430	 2.42872762538285E-02 
431	 2.44832145575069E-02 
432	 2.40260008361938E-02 
433	 2.40293546349017E-02 
434	 2.44807863157796E-02 
435	 2.42545445829208E-02 
436	 2.37808503000006E-02 
437	 2.34227579645408E-02 
438	 2.36341869531613E-02 
439	 2.41459698083469E-02 
440	 2.43734931578052E-02 
441	 2.44127508590536E-02 
442	 2.43052342993602E-02 
443	 2.41643757621182E-02 
444	 2.41150195842764E-02 
445	 2.42265079494491E-02 
446	 2.41182486320877E-02 
447	 2.39657036519582E-02 
448	 2.43509263482202E-02 
449	 2.43936380640863E-02 
450	 2.39679772184532E-02 
451	 2.40583751275613E-02 
452	 0.024205157240666 
453	 2.39355548056375E-02 
454	 2.39835487060466E-02 
455	 2.42792496393035E-02 
456	 2.42588420599776E-02 
457	 2.41133611295595E-02 
458	 2.39680212125612E-02 
459	 2.41063119541733E-02 
460	 2.43108201804276E-02 
461	 2.43004309859134E-02 
462	 2.43195639663172E-02 
463	 0.024366241970725 
464	 2.42598096193723E-02 
465	 2.41633420909464E-02 
466	 2.41955063413653E-02 
467	 2.45226769899893E-02 
468	 2.48943404785679E-02 
469	 2.49341359470459E-02 
470	 0.024704384805127 
471	 2.43684969318255E-02 
472	 2.44048262594836E-02 
473	 2.45211947437979E-02 
474	 0.024519869612216 
475	 2.43975643102043E-02 
476	 2.43430834373324E-02 
477	 2.47045385657082E-02 
478	 2.48009043453135E-02 
479	 2.45724092275653E-02 
480	 2.47201983974932E-02 
481	 2.47502791637397E-02 
482	 2.43185517965777E-02 
483	 2.44145883910836E-02 
484	 2.48142428434268E-02 
485	 2.45580223664764E-02 
486	 0.024443970946026 
487	 2.46972472599975E-02 
488	 2.48985237562726E-02 
489	 2.50571670437919E-02 
490	 2.52032091022011E-02 
491	 2.51548400407438E-02 
492	 2.49794725251764E-02 
493	 2.49278084466052E-02 
494	 2.49344015215296E-02 
495	 2.49583654605985E-02 
496	 2.48815328850068E-02 
497	 2.48253549388276E-02 
498	 2.49577703947388E-02 
499	 2.51421542825548E-02 
500	 0.025268313958179 
501	 2.50757142177686E-02 
502	 2.50064352901169E-02 
503	 2.53065489154788E-02 
504	 2.55922136276593E-02 
505	 2.58871926648433E-02 
506	 2.63467825132676E-02 
507	 2.64754139468546E-02 
508	 0.026270983951386 
509	 2.62928720176517E-02 
510	 2.65225530737749E-02 
511	 2.68822907892945E-02 
512	 2.67737078523096E-02 
513	 2.64448856782754E-02 
514	 2.66814497724968E-02 
515	 2.70917740733122E-02 
516	 2.75596080919271E-02 
517	 2.82692991377473E-02 
518	 2.86440472656218E-02 
519	 2.81223585350343E-02 
520	 2.81062667171902E-02 
521	 2.86952399036581E-02 
522	 2.93841581634504E-02 
523	 2.96994162763922E-02 
524	 0.029506577208598 
525	 2.96455210597201E-02 
526	 2.99570002761034E-02 
527	 3.00791699474349E-02 
528	 3.03115603690697E-02 
529	 0.030620692303826 
530	 3.06358040111227E-02 
531	 3.07164531777396E-02 
532	 3.10779444108946E-02 
533	 0.031387882498182 
534	 3.15212926680388E-02 
535	 3.13145086555454E-02 
536	 0.031297593512833 
537	 3.15549062161467E-02 
538	 3.15522389905129E-02 
539	 3.15437986596663E-02 
540	 3.17849841475831E-02 
541	 3.19703362847331E-02 
542	 3.20802536117936E-02 
543	 3.22451293496716E-02 
544	 3.23438335540997E-02 
545	 3.23640494369157E-02 
546	 3.25632330462125E-02 
547	 3.27338779320612E-02 
548	 3.25792712875286E-02 
549	 3.27174050170946E-02 
550	 3.31314962299645E-02 
551	 3.32207277227352E-02 
552	 3.32489898995039E-02 
553	 3.33715706236972E-02 
554	 3.34138240599997E-02 
555	 3.34662298440495E-02 
556	 3.37620882956307E-02 
557	 3.37520933152599E-02 
558	 3.34099286536622E-02 
559	 3.34978669685228E-02 
560	 3.36541075027834E-02 
561	 3.35233038249842E-02 
562	 3.32863491933122E-02 
563	 0.033140000415264 
564	 3.35179924050732E-02 
565	 3.38557863251901E-02 
566	 3.39039110956256E-02 
567	 3.37892056064182E-02 
568	 3.36043595561696E-02 
569	 3.34548029443399E-02 
570	 3.33582384325819E-02 
571	 3.33101885043045E-02 
572	 3.32570056785478E-02 
573	 3.32142504845247E-02 
574	 3.31847280330477E-02 
575	 3.31411647540741E-02 
576	 3.30453714734945E-02 
577	 3.28249996458803E-02 
578	 3.27291165678841E-02 
579	 3.28217983790814E-02 
580	 3.29681148138121E-02 
581	 3.31541919334382E-02 
582	 3.33425628523289E-02 
583	 3.31592958458826E-02 
584	 3.27500948696686E-02 
585	 3.26427041273712E-02 
586	 3.26000634536853E-02 
587	 3.25556851256273E-02 
588	 3.26164214123302E-02 
589	 3.27167445965085E-02 
590	 3.27603302573038E-02 
591	 3.28724943681506E-02 
592	 3.30199798578453E-02 
593	 3.30118827404464E-02 
594	 3.29967890640871E-02 
595	 0.033051651660257 
596	 3.30334110073761E-02 
597	 3.30077300682729E-02 
598	 3.31235497405928E-02 
599	 3.32019893740114E-02 
600	 3.31829083838299E-02 
601	 3.30454237367887E-02 
602	 3.30238571368908E-02 
603	 3.32878501207612E-02 
604	 0.033262720266275 
605	 3.30368680581629E-02 
606	 3.31322941355383E-02 
607	 3.31014666937995E-02 
608	 3.28321731348106E-02 
609	 3.27349062235176E-02 
610	 3.27981484611586E-02 
611	 3.29540054336719E-02 
612	 3.27968108781509E-02 
613	 3.24474215910247E-02 
614	 3.26721163237813E-02 
615	 3.29503764113602E-02 
616	 0.032921958481148 
617	 0.032434350891911 
618	 0.031911032919823 
619	 3.21063021135123E-02 
620	 3.23017826572396E-02 
621	 3.22954766125454E-02 
622	 3.21827260578262E-02 
623	 0.032276480972624 
624	 3.27950819220629E-02 
625	 0.032778106476392 
626	 0.032358643498591 
627	 3.23529792100023E-02 
628	 3.24480931867456E-02 
629	 3.24988004751731E-02 
630	 3.22738943263253E-02 
631	 3.21227775398846E-02 
632	 3.24895100180239E-02 
633	 3.27104548681184E-02 
634	 0.032664954608844 
635	 0.032519595990961 
636	 0.032487056700246 
637	 3.26185350803341E-02 
638	 3.21275177770025E-02 
639	 3.15510596568401E-02 
640	 3.20321501769257E-02 
641	 3.23975229027307E-02 
642	 3.22565859740686E-02 
643	 3.16415638527736E-02 
644	 3.11681139659655E-02 
645	 0.031338335536235 
646	 0.031340745020758 
647	 3.11530480208113E-02 
648	 3.11316644481859E-02 
649	 3.11789242024741E-02 
650	 3.12400146251082E-02 
651	 3.11765036084881E-02 
652	 3.11541957381196E-02 
653	 3.13764865198198E-02 
654	 3.10551392686962E-02 
655	 3.03664621138408E-02 
656	 3.07277483289508E-02 
657	 3.09354805721272E-02 
658	 3.03695851116307E-02 
659	 3.01297880313987E-02 
660	 0.030014180617074 
661	 0.02946564721187 
662	 0.029408593214966 
663	 2.97955364879208E-02 
664	 2.92690591994295E-02 
665	 2.86491723609517E-02 
666	 2.86371436605557E-02 
667	 2.87420214773912E-02 
668	 2.87490025838625E-02 
669	 2.83182235278384E-02 
670	 2.80382402056136E-02 
671	 2.80624833692789E-02 
672	 2.78362759419653E-02 
673	 2.76732331071552E-02 
674	 2.79648388826531E-02 
675	 2.82588819022749E-02 
676	 2.84813754303328E-02 
677	 2.88018103681253E-02 
678	 2.89328957803691E-02 
679	 2.87726457219267E-02 
680	 2.87434715616461E-02 
681	 2.89479591643086E-02 
682	 2.94506745766745E-02 
683	 3.00542231761147E-02 
684	 3.05960960267614E-02 
685	 3.06504966986544E-02 
686	 3.12110517964151E-02 
687	 3.30510022015933E-02 
688	 3.39867434463327E-02 
689	 3.41109472210821E-02 
690	 3.47754801878828E-02 
691	 0.035607480321808 
692	 3.65863174728099E-02 
693	 3.78556515958337E-02 
694	 3.92947168888277E-02 
695	 4.07069573111776E-02 
696	 4.21172819403032E-02 
697	 4.34054156349927E-02 
698	 4.42196465005911E-02 
699	 4.54153961004109E-02 
700	 4.72681102225237E-02 
701	 4.85901160129871E-02 
702	 4.97640723598808E-02 
703	 0.051506397418834 
704	 5.27410043679297E-02 
705	 5.35169959276241E-02 
706	 5.48499455674887E-02 
707	 5.62631915051891E-02 
708	 5.74456950458927E-02 
709	 0.058530652071017 
710	 5.96605284529236E-02 
711	 6.10608819945346E-02 
712	 6.26218141129464E-02 
713	 6.40872586980011E-02 
714	 0.064578603797266 
715	 6.49296703093263E-02 
716	 6.59748670819563E-02 
717	 6.71365583282657E-02 
718	 6.82144142580086E-02 
719	 6.87486110199133E-02 
720	 6.95034074718487E-02 
721	 7.06116879422537E-02 
722	 7.15252891741561E-02 
723	 7.22903708619141E-02 
724	 7.29104874117117E-02 
725	 7.36238963927835E-02 
726	 7.43347166286388E-02 
727	 7.46920236996166E-02 
728	 7.51795731854253E-02 
729	 0.075973971321724 
730	 7.64721763070988E-02 
731	 0.076847740718576 
732	 7.74317093235364E-02 
733	 7.77291381705694E-02 
734	 7.79099147795764E-02 
735	 0.078936716184678 
736	 7.98012016797149E-02 
737	 7.98729590075816E-02 
738	 8.01957818411536E-02 
739	 8.07124413646851E-02 
740	 0.08103142572278 
741	 8.13124543064275E-02 
742	 8.16151425930867E-02 
743	 8.19972226560802E-02 
744	 8.24374427184212E-02 
745	 8.28817944996895E-02 
746	 8.28219087070847E-02 
747	 8.26537299869903E-02 
748	 8.35792683536321E-02 
749	 8.42188717487409E-02 
750	 8.42345222776013E-02 
751	 8.47543578920785E-02 
752	 8.53306472125943E-02 
753	 8.54341475974496E-02 
754	 8.56615755668865E-02 
755	 8.59880947905881E-02 
756	 8.59223344792931E-02 
757	 8.62107543749431E-02 
758	 8.71114272396602E-02 
759	 8.73219174732421E-02 
760	 8.68971179083296E-02 
761	 8.68150154770832E-02 
762	 8.71004129151484E-02 
763	 8.75801132726728E-02 
764	 8.79085777831102E-02 
765	 8.85231020977646E-02 
766	 8.93500862094633E-02 
767	 0.089467358666438 
768	 8.93444376318354E-02 
769	 8.95408706457868E-02 
770	 0.090039027239072 
771	 9.06780587760476E-02 
772	 9.09199899184502E-02 
773	 9.08594821784239E-02 
774	 9.06407298509312E-02 
775	 9.08858554431221E-02 
776	 9.14278043031152E-02 
777	 9.18057607061701E-02 
778	 9.20457677912967E-02 
779	 9.22107977225082E-02 
780	 9.26092981599958E-02 
781	 9.30026526208569E-02 
782	 9.32332343551966E-02 
783	 9.38570026157264E-02 
784	 9.44610474575931E-02 
785	 9.39525562669152E-02 
786	 9.37417955465907E-02 
787	 9.42191588325626E-02 
788	 9.47253444442905E-02 
789	 9.51281850572395E-02 
790	 9.53273967272224E-02 
791	 9.54349864808147E-02 
792	 9.54844166400158E-02 
793	 9.54655115141211E-02 
794	 9.55629130518827E-02 
795	 9.58685808602072E-02 
796	 9.64412690464728E-02 
797	 9.69281930740783E-02 
798	 9.70002982640681E-02 
799	 9.71338358287555E-02 
800	 9.73172140835272E-02 
801	 9.72190565442413E-02 
802	 9.71882090238795E-02 
803	 0.09744529664925 
804	 9.83663637640352E-02 
805	 9.91306171989274E-02 
806	 9.88951777405838E-02 
807	 9.90708057076288E-02 
808	 9.96911899273311E-02 
809	 9.99635034752597E-02 
810	 0.1002323392925 
811	 0.100597490039596 
812	 0.100870758242904 
813	 0.100867459657623 
814	 0.100400335565167 
815	 0.100862597557501 
816	 0.10204619304317 
817	 0.101994880018413 
818	 0.102239090852984 
819	 0.103190982057189 
820	 0.103388749184616 
821	 0.10300162778775 
822	 0.102374630545494 
823	 0.102525526941436 
824	 0.103420740797649 
825	 0.104289590368592 
826	 0.104724690812818 
827	 0.104673585940825 
828	 0.105177810944511 
829	 0.105602189677488 
830	 0.105100718698959 
831	 0.105242357846838 
832	 0.10589640094534 
833	 0.105588945662491 
834	 0.105629121867104 
835	 0.106433144034434 
836	 0.107061368357948 
837	 0.107184536685538 
838	 0.106596949186356 
839	 0.107340069274331 
840	 0.108972018500669 
841	 0.109086798654226 
842	 0.108289844881923 
843	 0.107201886435265 
844	 0.108019409674417 
845	 0.108950631093056 
846	 0.107895374325131 
847	 0.10812419827409 
848	 0.109400531993909 
849	 0.109057750072191 
850	 0.108651267965749 
851	 0.108710920315787 
852	 0.108530485107596 
853	 0.108439036935001 
854	 0.108803077209959 
855	 0.109048328753855 
856	 0.109156076370041 
857	 0.10939334762193 
858	 0.109626955351486 
859	 0.109819380943965 
860	 0.110001857140946 
861	 0.110140462510124 
862	 0.110216348289912 
863	 0.110466257841273 
864	 0.110774313731538 
865	 0.110711574395492 
866	 0.11103871411799 
867	 0.111810660640824 
868	 0.111936780201433 
869	 0.112265059587653 
870	 0.113401694086379 
871	 0.113891487160429 
872	 0.113954476142059 
873	 0.114451118796548 
874	 0.115039671980855 
875	 0.115561352687246 
876	 0.115730249077572 
877	 0.116017532291328 
878	 0.116723220986905 
879	 0.117439805931306 
880	 0.117819306641469 
881	 0.117389204109799 
882	 0.118129550683854 
883	 0.119753046973219 
884	 0.119200868016579 
885	 0.118734852341475 
886	 0.119559622760039 
887	 0.120451620036213 
888	 0.121097662405849 
889	 0.121267488178603 
890	 0.121014229825992 
891	 0.12074388766672 
892	 0.121625815007908 
893	 0.122575812208664 
894	 0.123051007210577 
895	 0.123386324676131 
896	 0.12318241700886 
897	 0.122037878294169 
898	 0.121163819009284 
899	 0.121062923913711 
900	 0.122076120652935 
901	 0.123404925045272 
902	 0.124420798425877 
903	 0.123883111404895 
904	 0.123760879117545 
905	 0.125277998135665 
906	 0.124488141420977 
907	 0.122842821973352 
908	 0.123925321934463 
909	 0.124947261338746 
910	 0.124997361238656 
911	 0.123727041471375 
912	 0.12355328767625 
913	 0.125345974807992 
914	 0.124480684788175 
915	 0.123540874732256 
916	 0.126003459738048 
917	 0.126261737055777 
918	 0.124485425169925 
919	 0.124091137826066 
920	 0.124860141569501 
921	 0.126690582359701 
922	 0.129269274271865 
923	 0.130390594133999 
924	 0.128285547405674 
925	 0.126393462191879 
926	 0.125540676014657 
927	 0.126159458179852 
928	 0.124755787440066 
929	 0.121186075014153 
930	 0.122155823914622 
931	 0.123271383815631 
932	 0.121469032955004 
933	 0.124040957162845 
934	 0.126891904032909 
935	 0.122673599952781 
936	 0.121939615679382 
937	 0.123785364780496 
938	 0.118743686901591 
939	 0.118008303389591 
940	 0.122655155979386 
941	 0.121163846857436 
942	 0.118946214365439 
943	 0.119599700748358 
944	 0.116250660004327 
945	 0.111414666197973 
946	 0.110217103194202 
947	 0.112501144835466 
948	 0.115048946944947 
949	 0.107229300488869 
950	 0.105123484636892 
951	 0.112951702266733 
952	 0.114073518016673 
953	 0.110403643998564 
954	 0.105542178043127 
955	 0.105615710186025 
956	 0.108147705640934 
957	 0.10687204069337 
958	 0.107505716794225 
959	 0.109514834040576 
960	 0.106101038830424 
961	 0.104201029162701 
962	 0.106618274464469 
963	 0.109398559110861 
964	 0.110753394057984 
965	 0.109239127755894 
966	 0.103323352872984 
967	 9.79404373702074E-02 
968	 0.102947835724689 
969	 0.105009251152788 
970	 0.102526251379332 
971	 0.103929733496301 
972	 0.107682854443269 
973	 0.111649022770187 
974	 0.1089936630093 
975	 0.104414059455771 
976	 0.103753949924784 
977	 0.106580897147808 
978	 0.109343275339651 
979	 0.104468737713532 
980	 0.104350825576304 
981	 0.109645227763268 
982	 0.108501621924501 
983	 0.106250950885985 
984	 0.105918581696256 
985	 0.106318953415135 
986	 0.107962994255465 
987	 0.111075353732246 
988	 0.110399728189046 
989	 0.109045749514266 
990	 0.115257744703821 
991	 0.117238886015821 
992	 0.113856245475221 
993	 0.114387142575201 
994	 0.113441969875207 
995	 0.109371839465847 
996	 0.108803447999924 
997	 0.109354543097044 
998	 0.108613617233906 
999	 0.112188182963962 
1000	 0.116934901283345 
1001	 0.116146924126218 
1002	 0.114116235876799 
1003	 0.112958750262278 
1004	 0.115628724050177 
1005	 0.117758353525088 
1006	 0.117781466800676 
1007	 0.118438396996005 
1008	 0.117226826468904 
1009	 0.113537549692551 
1010	 0.119938328277521 
1011	 0.125287417320342 
1012	 0.113589776662136 
1013	 0.113262019583864 
1014	 0.122000810628564 
1015	 0.118425623952195 
1016	 0.115080011945718 
1017	 0.11511145793059 
1018	 0.11605349745469 
1019	 0.11353094894486 
1020	 0.107599832303995 
1021	 0.114211986084143 
1022	 0.11987104511468 
1023	 0.111442033244859 
1024	 0.110639590685542 
1025	 0.116220009137788 
1026	 0.119809895300876 
1027	 0.123385586712151 
1028	 0.127113021150859 
1029	 0.131819913320956 
1030	 0.134355215737637 
1031	 0.133705331540324 
1032	 0.131546778003042 
1033	 0.130637281710868 
1034	 0.13107247412067 
1035	 0.119262400712294 
1036	 0.112393960634323 
1037	 0.127068739439775 
1038	 0.13049810858791 
1039	 0.130271338218966 
1040	 0.149155109467922 
1041	 0.146797301215755 
1042	 0.126262551299843 
1043	 0.124214415674752 
1044	 0.126619795277105 
1045	 0.129393750818392 
1046	 0.13420961416946 
1047	 0.137120482538395 
1048	 0.135538494654517 
1049	 0.12644677571984 
1050	 0.124758269423076 
1051	 0.14318225011966 
1052	 0.159779056162367 
1053	 0.160775802305863 
1054	 0.133482822563947 
1055	 0.120290677544197 
1056	 0.128046012768755 
1057	 0.143884731224317 
1058	 0.148005563630067 
1059	 0.138601721402125 
1060	 0.13221152376352 
1061	 0.139951315063057 
1062	 0.158499705292371 
1063	 0.143878800143314 
1064	 0.124306388938648 
1065	 0.123174946769053 
1066	 0.133401600810103 
1067	 0.138744864576993 
1068	 0.123933700214369 
1069	 0.133495690323527 
1070	 0.14496596076067 
1071	 0.112392126858916 
1072	 0.100649025014915 
1073	 0.109222325131033 
1074	 0.095552476186347 
1075	 0.111218712581412 
