Wavelength	AVEI200116.asd
325	 3.24566765505237E-02 
326	 3.32581316168024E-02 
327	 0.031886281902084 
328	 3.13402955528617E-02 
329	 3.17402691393041E-02 
330	 3.25954079339949E-02 
331	 3.09222623004752E-02 
332	 2.99101037054146E-02 
333	 3.24104498880825E-02 
334	 3.04727669792163E-02 
335	 2.67423502336494E-02 
336	 3.08029686931425E-02 
337	 3.17573796063004E-02 
338	 0.028314816554617 
339	 3.11078029244244E-02 
340	 3.41525116228332E-02 
341	 0.032664274832121 
342	 0.032033293440821 
343	 3.22916911376248E-02 
344	 3.20352747015897E-02 
345	 3.02320385857008E-02 
346	 2.80823920179878E-02 
347	 3.13199865825189E-02 
348	 3.37095492081405E-02 
349	 3.14472899886202E-02 
350	 3.01723831131664E-02 
351	 3.00147094566655E-02 
352	 2.99278426699249E-02 
353	 3.02544486523904E-02 
354	 3.06433242337442E-02 
355	 2.96036930301051E-02 
356	 2.92098214676392E-02 
357	 3.05218786739356E-02 
358	 3.16549844588019E-02 
359	 3.19404986036489E-02 
360	 0.030815193216829 
361	 2.96738616961753E-02 
362	 2.90998027374242E-02 
363	 2.93635609623901E-02 
364	 3.06474919443049E-02 
365	 3.25170021531906E-02 
366	 3.21721841667622E-02 
367	 3.02989644988159E-02 
368	 2.81619814894537E-02 
369	 2.74036325159804E-02 
370	 2.81595626794492E-02 
371	 2.94133736745569E-02 
372	 3.01447856586062E-02 
373	 2.98578551274897E-02 
374	 0.029598906014906 
375	 2.97013887588802E-02 
376	 3.04186886606122E-02 
377	 2.98935776133197E-02 
378	 2.83449114491991E-02 
379	 2.78612682140307E-02 
380	 2.82519796711788E-02 
381	 2.92669630481085E-02 
382	 3.00034015593627E-02 
383	 0.030185890860656 
384	 2.96186145028387E-02 
385	 0.028581413253931 
386	 2.74997811145646E-02 
387	 2.71554894693297E-02 
388	 2.75026797738378E-02 
389	 2.82661656793651E-02 
390	 2.81948563398846E-02 
391	 2.78258057254182E-02 
392	 2.78996368228947E-02 
393	 2.76433210137227E-02 
394	 2.71783203468461E-02 
395	 0.027198753308846 
396	 2.75379765173936E-02 
397	 2.80478518860902E-02 
398	 2.84653746923723E-02 
399	 2.85701459349379E-02 
400	 2.82137438576459E-02 
401	 2.73205450874472E-02 
402	 2.65141235485309E-02 
403	 2.73643801612722E-02 
404	 2.78643592866366E-02 
405	 2.72792306930684E-02 
406	 2.65054819105669E-02 
407	 2.60509598365487E-02 
408	 2.64087326356945E-02 
409	 2.69635447675391E-02 
410	 0.027304866604522 
411	 2.67217716458801E-02 
412	 0.026310696999305 
413	 0.026536442837455 
414	 2.67123642253177E-02 
415	 2.67472065068905E-02 
416	 2.66216743611607E-02 
417	 0.026469932379704 
418	 2.63694893297434E-02 
419	 2.64289623706091E-02 
420	 2.64835133054957E-02 
421	 2.64576597277588E-02 
422	 2.64952382461483E-02 
423	 2.66250690530151E-02 
424	 2.68756743129799E-02 
425	 2.67683837410643E-02 
426	 2.64058441458639E-02 
427	 2.66236898042727E-02 
428	 2.68590324497101E-02 
429	 2.67521174490875E-02 
430	 0.026563459150886 
431	 2.63822999972301E-02 
432	 2.62814394226676E-02 
433	 2.64710158092387E-02 
434	 2.67852954988585E-02 
435	 2.64365651440472E-02 
436	 2.61387026237102E-02 
437	 2.63342117832875E-02 
438	 0.026469349114105 
439	 2.64480206129045E-02 
440	 2.62254542078465E-02 
441	 2.61465076353853E-02 
442	 2.62807200898741E-02 
443	 0.026427904520523 
444	 2.64351552012123E-02 
445	 2.62207217030099E-02 
446	 2.62417649374312E-02 
447	 0.026410782822373 
448	 2.63320609564087E-02 
449	 2.64398118668999E-02 
450	 2.67515383184069E-02 
451	 2.66256034071374E-02 
452	 2.64201081371694E-02 
453	 2.65162194227052E-02 
454	 2.67105663196289E-02 
455	 2.68635143311787E-02 
456	 2.66722171820446E-02 
457	 2.66533155919084E-02 
458	 2.69484436503301E-02 
459	 0.02703118854471 
460	 2.69274282630939E-02 
461	 2.67281644829646E-02 
462	 2.66007291152894E-02 
463	 0.026599157309371 
464	 0.026732093199087 
465	 2.68686653888841E-02 
466	 2.68943628654894E-02 
467	 2.65626063290268E-02 
468	 2.62817996740805E-02 
469	 2.66742227701127E-02 
470	 2.69260685121014E-02 
471	 2.68743841531558E-02 
472	 2.67692420940208E-02 
473	 2.67392543019607E-02 
474	 2.68520906974003E-02 
475	 2.69267832033983E-02 
476	 0.026860766619811 
477	 2.64909851182425E-02 
478	 2.65870450047152E-02 
479	 2.71292113301385E-02 
480	 0.027032616729784 
481	 2.67662625023664E-02 
482	 2.67382702344878E-02 
483	 2.68444624371955E-02 
484	 2.69803832644191E-02 
485	 0.02690040066943 
486	 2.70144834202759E-02 
487	 2.73308908388417E-02 
488	 0.027046344362743 
489	 2.67819830329327E-02 
490	 2.71821322522439E-02 
491	 2.73940402307277E-02 
492	 0.027309188946202 
493	 2.70689614269577E-02 
494	 2.70297916516714E-02 
495	 2.72964907865069E-02 
496	 2.73615978006909E-02 
497	 0.027348883080733 
498	 2.74823301366251E-02 
499	 2.74549375845827E-02 
500	 2.73439725645745E-02 
501	 2.76409359305485E-02 
502	 2.80266763033992E-02 
503	 2.82803547950572E-02 
504	 2.83225920173325E-02 
505	 0.028381433284125 
506	 2.88653272079723E-02 
507	 2.91223202182278E-02 
508	 2.90889858582418E-02 
509	 2.92449014810364E-02 
510	 2.97242499708248E-02 
511	 3.05527316323219E-02 
512	 3.09104762430811E-02 
513	 3.08711717684241E-02 
514	 3.09039867480015E-02 
515	 3.11699141603332E-02 
516	 3.16897345910875E-02 
517	 3.20637505632275E-02 
518	 3.23227474150665E-02 
519	 3.25448743402859E-02 
520	 3.29864001090715E-02 
521	 3.36855044019357E-02 
522	 3.46974857865307E-02 
523	 3.52809594508622E-02 
524	 3.51999738884177E-02 
525	 3.53799878095686E-02 
526	 3.58306696453303E-02 
527	 3.64140057237491E-02 
528	 3.67959088282649E-02 
529	 3.69785784748138E-02 
530	 3.72876344055735E-02 
531	 3.78980230993915E-02 
532	 3.88267533175997E-02 
533	 3.90986133565631E-02 
534	 3.89843223105157E-02 
535	 3.93041638224273E-02 
536	 3.95899814694788E-02 
537	 3.97464093980521E-02 
538	 3.99614217044491E-02 
539	 4.02220783208274E-02 
540	 4.04973784993728E-02 
541	 4.06387862671863E-02 
542	 4.06599914375104E-02 
543	 4.06339766685073E-02 
544	 4.08613328460416E-02 
545	 4.13679568292345E-02 
546	 4.14256200353524E-02 
547	 4.13408926073031E-02 
548	 4.15981073266248E-02 
549	 4.17669310786763E-02 
550	 4.18140485101346E-02 
551	 4.19682474099901E-02 
552	 4.22135521451347E-02 
553	 4.25179200462852E-02 
554	 4.27348219462047E-02 
555	 4.27848481574511E-02 
556	 4.25422096126289E-02 
557	 4.25335340175368E-02 
558	 4.28352530175926E-02 
559	 4.29303514561733E-02 
560	 4.28021755821276E-02 
561	 4.24964567368197E-02 
562	 4.25672018894398E-02 
563	 4.28697261015572E-02 
564	 4.27478101344744E-02 
565	 4.25709622904042E-02 
566	 4.24511584048706E-02 
567	 4.21605737840651E-02 
568	 4.18614920729014E-02 
569	 4.17780172405634E-02 
570	 4.16146960756013E-02 
571	 4.13553603948315E-02 
572	 4.12079375055856E-02 
573	 4.10483377654994E-02 
574	 4.08429856974456E-02 
575	 4.10220353805939E-02 
576	 4.11971909931656E-02 
577	 4.05387920596082E-02 
578	 4.02142036442873E-02 
579	 4.04323306705951E-02 
580	 4.03315221745883E-02 
581	 4.01771673596518E-02 
582	 4.01970947646248E-02 
583	 3.98272999543319E-02 
584	 3.93324081313145E-02 
585	 3.96660590334281E-02 
586	 3.99006562256232E-02 
587	 3.97148396350091E-02 
588	 3.96633202138117E-02 
589	 3.96099604561997E-02 
590	 3.93234815702682E-02 
591	 3.91574266826256E-02 
592	 3.91537493606926E-02 
593	 3.91335738809604E-02 
594	 3.91117155979252E-02 
595	 3.90999903159708E-02 
596	 3.92157567729165E-02 
597	 0.039193166903463 
598	 3.84934721907583E-02 
599	 3.84672031895007E-02 
600	 3.91945783605915E-02 
601	 0.039061940883228 
602	 3.86621368827671E-02 
603	 3.85768539966841E-02 
604	 3.86963982666415E-02 
605	 3.88381287199982E-02 
606	 0.038567423682261 
607	 0.038296179284136 
608	 3.81955901788076E-02 
609	 0.038224016109026 
610	 3.82067412200889E-02 
611	 3.79334772418716E-02 
612	 3.76438870675949E-02 
613	 3.74294858836192E-02 
614	 0.037341867453689 
615	 3.73908069834637E-02 
616	 3.75241077615644E-02 
617	 3.73336759340684E-02 
618	 3.69328185245273E-02 
619	 3.65895106972052E-02 
620	 3.65714926094701E-02 
621	 3.68250158047628E-02 
622	 3.67076558907214E-02 
623	 3.64536244464738E-02 
624	 3.63221609872463E-02 
625	 3.66649380210519E-02 
626	 3.71327241456499E-02 
627	 3.66227936751357E-02 
628	 3.62394516708265E-02 
629	 3.63746061871565E-02 
630	 3.64536006549301E-02 
631	 3.64887472141922E-02 
632	 3.65547853287226E-02 
633	 3.67392297434594E-02 
634	 3.69682473565755E-02 
635	 3.70331828949107E-02 
636	 3.66557882243724E-02 
637	 3.57904962404185E-02 
638	 3.54325019955685E-02 
639	 3.55022574667947E-02 
640	 0.035634973725184 
641	 3.53836475146842E-02 
642	 3.47687918048782E-02 
643	 3.46816143707336E-02 
644	 3.45106194565974E-02 
645	 0.033740252996424 
646	 3.32813556580319E-02 
647	 3.32254823125846E-02 
648	 3.33431110290821E-02 
649	 3.34754477243424E-02 
650	 3.34998586766944E-02 
651	 0.033349116872187 
652	 3.30597384175848E-02 
653	 3.26821925163651E-02 
654	 3.24282885373904E-02 
655	 3.23778073857399E-02 
656	 3.26563568285791E-02 
657	 3.26396139094653E-02 
658	 3.20607372567269E-02 
659	 3.18274170491775E-02 
660	 3.18564885664575E-02 
661	 3.18650937381572E-02 
662	 0.031649557873517 
663	 3.12131798193837E-02 
664	 3.09046611595665E-02 
665	 3.06194681756066E-02 
666	 3.02828319374481E-02 
667	 3.01890470196401E-02 
668	 0.03023071609121 
669	 0.02997609073466 
670	 3.00258254220936E-02 
671	 3.04482844655428E-02 
672	 3.03291851610321E-02 
673	 3.00637425463368E-02 
674	 3.01811114520129E-02 
675	 3.03253651052252E-02 
676	 3.04442854700141E-02 
677	 3.06605326868399E-02 
678	 3.06622581235017E-02 
679	 3.03927273612024E-02 
680	 0.030711905155842 
681	 3.13688720575945E-02 
682	 3.18143765117494E-02 
683	 3.20188953931135E-02 
684	 3.21693257413896E-02 
685	 3.31324261605501E-02 
686	 3.41930033004702E-02 
687	 3.47402566659466E-02 
688	 3.57416087486373E-02 
689	 3.71533614113796E-02 
690	 3.86493514931746E-02 
691	 4.02259744722483E-02 
692	 4.18528565165103E-02 
693	 4.31939373485445E-02 
694	 4.48552879229678E-02 
695	 4.73618575349411E-02 
696	 0.049769795282492 
697	 5.19730962199955E-02 
698	 5.43502907250748E-02 
699	 5.69125801088912E-02 
700	 5.96299824656168E-02 
701	 6.24483756905598E-02 
702	 6.51810215515072E-02 
703	 6.76086142240615E-02 
704	 0.070126386925012 
705	 7.28428622217984E-02 
706	 7.56525093040292E-02 
707	 7.83578422065054E-02 
708	 8.08330587122544E-02 
709	 8.32551373892194E-02 
710	 8.56842341662622E-02 
711	 8.81960231453056E-02 
712	 9.06896764064096E-02 
713	 9.30658478482455E-02 
714	 9.51406049960566E-02 
715	 9.70869873545687E-02 
716	 9.91663437516594E-02 
717	 0.10097725431061 
718	 0.102782840019652 
719	 0.105364535587649 
720	 0.107599280803828 
721	 0.109047970868057 
722	 0.110386740499111 
723	 0.111893822062994 
724	 0.113719162591187 
725	 0.115210824770271 
726	 0.116228170045999 
727	 0.117230156335853 
728	 0.118511284222616 
729	 0.120125877259854 
730	 0.121263693424913 
731	 0.122047608756059 
732	 0.122786532457489 
733	 0.123385216441846 
734	 0.123975582438176 
735	 0.124920984606455 
736	 0.125982490400208 
737	 0.126931568598861 
738	 0.127590973797605 
739	 0.128120721275803 
740	 0.128879692668354 
741	 0.129361839935501 
742	 0.129611270271463 
743	 0.130500437802318 
744	 0.131314903858465 
745	 0.131497712059443 
746	 0.132094457255753 
747	 0.132919974673398 
748	 0.133090212123084 
749	 0.133282652451542 
750	 0.133707347614332 
751	 0.134107874432628 
752	 0.134496170700386 
753	 0.134897140333842 
754	 0.135207732701025 
755	 0.135478723872622 
756	 0.135931517676661 
757	 0.13629298822119 
758	 0.13647506546092 
759	 0.136664169342399 
760	 0.137100650372067 
761	 0.137898097616288 
762	 0.138112998326515 
763	 0.138032822482799 
764	 0.138877987895772 
765	 0.139828479669266 
766	 0.140442992520148 
767	 0.14032771170109 
768	 0.140072247745429 
769	 0.140319058600579 
770	 0.140870761213177 
771	 0.141561204265751 
772	 0.142007596629818 
773	 0.142121750815031 
774	 0.141942423711051 
775	 0.142341245238118 
776	 0.143036599979297 
777	 0.143289234207062 
778	 0.143619104681031 
779	 0.143995323062254 
780	 0.143619951469676 
781	 0.1434875365938 
782	 0.144329845780247 
783	 0.145001327046552 
784	 0.145307847701174 
785	 0.145224754989488 
786	 0.145526153626059 
787	 0.146316044755573 
788	 0.146649396874395 
789	 0.146680965023157 
790	 0.146620821682222 
791	 0.146668527931789 
792	 0.146848804353505 
793	 0.147103312084523 
794	 0.147296936311763 
795	 0.147366419492983 
796	 0.147264442410729 
797	 0.147374496435963 
798	 0.148032543973231 
799	 0.148408500916664 
800	 0.148420581320382 
801	 0.148234501848389 
802	 0.148490701796783 
803	 0.149348008848218 
804	 0.150040298797916 
805	 0.150381580859442 
806	 0.15028761268486 
807	 0.150501751801117 
808	 0.151077453497799 
809	 0.15171122344407 
810	 0.15208331170953 
811	 0.152047453195038 
812	 0.151857519694381 
813	 0.151732694049744 
814	 0.151945011413221 
815	 0.152722250427112 
816	 0.153741406846358 
817	 0.153871616482735 
818	 0.153812102843669 
819	 0.153994847482509 
820	 0.154969328829908 
821	 0.155727610131708 
822	 0.155093239987517 
823	 0.155374263819447 
824	 0.15665987695411 
825	 0.157777021730648 
826	 0.158299255000704 
827	 0.158049537391442 
828	 0.157209473092037 
829	 0.156963996742252 
830	 0.158622567160848 
831	 0.159962601124928 
832	 0.160351186377859 
833	 0.159500950882564 
834	 0.159285274350108 
835	 0.160241284714973 
836	 0.160087957389362 
837	 0.159796235848921 
838	 0.160632394465636 
839	 0.161726139542854 
840	 0.162602074771446 
841	 0.162475964946837 
842	 0.162365829937797 
843	 0.162681517853091 
844	 0.162931081206342 
845	 0.163152673367862 
846	 0.163427888335476 
847	 0.163710446572671 
848	 0.163977194302842 
849	 0.164252899189325 
850	 0.164165387486684 
851	 0.163696571919342 
852	 0.163716127721823 
853	 0.163852458590899 
854	 0.163703823950694 
855	 0.164852017327445 
856	 0.166402911855481 
857	 0.165328793975519 
858	 0.164927663002847 
859	 0.165950227953159 
860	 0.166020272614482 
861	 0.16582987754448 
862	 0.166108404403342 
863	 0.165909428449137 
864	 0.165745696086001 
865	 0.167289189005703 
866	 0.167984898515641 
867	 0.167381852418297 
868	 0.167896393133268 
869	 0.168493765519448 
870	 0.168389606105285 
871	 0.169323951524093 
872	 0.170563746427742 
873	 0.170178602540369 
874	 0.170241957517954 
875	 0.171171133172162 
876	 0.171987899122332 
877	 0.172336680463482 
878	 0.172149315969905 
879	 0.173059947810223 
880	 0.174304685578717 
881	 0.174273996559465 
882	 0.175071532323147 
883	 0.176670865651574 
884	 0.177040147564909 
885	 0.17682136190816 
886	 0.176552375973326 
887	 0.177215397931631 
888	 0.178196055696496 
889	 0.178534650514942 
890	 0.179155049051381 
891	 0.179805436437015 
892	 0.178866147025968 
893	 0.178913197965071 
894	 0.18063551208134 
895	 0.179567736460374 
896	 0.178468427082056 
897	 0.180846705197585 
898	 0.180470427500338 
899	 0.178585895087716 
900	 0.181828031287037 
901	 0.183102190367125 
902	 0.181460878509754 
903	 0.184081183780521 
904	 0.185326512815686 
905	 0.181459651440011 
906	 0.181693793696302 
907	 0.184516002113819 
908	 0.184795569458574 
909	 0.184897949237202 
910	 0.18490500568311 
911	 0.182828372236682 
912	 0.181589849560792 
913	 0.18262657550169 
914	 0.182819668669864 
915	 0.18277406347712 
916	 0.183573062181668 
917	 0.183491641769356 
918	 0.183262419802563 
919	 0.186055596804992 
920	 0.187000886406554 
921	 0.185270395813187 
922	 0.186271430383485 
923	 0.18667219212292 
924	 0.18372418881496 
925	 0.184819284089985 
926	 0.187696608870266 
927	 0.184506358792872 
928	 0.178897718338499 
929	 0.173625514467503 
930	 0.176190140655793 
931	 0.177239740805728 
932	 0.170384902903453 
933	 0.175917195366868 
934	 0.184777310957926 
935	 0.178955741614079 
936	 0.175695343162229 
937	 0.176759395922389 
938	 0.175717172139956 
939	 0.172984944309584 
940	 0.169697283333583 
941	 0.170289043321765 
942	 0.173197144678191 
943	 0.176266109227807 
944	 0.171624712645459 
945	 0.165203836673095 
946	 0.167600917021939 
947	 0.172738724308868 
948	 0.177445535840632 
949	 0.178192878414834 
950	 0.171523007568265 
951	 0.159955014918849 
952	 0.164682189171382 
953	 0.171578601112287 
954	 0.167526304010748 
955	 0.16677808391818 
956	 0.167850665929963 
957	 0.164266083459746 
958	 0.161767602860748 
959	 0.160865415088872 
960	 0.157669888786097 
961	 0.155842476975696 
962	 0.156848425757992 
963	 0.158140988927159 
964	 0.159460985232532 
965	 0.16068716628135 
966	 0.15997453462855 
967	 0.158515717402221 
968	 0.159006160739774 
969	 0.160934729817274 
970	 0.163843545301066 
971	 0.167139847265588 
972	 0.167632805735368 
973	 0.164173744833661 
974	 0.161102903106658 
975	 0.160683146989435 
976	 0.164244977739344 
977	 0.162635552022219 
978	 0.158885479099455 
979	 0.163670257060504 
980	 0.16346044570601 
981	 0.158144351959188 
982	 0.162853934886389 
983	 0.166737374120518 
984	 0.164588386637432 
985	 0.163040411449002 
986	 0.163227916885054 
987	 0.165606596033747 
988	 0.1686761762278 
989	 0.170607844083129 
990	 0.168470906573824 
991	 0.16617807801295 
992	 0.166279687236838 
993	 0.172987741858137 
994	 0.179156942558177 
995	 0.180076439073873 
996	 0.172126274078634 
997	 0.165511720057289 
998	 0.169810698120275 
999	 0.174355982789993 
1000	 0.176467846533708 
1001	 0.174835097308016 
1002	 0.173571606254857 
1003	 0.173560620987641 
1004	 0.17367842877501 
1005	 0.171833571216837 
1006	 0.169478233978187 
1007	 0.178208355293662 
1008	 0.186319743904675 
1009	 0.184911394682024 
1010	 0.183246715700237 
1011	 0.181512731800432 
1012	 0.178561282168133 
1013	 0.181114666335208 
1014	 0.186287989495525 
1015	 0.18390397672226 
1016	 0.178507945193969 
1017	 0.173465921487489 
1018	 0.175389559666642 
1019	 0.181756009626553 
1020	 0.189837457297943 
1021	 0.195590412536555 
1022	 0.194639154011224 
1023	 0.184989481304076 
1024	 0.185826414577145 
1025	 0.191045861391568 
1026	 0.185350111158801 
1027	 0.182470801926523 
1028	 0.18461375680896 
1029	 0.188583949076036 
1030	 0.187438210100036 
1031	 0.181934980898491 
1032	 0.188420866213587 
1033	 0.194498818537144 
1034	 0.19330839592146 
1035	 0.198140940341768 
1036	 0.201365951932378 
1037	 0.195405571118752 
1038	 0.202869469891722 
1039	 0.210308903613187 
1040	 0.189772347440961 
1041	 0.180924112637466 
1042	 0.188099178206395 
1043	 0.192637170047654 
1044	 0.195520806931005 
1045	 0.196587776127268 
1046	 0.199017728705554 
1047	 0.195575609202068 
1048	 0.184911778587651 
1049	 0.186388002625053 
1050	 0.191932498722145 
1051	 0.192143105843064 
1052	 0.192487931987112 
1053	 0.193688552065678 
1054	 0.195547705272298 
1055	 0.193713389004404 
1056	 0.190654272879265 
1057	 0.195350874264966 
1058	 0.191864588804522 
1059	 0.181286746460985 
1060	 0.188615357952753 
1061	 0.193856012786529 
1062	 0.18909827960038 
1063	 0.182651572615338 
1064	 0.185004567819365 
1065	 0.198022440936796 
1066	 0.186567143253709 
1067	 0.169508393818212 
1068	 0.173021143250897 
1069	 0.194247948334349 
1070	 0.209184435020326 
1071	 0.184259674714311 
1072	 0.190061905844286 
1073	 0.218555514966299 
1074	 0.204360910176679 
1075	 0.193997233700583 
