Wavelength	AVEI200126.asd
325	 3.49769226677781E-02 
326	 3.41740057332685E-02 
327	 2.22319603806839E-02 
328	 2.78314865627365E-02 
329	 3.17858563450304E-02 
330	 2.85387115887755E-02 
331	 2.75819958722798E-02 
332	 2.78429440143435E-02 
333	 2.78040659502838E-02 
334	 2.93944365330143E-02 
335	 3.19151551485431E-02 
336	 3.37573945667455E-02 
337	 3.25520577480614E-02 
338	 2.92007631253847E-02 
339	 3.12600158830913E-02 
340	 3.40786101967395E-02 
341	 3.38367744135816E-02 
342	 3.35231014865011E-02 
343	 3.35495709864269E-02 
344	 3.40891499538051E-02 
345	 3.22361025383317E-02 
346	 2.87736908381976E-02 
347	 2.91544035383222E-02 
348	 0.031708788611253 
349	 3.44905497197593E-02 
350	 3.23299713849275E-02 
351	 2.84478632495672E-02 
352	 2.88095149570198E-02 
353	 2.92374583416439E-02 
354	 0.02922001827525 
355	 3.07750691094437E-02 
356	 3.19342586614717E-02 
357	 3.16538228772403E-02 
358	 3.14843389124217E-02 
359	 3.18557047507656E-02 
360	 3.31186615652816E-02 
361	 3.33603688344441E-02 
362	 3.22566226184728E-02 
363	 3.02685348998402E-02 
364	 2.94610365681985E-02 
365	 3.06391494519125E-02 
366	 3.13150599940366E-02 
367	 3.12909663649543E-02 
368	 3.07034712800233E-02 
369	 2.97581201098563E-02 
370	 2.89174169588239E-02 
371	 2.93215345950489E-02 
372	 2.98722773542332E-02 
373	 3.00172107165395E-02 
374	 3.05195548944819E-02 
375	 3.07051841234576E-02 
376	 2.96191191513484E-02 
377	 2.79477582740716E-02 
378	 2.65458963223832E-02 
379	 2.73681680015843E-02 
380	 2.85756543996909E-02 
381	 2.91786188542076E-02 
382	 2.96745788210317E-02 
383	 3.02649626001914E-02 
384	 3.11451626913648E-02 
385	 3.01781973445444E-02 
386	 2.78987545418728E-02 
387	 2.74716455311487E-02 
388	 0.027583038534358 
389	 2.75803008481621E-02 
390	 2.73289494638098E-02 
391	 2.72720116003195E-02 
392	 2.79245236779428E-02 
393	 2.93390999280196E-02 
394	 3.05540524689869E-02 
395	 2.89139070529682E-02 
396	 2.77420547647405E-02 
397	 2.82076413090495E-02 
398	 2.80221306051436E-02 
399	 0.027911087263683 
400	 2.87479900872525E-02 
401	 2.87751125203671E-02 
402	 2.81201364434588E-02 
403	 2.78158212530023E-02 
404	 2.77954742800045E-02 
405	 2.78693397139149E-02 
406	 0.026901502868955 
407	 2.60233123458363E-02 
408	 2.66937310535366E-02 
409	 2.74348230049729E-02 
410	 0.027740188315068 
411	 2.71773129915046E-02 
412	 2.68581756319161E-02 
413	 2.72008739868104E-02 
414	 2.71556757500548E-02 
415	 2.68780809085607E-02 
416	 2.66959040368994E-02 
417	 2.67025694183014E-02 
418	 2.68415029250416E-02 
419	 2.68359342730812E-02 
420	 2.68710904610701E-02 
421	 2.70001511531472E-02 
422	 2.68414862944064E-02 
423	 2.66878495108127E-02 
424	 2.70219987581551E-02 
425	 2.70500068774881E-02 
426	 0.026727015495655 
427	 2.66353123841591E-02 
428	 2.67006880990416E-02 
429	 2.68597657433077E-02 
430	 2.70369435938372E-02 
431	 2.70426579920683E-02 
432	 2.65559190122413E-02 
433	 2.69300485197597E-02 
434	 2.78968363108705E-02 
435	 2.71007511264847E-02 
436	 2.63538153130199E-02 
437	 2.67729445921594E-02 
438	 2.68218875826616E-02 
439	 2.65552540412287E-02 
440	 2.64595276046657E-02 
441	 2.64018266153709E-02 
442	 2.63967494728688E-02 
443	 2.66708769538947E-02 
444	 2.66752775185046E-02 
445	 2.60612735982481E-02 
446	 2.61304457481738E-02 
447	 2.66531359700445E-02 
448	 2.66363427979605E-02 
449	 2.65770559737218E-02 
450	 2.66463769929344E-02 
451	 2.69585605837858E-02 
452	 2.70875533843269E-02 
453	 2.66572526486892E-02 
454	 2.66769109422993E-02 
455	 0.027074807350828 
456	 2.70800686728154E-02 
457	 0.027053994282853 
458	 2.71039915224471E-02 
459	 0.027036954277025 
460	 2.69649581897888E-02 
461	 2.70273303987409E-02 
462	 2.68116337391141E-02 
463	 2.64430249176861E-02 
464	 2.65644301573707E-02 
465	 2.68569877162276E-02 
466	 2.70815859924658E-02 
467	 2.68152403104156E-02 
468	 2.64328466941473E-02 
469	 0.026544918357681 
470	 2.68700722663408E-02 
471	 2.71853179550324E-02 
472	 0.026990619392142 
473	 2.68382614628489E-02 
474	 2.70180921208218E-02 
475	 2.67560620388983E-02 
476	 2.63699893433888E-02 
477	 2.65762090485188E-02 
478	 2.69388484495348E-02 
479	 2.71678137992221E-02 
480	 2.66461318250705E-02 
481	 2.61862836225896E-02 
482	 2.64341114043934E-02 
483	 2.67677421517064E-02 
484	 2.70075979614505E-02 
485	 2.69720826599669E-02 
486	 2.70810211051249E-02 
487	 2.73981678570915E-02 
488	 2.73863214058747E-02 
489	 2.72240686040252E-02 
490	 0.02714207032777 
491	 2.73051295373975E-02 
492	 2.75084166103284E-02 
493	 2.70544288133653E-02 
494	 2.68620690719364E-02 
495	 2.72381118942597E-02 
496	 2.73514704753687E-02 
497	 2.73521455252604E-02 
498	 2.75356409051121E-02 
499	 2.76736819483862E-02 
500	 2.77598105299886E-02 
501	 2.79559052945312E-02 
502	 2.81606370904592E-02 
503	 2.83028130673445E-02 
504	 2.83389174172465E-02 
505	 2.83921124267847E-02 
506	 0.028670474346754 
507	 2.89474863769749E-02 
508	 2.91883102641628E-02 
509	 0.029508938866494 
510	 0.02994445550876 
511	 3.04935164899966E-02 
512	 3.08752693828716E-02 
513	 3.10532518408477E-02 
514	 3.10081181756536E-02 
515	 3.12331461771947E-02 
516	 3.18484586345067E-02 
517	 3.23293731928604E-02 
518	 3.27304734628525E-02 
519	 3.31506340236143E-02 
520	 3.35879668968822E-02 
521	 3.40892250712362E-02 
522	 3.48086673757482E-02 
523	 3.54221012373321E-02 
524	 0.035780380189153 
525	 3.59360243396097E-02 
526	 3.62205894398346E-02 
527	 3.70896649243198E-02 
528	 3.74218840647761E-02 
529	 3.72595560417083E-02 
530	 3.77790073995125E-02 
531	 3.86156159185292E-02 
532	 0.039454927391891 
533	 3.98257238779461E-02 
534	 3.98040689438089E-02 
535	 3.96440241827212E-02 
536	 0.039853496507847 
537	 4.04703957370659E-02 
538	 4.07349925006266E-02 
539	 4.08673371616803E-02 
540	 4.11062875646968E-02 
541	 4.12252790906708E-02 
542	 4.12747776954592E-02 
543	 4.14649926525994E-02 
544	 4.17890492836524E-02 
545	 4.21986749838442E-02 
546	 4.24209252944375E-02 
547	 4.25215739758962E-02 
548	 4.26232910004328E-02 
549	 4.25905567853084E-02 
550	 4.25381805507386E-02 
551	 4.29350721827291E-02 
552	 4.33379909477075E-02 
553	 4.34748479646104E-02 
554	 4.36524126775154E-02 
555	 4.37831530843627E-02 
556	 4.36078837435721E-02 
557	 4.36698907521233E-02 
558	 4.39842444763534E-02 
559	 4.37441212374573E-02 
560	 4.34320306719192E-02 
561	 4.35043152560443E-02 
562	 4.35036948104357E-02 
563	 4.34126873292291E-02 
564	 4.33957660599413E-02 
565	 4.34617571419634E-02 
566	 4.35503486094837E-02 
567	 4.32947661796466E-02 
568	 4.28634285549415E-02 
569	 4.25150455312885E-02 
570	 4.21937287087761E-02 
571	 4.19411843835576E-02 
572	 4.18993160380526E-02 
573	 4.18390376395741E-02 
574	 4.16421990324305E-02 
575	 4.16793806265037E-02 
576	 4.16291636739536E-02 
577	 4.07829011129151E-02 
578	 4.04301856443253E-02 
579	 4.07662640029748E-02 
580	 4.06343655332997E-02 
581	 4.05189163620469E-02 
582	 0.040822628458498 
583	 4.05830861330346E-02 
584	 3.99999991876354E-02 
585	 4.00137097726462E-02 
586	 0.040157887487871 
587	 4.02023501666505E-02 
588	 3.98988289941802E-02 
589	 3.94265013275614E-02 
590	 3.90724190712806E-02 
591	 3.89702322969122E-02 
592	 3.90951157662926E-02 
593	 3.92431260081963E-02 
594	 3.93279658901819E-02 
595	 3.92899277515383E-02 
596	 3.91666339545488E-02 
597	 3.90276641339496E-02 
598	 3.89773725220388E-02 
599	 3.89227741185383E-02 
600	 3.88662765293163E-02 
601	 3.89505040786975E-02 
602	 3.90038846604896E-02 
603	 3.88838925373482E-02 
604	 0.038818498112337 
605	 3.88161779084397E-02 
606	 3.88321083356998E-02 
607	 3.86025075209736E-02 
608	 3.81196187462177E-02 
609	 3.80386771028176E-02 
610	 3.81771385629507E-02 
611	 0.038224192298197 
612	 3.81264630784777E-02 
613	 3.78513471563551E-02 
614	 3.73508885084569E-02 
615	 3.69874374847796E-02 
616	 3.69874779777951E-02 
617	 3.71901468945805E-02 
618	 3.72974696826948E-02 
619	 3.68398157926133E-02 
620	 3.65368790241347E-02 
621	 3.65412601340811E-02 
622	 3.64543980558959E-02 
623	 3.63726777058819E-02 
624	 3.64048277281359E-02 
625	 3.67408060898976E-02 
626	 3.70847430688079E-02 
627	 3.65746457760459E-02 
628	 3.61464858061501E-02 
629	 3.61666104152745E-02 
630	 3.62984720952797E-02 
631	 3.63980984998355E-02 
632	 3.63269255536701E-02 
633	 0.036537897795759 
634	 3.69113336642948E-02 
635	 3.67473474361373E-02 
636	 3.63663048466014E-02 
637	 3.59978648787792E-02 
638	 3.58339817251348E-02 
639	 3.57588983577848E-02 
640	 3.55238300655635E-02 
641	 0.035148915805047 
642	 3.46621105916466E-02 
643	 3.41555388869329E-02 
644	 3.37259140264411E-02 
645	 3.34448621853214E-02 
646	 3.31198077917178E-02 
647	 3.29042838930176E-02 
648	 3.34111523090725E-02 
649	 3.33832895723214E-02 
650	 0.032527512191388 
651	 3.23790269309251E-02 
652	 3.25347108148279E-02 
653	 3.23615571743553E-02 
654	 0.03214679425243 
655	 3.19900544236568E-02 
656	 3.20400217661283E-02 
657	 3.22080663674953E-02 
658	 3.23518443883063E-02 
659	 3.19966075895552E-02 
660	 3.14630531383774E-02 
661	 3.13355978090687E-02 
662	 3.11622348186885E-02 
663	 0.030852072931745 
664	 3.05651120616239E-02 
665	 3.02994394335675E-02 
666	 3.00556876097059E-02 
667	 0.029881020448804 
668	 2.97850026219192E-02 
669	 2.97403560306827E-02 
670	 2.99285477868938E-02 
671	 3.02551408136814E-02 
672	 0.029827143602789 
673	 2.93478087014616E-02 
674	 2.96774784605238E-02 
675	 2.98016460844881E-02 
676	 2.96767701801401E-02 
677	 2.99101146051986E-02 
678	 0.030099797682594 
679	 3.00866171706578E-02 
680	 3.03646918341982E-02 
681	 3.07381268860632E-02 
682	 3.08045563053248E-02 
683	 3.09481522191647E-02 
684	 3.13492417016235E-02 
685	 3.22492130808052E-02 
686	 3.33745421803174E-02 
687	 3.44471355145303E-02 
688	 3.53453855411525E-02 
689	 3.62129936361875E-02 
690	 3.75827092005187E-02 
691	 3.91473932936684E-02 
692	 4.08302230290842E-02 
693	 0.042501369006232 
694	 4.43560907578115E-02 
695	 4.65142023862894E-02 
696	 4.89398768407042E-02 
697	 0.051424651819744 
698	 5.35150161179735E-02 
699	 5.60100104806769E-02 
700	 5.91466951508961E-02 
701	 6.19315635092823E-02 
702	 0.06447012319688 
703	 6.70812642433445E-02 
704	 6.99619218644969E-02 
705	 7.30310162650503E-02 
706	 7.57015482941944E-02 
707	 7.82726808815794E-02 
708	 8.09435058075989E-02 
709	 8.37371558930502E-02 
710	 8.64552129813511E-02 
711	 8.87445384061217E-02 
712	 9.10137510401618E-02 
713	 9.33810093050075E-02 
714	 9.58522178129517E-02 
715	 9.80575785148397E-02 
716	 9.97691387882124E-02 
717	 0.101479280390129 
718	 0.103503220068802 
719	 0.105953963649423 
720	 0.108504154158563 
721	 0.110714803453484 
722	 0.112272841639905 
723	 0.113596754098339 
724	 0.114995310246025 
725	 0.116403932027754 
726	 0.117769119014834 
727	 0.119370833987934 
728	 0.120525294551182 
729	 0.121083705644186 
730	 0.122564815089883 
731	 0.124287746475985 
732	 0.125103162520492 
733	 0.125850523895097 
734	 0.126732312739756 
735	 0.12765038027801 
736	 0.128680340730189 
737	 0.129788664686155 
738	 0.130564318900429 
739	 0.131153383416972 
740	 0.131951265627591 
741	 0.132456663966903 
742	 0.132712672493576 
743	 0.133528633645586 
744	 0.134437340980432 
745	 0.135034786306242 
746	 0.13556463594946 
747	 0.13602395404252 
748	 0.136282489075316 
749	 0.136752226878801 
750	 0.137457377988726 
751	 0.137628530470833 
752	 0.137698091191973 
753	 0.138173061950092 
754	 0.138762785986292 
755	 0.139325455811703 
756	 0.139674382766819 
757	 0.13981864747987 
758	 0.139808824126075 
759	 0.140006116946523 
760	 0.140415336491923 
761	 0.140441430382926 
762	 0.140078822198086 
763	 0.139895738788478 
764	 0.140719877172152 
765	 0.142007315880111 
766	 0.143241693308148 
767	 0.143523741058072 
768	 0.143505283966731 
769	 0.143920917982767 
770	 0.144502597219318 
771	 0.145091652678758 
772	 0.145358093206665 
773	 0.145398170583326 
774	 0.145358013929103 
775	 0.145855824635359 
776	 0.146645433204731 
777	 0.147146913680105 
778	 0.147412978854041 
779	 0.147471644249593 
780	 0.147414715618494 
781	 0.147564210617611 
782	 0.148143107720528 
783	 0.148733709521522 
784	 0.149131387176436 
785	 0.149075528300569 
786	 0.148992924305667 
787	 0.149095270667617 
788	 0.149565270183507 
789	 0.149976732495087 
790	 0.149952037142657 
791	 0.150152577666005 
792	 0.15049584961775 
793	 0.150467313981577 
794	 0.150485284887015 
795	 0.150662277771532 
796	 0.150739374634231 
797	 0.150872678286559 
798	 0.151233581609452 
799	 0.151891891891892 
800	 0.15253512309017 
801	 0.152241961220814 
802	 0.152183059712596 
803	 0.152753505494008 
804	 0.153327907596123 
805	 0.153621097035801 
806	 0.153419590231768 
807	 0.153405478522413 
808	 0.15370831910613 
809	 0.154229979581917 
810	 0.154837477135906 
811	 0.155329799764429 
812	 0.155062691294845 
813	 0.154444291460591 
814	 0.154125535807678 
815	 0.154423286016101 
816	 0.155302066106818 
817	 0.156287513023365 
818	 0.156875872985696 
819	 0.156994337688914 
820	 0.157866857971637 
821	 0.158318541327296 
822	 0.156943052073496 
823	 0.157259831325035 
824	 0.159171875372363 
825	 0.160127573413795 
826	 0.160623183095307 
827	 0.160751111976348 
828	 0.159952714731771 
829	 0.15943522645138 
830	 0.160640145970868 
831	 0.161435663831977 
832	 0.161564859935169 
833	 0.161744281211632 
834	 0.16208822500696 
835	 0.162596574616162 
836	 0.162772545189315 
837	 0.16296889060175 
838	 0.163616805882027 
839	 0.164543622657178 
840	 0.16532690892516 
841	 0.164853061159958 
842	 0.164683030840338 
843	 0.165338943811756 
844	 0.165532214075552 
845	 0.165506789673949 
846	 0.165645933114348 
847	 0.165696719648428 
848	 0.16569146225664 
849	 0.165801584508084 
850	 0.166187162904619 
851	 0.166767560126569 
852	 0.166685627594977 
853	 0.166306342167369 
854	 0.166151927460008 
855	 0.167040739987058 
856	 0.168220116126035 
857	 0.167442809497396 
858	 0.166676283043079 
859	 0.166549049245681 
860	 0.166389194506982 
861	 0.166787449879984 
862	 0.168170328142633 
863	 0.168064754916915 
864	 0.167220375372909 
865	 0.168639829735396 
866	 0.169234338025468 
867	 0.168377542117501 
868	 0.1682693821662 
869	 0.168708364342633 
870	 0.169455609320295 
871	 0.170733829212626 
872	 0.171762755880997 
873	 0.170972795345088 
874	 0.171258428551602 
875	 0.172880510261818 
876	 0.172903267783273 
877	 0.173060191353437 
878	 0.174386945937324 
879	 0.174471273576019 
880	 0.174130151749678 
881	 0.175182668524673 
882	 0.176447670199169 
883	 0.177416495323894 
884	 0.177632917901952 
885	 0.177211902570785 
886	 0.176571152728262 
887	 0.177851942577916 
888	 0.179726564390031 
889	 0.18013828421366 
890	 0.179922864175505 
891	 0.179475351447224 
892	 0.179369117505181 
893	 0.179912188898468 
894	 0.180835658845772 
895	 0.179254855949457 
896	 0.177512622670989 
897	 0.178680967341806 
898	 0.179840189758417 
899	 0.180720196369749 
900	 0.182552953323313 
901	 0.182220395398196 
902	 0.179809919550211 
903	 0.180367753596652 
904	 0.181711822419585 
905	 0.182044919127978 
906	 0.182509822212268 
907	 0.182742447094487 
908	 0.181810596117187 
909	 0.182504503823615 
910	 0.184332693794044 
911	 0.181980875679217 
912	 0.180098294280089 
913	 0.181329518010832 
914	 0.183348360777463 
915	 0.184756215667469 
916	 0.184224936078926 
917	 0.182427775085774 
918	 0.180927567124061 
919	 0.18344628394726 
920	 0.184798543072152 
921	 0.183774464636512 
922	 0.184459390019323 
923	 0.185296561176264 
924	 0.184778018018614 
925	 0.184305771482557 
926	 0.183669577648923 
927	 0.181922851437619 
928	 0.179091927353822 
929	 0.176142205023916 
930	 0.17765394011287 
931	 0.179601345962749 
932	 0.17840333641325 
933	 0.17646945065495 
934	 0.174191357494907 
935	 0.1717084353486 
936	 0.167559230160512 
937	 0.164386457614101 
938	 0.170309131739138 
939	 0.169359922683304 
940	 0.160019674382184 
941	 0.160115895197471 
942	 0.16178692228734 
943	 0.159734423945422 
944	 0.163487702138215 
945	 0.16852553914341 
946	 0.166220269305129 
947	 0.163885867645853 
948	 0.162953564478985 
949	 0.162024426435773 
950	 0.159522521235012 
951	 0.155652037334341 
952	 0.156075951957595 
953	 0.1554161017179 
954	 0.149558600820005 
955	 0.151312000202221 
956	 0.157254826822563 
957	 0.158032993440023 
958	 0.155884894050313 
959	 0.152836701771134 
960	 0.15370196325104 
961	 0.153034996624376 
962	 0.149532814193262 
963	 0.150645954084933 
964	 0.15370604946198 
965	 0.155783985275357 
966	 0.158976676050342 
967	 0.160730151932134 
968	 0.155472662991301 
969	 0.153839230202169 
970	 0.157180487366366 
971	 0.158883191025914 
972	 0.158757427853077 
973	 0.156861512589358 
974	 0.154516113943589 
975	 0.153212940401564 
976	 0.154233127791185 
977	 0.155873159514673 
978	 0.157452285758166 
979	 0.158509625775921 
980	 0.157732443586369 
981	 0.156469798523932 
982	 0.161574200422071 
983	 0.163146271147729 
984	 0.15769868688258 
985	 0.158477221905198 
986	 0.161847919445857 
987	 0.162714039851908 
988	 0.164382515400401 
989	 0.165920994525927 
990	 0.16463917396915 
991	 0.160858437904388 
992	 0.157355038518531 
993	 0.163521440254029 
994	 0.166666827959227 
995	 0.161999265160634 
996	 0.162881834837881 
997	 0.164504370904822 
998	 0.161734369798139 
999	 0.162268184509864 
1000	 0.164478799338407 
1001	 0.163387917793594 
1002	 0.164502089750113 
1003	 0.167979077818019 
1004	 0.170517691742122 
1005	 0.168285505111491 
1006	 0.163085332852325 
1007	 0.172947885875173 
1008	 0.180149487074471 
1009	 0.172123234856451 
1010	 0.16989915897315 
1011	 0.17040965401804 
1012	 0.165971893060631 
1013	 0.171358118623118 
1014	 0.182178159855768 
1015	 0.180746233540334 
1016	 0.175846163623054 
1017	 0.171271425790055 
1018	 0.170513209329288 
1019	 0.172284848185944 
1020	 0.175927954014044 
1021	 0.18418073015809 
1022	 0.18611404483491 
1023	 0.173246007842422 
1024	 0.17332931005707 
1025	 0.181027826957373 
1026	 0.179953581600733 
1027	 0.175710908504472 
1028	 0.173223623107017 
1029	 0.18516023903173 
1030	 0.183697640316984 
1031	 0.1662022337576 
1032	 0.16886555778624 
1033	 0.175339918527464 
1034	 0.176008749618682 
1035	 0.18483920436997 
1036	 0.19147551287971 
1037	 0.185441947833321 
1038	 0.187373925722811 
1039	 0.190641120283257 
1040	 0.178436130670109 
1041	 0.180150289457126 
1042	 0.192056291454502 
1043	 0.177683304722186 
1044	 0.174123874830871 
1045	 0.187722405956567 
1046	 0.185134775041161 
1047	 0.181108743158572 
1048	 0.183015735475297 
1049	 0.178863070296596 
1050	 0.177729460859482 
1051	 0.185067807799488 
1052	 0.156314589164596 
1053	 0.123880184468828 
1054	 0.14808385073407 
1055	 0.179235277349252 
1056	 0.197395385157338 
1057	 0.17830170788777 
1058	 0.178725782710594 
1059	 0.201502882440564 
1060	 0.18411100810783 
1061	 0.165356749667087 
1062	 0.160167804409671 
1063	 0.147033758797133 
1064	 0.151129433915015 
1065	 0.181311541998599 
1066	 0.175673591619396 
1067	 0.158132532326834 
1068	 0.161929436405294 
1069	 0.169697221555264 
1070	 0.172405066298517 
1071	 0.161410244531638 
1072	 0.155226163575831 
1073	 0.154671984354326 
1074	 0.149420976753187 
1075	 0.158661694912917 
