Wavelength	AVEI200327.asd
325	 6.53947752940974E-02 
326	 0.071682031300901 
327	 6.66068373567495E-02 
328	 7.66453609769948E-02 
329	 7.77174735095837E-02 
330	 0.064835557499738 
331	 0.059356639925672 
332	 6.11450265118967E-02 
333	 6.80046215945129E-02 
334	 6.85682632856021E-02 
335	 6.47438134238742E-02 
336	 6.62154139733104E-02 
337	 6.64046419657378E-02 
338	 6.48427718737861E-02 
339	 6.85629587189088E-02 
340	 7.19102537128579E-02 
341	 7.02737278404392E-02 
342	 6.63125994299777E-02 
343	 6.13664674931134E-02 
344	 5.65933459915025E-02 
345	 5.50301989435643E-02 
346	 5.67150096003368E-02 
347	 5.83285197945472E-02 
348	 5.98781592310171E-02 
349	 0.061130481287805 
350	 0.059781138049116 
351	 5.81155577549775E-02 
352	 6.02125625342617E-02 
353	 5.85932353565049E-02 
354	 5.41955774990975E-02 
355	 5.72473446195797E-02 
356	 6.11511500560348E-02 
357	 0.061588483016672 
358	 5.83515642740845E-02 
359	 5.57036776546333E-02 
360	 5.99307539142721E-02 
361	 6.10057975718058E-02 
362	 5.80745765950921E-02 
363	 5.67554443280599E-02 
364	 5.68299683686103E-02 
365	 5.79959194856611E-02 
366	 5.93715311608921E-02 
367	 5.94472038930938E-02 
368	 5.64577700926249E-02 
369	 5.39785773075131E-02 
370	 5.33968833053551E-02 
371	 5.61322079157427E-02 
372	 5.86497075415742E-02 
373	 5.88303945762704E-02 
374	 5.70093243221559E-02 
375	 5.53376727392238E-02 
376	 5.65234056706413E-02 
377	 5.66702971621971E-02 
378	 5.54794900619868E-02 
379	 5.49318486666336E-02 
380	 5.52438936797405E-02 
381	 5.63486478408856E-02 
382	 5.70847456477417E-02 
383	 5.64590720073791E-02 
384	 5.34416565307136E-02 
385	 5.36315369689358E-02 
386	 5.61214451126415E-02 
387	 5.37367947869784E-02 
388	 5.24773628512278E-02 
389	 5.40246313817015E-02 
390	 5.17176554636219E-02 
391	 4.91876290462576E-02 
392	 5.11445185331031E-02 
393	 5.20979302393196E-02 
394	 0.051601293384338 
395	 0.052173554444152 
396	 5.15250938998902E-02 
397	 4.92971770785685E-02 
398	 4.83755470077763E-02 
399	 4.82948247146775E-02 
400	 4.83083957330747E-02 
401	 4.89503608549691E-02 
402	 0.049773548981968 
403	 4.96320918558905E-02 
404	 4.91706027464264E-02 
405	 4.87770980024189E-02 
406	 0.049039573467021 
407	 4.94156292170599E-02 
408	 4.91896724926935E-02 
409	 4.89948425763236E-02 
410	 4.89191062393117E-02 
411	 4.87702501169032E-02 
412	 4.87533833133838E-02 
413	 4.88891793949314E-02 
414	 0.048681365803242 
415	 4.83960454102093E-02 
416	 4.84327832540947E-02 
417	 4.81378958298864E-02 
418	 4.76885005655884E-02 
419	 4.81539401899039E-02 
420	 4.84027571249877E-02 
421	 4.79218909523528E-02 
422	 4.77738505263901E-02 
423	 4.78013852282192E-02 
424	 4.75963966112864E-02 
425	 4.74778591006838E-02 
426	 4.75459446937535E-02 
427	 0.047831105537088 
428	 0.048315236419247 
429	 4.88583049898257E-02 
430	 4.85852351277881E-02 
431	 0.047954786117683 
432	 4.79139931948959E-02 
433	 4.78170188983217E-02 
434	 0.047639415364079 
435	 4.79078694270997E-02 
436	 4.80620840916353E-02 
437	 4.77678067432717E-02 
438	 4.75833196282966E-02 
439	 0.047561349471529 
440	 4.76286833927959E-02 
441	 4.78652541042667E-02 
442	 4.81797902184207E-02 
443	 4.82055784627189E-02 
444	 4.79553676110794E-02 
445	 4.75148381807127E-02 
446	 4.76399414449175E-02 
447	 4.80016933529298E-02 
448	 4.75047138023583E-02 
449	 0.047512231178804 
450	 4.82168048556186E-02 
451	 4.81544593992718E-02 
452	 4.79955824654079E-02 
453	 4.84443898794897E-02 
454	 0.048569137348666 
455	 4.84101495151415E-02 
456	 4.85967078959428E-02 
457	 4.86949383558165E-02 
458	 4.86136948727232E-02 
459	 4.89189122497756E-02 
460	 4.90626572343601E-02 
461	 4.83833391090802E-02 
462	 4.82233869897358E-02 
463	 4.85899857911729E-02 
464	 4.84605616412055E-02 
465	 4.84612713969201E-02 
466	 4.88128132677537E-02 
467	 4.87552880283034E-02 
468	 4.85246522451953E-02 
469	 4.85879348472455E-02 
470	 4.85645753608927E-02 
471	 4.83889445193512E-02 
472	 4.81149746182554E-02 
473	 4.81005520976773E-02 
474	 4.85247748971994E-02 
475	 4.89002627014639E-02 
476	 4.90311663619999E-02 
477	 4.87051902538591E-02 
478	 4.85017477960473E-02 
479	 4.85781030395455E-02 
480	 4.87408035950886E-02 
481	 4.88711472119366E-02 
482	 4.88602414442395E-02 
483	 4.84768092961944E-02 
484	 4.81876286499503E-02 
485	 4.92959287995131E-02 
486	 4.97328871916809E-02 
487	 4.90092665308876E-02 
488	 4.90135095011378E-02 
489	 4.92129157812694E-02 
490	 4.89717390300768E-02 
491	 4.89496821093237E-02 
492	 4.90963887976827E-02 
493	 4.89493614093214E-02 
494	 4.87450838589894E-02 
495	 4.86608352692333E-02 
496	 4.90842580924243E-02 
497	 4.96503453913951E-02 
498	 4.98519522586296E-02 
499	 5.00354848511156E-02 
500	 5.02726094380627E-02 
501	 5.05854358781592E-02 
502	 5.05754340043297E-02 
503	 5.01628325046895E-02 
504	 5.06692221478739E-02 
505	 5.16003995859445E-02 
506	 5.18648237900949E-02 
507	 5.21932728220808E-02 
508	 5.26916071522302E-02 
509	 5.30016559554088E-02 
510	 5.31832853093784E-02 
511	 5.33363722004266E-02 
512	 5.39508130779735E-02 
513	 5.48372564329965E-02 
514	 5.53438040008859E-02 
515	 0.05601503801966 
516	 5.69130273052067E-02 
517	 5.73334863542252E-02 
518	 5.76752251919648E-02 
519	 5.83991575726038E-02 
520	 5.90496687335244E-02 
521	 5.95530540030401E-02 
522	 5.99524147689828E-02 
523	 6.04553435938706E-02 
524	 6.11431229028149E-02 
525	 6.18112032931945E-02 
526	 6.24001611105922E-02 
527	 0.062852270615687 
528	 6.34239379688177E-02 
529	 6.40581958670066E-02 
530	 6.43448154502436E-02 
531	 6.45434700617357E-02 
532	 0.064855496175692 
533	 6.54052119418823E-02 
534	 6.60244831478059E-02 
535	 6.63614015772482E-02 
536	 0.066592001944413 
537	 6.68576193905532E-02 
538	 6.75857362019577E-02 
539	 6.81224861046634E-02 
540	 6.78636142491905E-02 
541	 6.77928863536427E-02 
542	 6.80691435334816E-02 
543	 0.068590618615125 
544	 6.88526817474807E-02 
545	 6.87445859392947E-02 
546	 0.069104854097648 
547	 6.96655318237123E-02 
548	 6.99777293897356E-02 
549	 7.00327357705084E-02 
550	 6.99933317548205E-02 
551	 7.04533786097414E-02 
552	 7.08448531411914E-02 
553	 7.08409569312496E-02 
554	 7.09258944761707E-02 
555	 0.071153059530073 
556	 7.15223029144968E-02 
557	 7.15966699555452E-02 
558	 7.13034186592855E-02 
559	 7.10416742566219E-02 
560	 7.09490953726078E-02 
561	 0.071110719001714 
562	 7.11562874291228E-02 
563	 7.10718720725332E-02 
564	 7.10463868847249E-02 
565	 0.070924573049429 
566	 0.070674327111409 
567	 0.070486448894567 
568	 7.03208739954568E-02 
569	 7.01035372597061E-02 
570	 6.99885024450616E-02 
571	 6.99174414070468E-02 
572	 6.95885323652699E-02 
573	 6.91482542700202E-02 
574	 6.87330721104445E-02 
575	 6.86681059682611E-02 
576	 0.068761771404493 
577	 6.85741087231876E-02 
578	 6.85394971187752E-02 
579	 6.86088105252236E-02 
580	 6.80103409315335E-02 
581	 6.73022990645785E-02 
582	 6.70151237377661E-02 
583	 6.71357335180774E-02 
584	 6.73731909955474E-02 
585	 6.69461827252545E-02 
586	 6.67820461093512E-02 
587	 0.067147201754508 
588	 6.71918231699734E-02 
589	 6.70573805315401E-02 
590	 6.70317651427319E-02 
591	 6.65365668139944E-02 
592	 6.57952706466379E-02 
593	 6.59264301502844E-02 
594	 6.59261654004153E-02 
595	 6.53319692893495E-02 
596	 6.54625451667191E-02 
597	 6.59716054998784E-02 
598	 0.065964943617168 
599	 6.58748768197293E-02 
600	 6.58040682657562E-02 
601	 6.57132290598926E-02 
602	 6.54705346812535E-02 
603	 6.50229176538585E-02 
604	 6.52368880960287E-02 
605	 6.57973430974355E-02 
606	 6.55317707474993E-02 
607	 6.51548013025391E-02 
608	 6.49412911778795E-02 
609	 6.48006416177684E-02 
610	 6.46671920009076E-02 
611	 6.44629552947654E-02 
612	 6.42908272724373E-02 
613	 6.41104094343406E-02 
614	 6.36445127106354E-02 
615	 6.34817495829114E-02 
616	 6.38687875305054E-02 
617	 0.063664855019214 
618	 6.31489225766227E-02 
619	 6.30781426653125E-02 
620	 6.29824040034949E-02 
621	 6.28120021114507E-02 
622	 6.29592286945761E-02 
623	 6.30235879836151E-02 
624	 6.26491827723949E-02 
625	 6.21391258695367E-02 
626	 6.17633552575282E-02 
627	 0.062032779635196 
628	 6.23551808595938E-02 
629	 6.24650523971692E-02 
630	 6.23821788883522E-02 
631	 6.24322085344949E-02 
632	 6.29990531994936E-02 
633	 6.26744986236728E-02 
634	 6.16556382623849E-02 
635	 6.17392532449845E-02 
636	 6.18652066283042E-02 
637	 0.061407533767192 
638	 6.06035126043681E-02 
639	 5.99761566968449E-02 
640	 6.04471156546988E-02 
641	 6.03782486548807E-02 
642	 0.059430771338483 
643	 5.85288353427527E-02 
644	 5.80495165219126E-02 
645	 0.058208280805273 
646	 5.75711937383401E-02 
647	 5.64844423218516E-02 
648	 5.66789606622251E-02 
649	 5.65566365660201E-02 
650	 5.57209753279448E-02 
651	 5.56784595122768E-02 
652	 5.60260460327241E-02 
653	 5.61386680130248E-02 
654	 5.59420411961306E-02 
655	 5.54802019349039E-02 
656	 5.51078593563861E-02 
657	 5.47652095409868E-02 
658	 0.054473353013806 
659	 5.45682216270563E-02 
660	 5.46058945705069E-02 
661	 5.38224989269786E-02 
662	 5.31756931787335E-02 
663	 5.29427431621669E-02 
664	 5.29824350587313E-02 
665	 5.29868596949175E-02 
666	 5.26869911648515E-02 
667	 5.20057660806372E-02 
668	 5.13241011437973E-02 
669	 5.16349563069237E-02 
670	 5.16525207761351E-02 
671	 5.10617457991589E-02 
672	 0.051023178925868 
673	 5.11242804870958E-02 
674	 5.08065163896419E-02 
675	 5.08018828107802E-02 
676	 5.11192499260341E-02 
677	 5.12870145335312E-02 
678	 5.14194952207554E-02 
679	 5.15799938170571E-02 
680	 5.17626868261593E-02 
681	 5.21586614200011E-02 
682	 5.30613237709436E-02 
683	 5.39494070761313E-02 
684	 5.47899555080075E-02 
685	 5.62142358692508E-02 
686	 5.76717430175727E-02 
687	 5.86901906956862E-02 
688	 6.03065380520671E-02 
689	 6.23304443163429E-02 
690	 6.42996000754721E-02 
691	 6.58346203567665E-02 
692	 6.71962304418226E-02 
693	 0.070063895560166 
694	 7.33935440467543E-02 
695	 7.58819806300437E-02 
696	 7.79224307413141E-02 
697	 7.99547951641493E-02 
698	 8.30321213142405E-02 
699	 8.61643264790835E-02 
700	 8.88897683797048E-02 
701	 9.18625686825973E-02 
702	 9.48520190507496E-02 
703	 9.74812579608138E-02 
704	 0.10014031332659 
705	 0.102874599287496 
706	 0.105453270493364 
707	 0.107688315045484 
708	 0.109518136268615 
709	 0.111640889531246 
710	 0.113874689060621 
711	 0.115682677105922 
712	 0.117547510401264 
713	 0.11959718413617 
714	 0.121812495625417 
715	 0.123745183241576 
716	 0.125092510040605 
717	 0.126720095922074 
718	 0.128565111398719 
719	 0.129348717167138 
720	 0.130881345458688 
721	 0.133244937508474 
722	 0.134271671287905 
723	 0.134749734255894 
724	 0.135531548782005 
725	 0.136496778351218 
726	 0.137622976849911 
727	 0.13915597002292 
728	 0.140146913712066 
729	 0.140270840766164 
730	 0.141001834656414 
731	 0.141996043881614 
732	 0.142538265138402 
733	 0.143216316386007 
734	 0.143943182929984 
735	 0.143864338949401 
736	 0.14401653156407 
737	 0.145014644031065 
738	 0.14578976990115 
739	 0.146265233644549 
740	 0.146578754596733 
741	 0.147147363513952 
742	 0.147911953317087 
743	 0.147993260180855 
744	 0.148027077945318 
745	 0.148530831162039 
746	 0.148613327215481 
747	 0.148621655759592 
748	 0.149881344488083 
749	 0.150374042667481 
750	 0.149738754240002 
751	 0.15036606325229 
752	 0.151178507815033 
753	 0.150921834848264 
754	 0.151241369085132 
755	 0.151933480079532 
756	 0.151423526932297 
757	 0.151034572625617 
758	 0.151372235665082 
759	 0.152162504495452 
760	 0.153781215145327 
761	 0.155411025522772 
762	 0.156029283164714 
763	 0.155818034520496 
764	 0.155659669220405 
765	 0.155602299274123 
766	 0.155607863569725 
767	 0.15524546752351 
768	 0.154878659411368 
769	 0.154946433507884 
770	 0.155291584338446 
771	 0.155778946356538 
772	 0.156088729335208 
773	 0.156245193549651 
774	 0.156309523577935 
775	 0.156675500196602 
776	 0.157164179610137 
777	 0.157361317250988 
778	 0.157424978863118 
779	 0.157471589745487 
780	 0.157759472964604 
781	 0.158174460108398 
782	 0.158593626875096 
783	 0.158822091339964 
784	 0.158880110604348 
785	 0.158864040801782 
786	 0.159089159848177 
787	 0.159481952326265 
788	 0.159061860972567 
789	 0.158709243412851 
790	 0.15926325728657 
791	 0.160004896034471 
792	 0.160712243764381 
793	 0.161308830937121 
794	 0.161237481810855 
795	 0.160617142941656 
796	 0.161135362255929 
797	 0.161911120398469 
798	 0.161981362661747 
799	 0.161911969256019 
800	 0.161919600782138 
801	 0.162333069910893 
802	 0.162551133362099 
803	 0.162450441682905 
804	 0.162752664197064 
805	 0.163329950273894 
806	 0.163955342850325 
807	 0.164016047937694 
808	 0.163701794649341 
809	 0.163959517708989 
810	 0.164100870005169 
811	 0.163983264926784 
812	 0.164589278149038 
813	 0.165420213954862 
814	 0.165711646475136 
815	 0.165885172171703 
816	 0.166061322601194 
817	 0.166273260879993 
818	 0.166766083011622 
819	 0.167434285249815 
820	 0.167136989599694 
821	 0.166680573994164 
822	 0.167104714046328 
823	 0.168598557408203 
824	 0.170138042618778 
825	 0.168964703567633 
826	 0.167985829945825 
827	 0.16826122220571 
828	 0.168025863736372 
829	 0.168050763931843 
830	 0.169365661665027 
831	 0.169584463965687 
832	 0.168844806495915 
833	 0.169144540538778 
834	 0.169306619941033 
835	 0.169088185315154 
836	 0.170017058569202 
837	 0.171021601824145 
838	 0.170808670680105 
839	 0.1706061624598 
840	 0.170797330751813 
841	 0.171794479932196 
842	 0.172186451031238 
843	 0.171523903548711 
844	 0.171252154093936 
845	 0.171040026988875 
846	 0.170440147298145 
847	 0.171154258983463 
848	 0.172560054859305 
849	 0.171724833276892 
850	 0.171743860165244 
851	 0.173516238395471 
852	 0.174475387085896 
853	 0.174289670012301 
854	 0.172980533105676 
855	 0.172933095198157 
856	 0.173879749804664 
857	 0.173849443379046 
858	 0.173688386769925 
859	 0.173657303619927 
860	 0.173772483570233 
861	 0.173842992594828 
862	 0.173729481147588 
863	 0.174116082748031 
864	 0.174847694036247 
865	 0.175225716169885 
866	 0.175908740971327 
867	 0.176911977202611 
868	 0.177527576679314 
869	 0.17721760559519 
870	 0.175813350696778 
871	 0.17571214335389 
872	 0.176427368462582 
873	 0.176201048097566 
874	 0.176517214722637 
875	 0.177500529869981 
876	 0.17796016904934 
877	 0.17802844479918 
878	 0.177814579335731 
879	 0.177066993967564 
880	 0.177044606320232 
881	 0.179797066136953 
882	 0.180055150699419 
883	 0.177955130584329 
884	 0.179374760924496 
885	 0.181201239341308 
886	 0.181579964094767 
887	 0.180631026554041 
888	 0.179743076591363 
889	 0.180689600234068 
890	 0.180626505356154 
891	 0.179632518865892 
892	 0.180021227854877 
893	 0.181060226660006 
894	 0.18227523048289 
895	 0.182723354462399 
896	 0.182829842762283 
897	 0.183249628212645 
898	 0.184588859497687 
899	 0.185751376033058 
900	 0.183622419551485 
901	 0.182618247886594 
902	 0.183633496721021 
903	 0.183303823735167 
904	 0.182945634724303 
905	 0.183675373786863 
906	 0.185619763011733 
907	 0.187231308289387 
908	 0.185784680174962 
909	 0.183809786685216 
910	 0.182786544246677 
911	 0.184844338089435 
912	 0.18728471993468 
913	 0.188217613669086 
914	 0.187057784222309 
915	 0.18582427622566 
916	 0.18689918605133 
917	 0.185547539167092 
918	 0.182769345322464 
919	 0.183640510056817 
920	 0.185753898951852 
921	 0.187818261026249 
922	 0.188282982404147 
923	 0.1873275618033 
924	 0.185271954202076 
925	 0.182827375762696 
926	 0.181670887080192 
927	 0.185141459002096 
928	 0.185320956182095 
929	 0.181048405831748 
930	 0.182585195369955 
931	 0.186671907521388 
932	 0.190083983650758 
933	 0.190020809226174 
934	 0.18860955701117 
935	 0.189949604935208 
936	 0.18858608017377 
937	 0.185238229507436 
938	 0.185256440782894 
939	 0.181580120516993 
940	 0.175235518940672 
941	 0.180361662767921 
942	 0.18525154931779 
943	 0.182076524893529 
944	 0.181784789065503 
945	 0.183178649295803 
946	 0.181943546608753 
947	 0.180873684712676 
948	 0.18076717479461 
949	 0.182092398359993 
950	 0.182435534187022 
951	 0.180591480612635 
952	 0.176600500744648 
953	 0.172010448999834 
954	 0.168662272623783 
955	 0.17060648986942 
956	 0.174390132008385 
957	 0.17269773687849 
958	 0.173863115398862 
959	 0.176827433271058 
960	 0.170912260422792 
961	 0.166652186131834 
962	 0.168499403589698 
963	 0.171297198019113 
964	 0.169836670412681 
965	 0.160851682878716 
966	 0.162321718121344 
967	 0.170466960970564 
968	 0.172250654936884 
969	 0.170541527915916 
970	 0.167510274836172 
971	 0.168698530765802 
972	 0.171057977862787 
973	 0.172318902172152 
974	 0.1705671882009 
975	 0.167415794682122 
976	 0.165090372116104 
977	 0.165314529016685 
978	 0.167969101460071 
979	 0.172588716391148 
980	 0.16830000271999 
981	 0.157350261969023 
982	 0.159759920572107 
983	 0.165452758543668 
984	 0.168456464929266 
985	 0.170287163421562 
986	 0.170427038693517 
987	 0.168536699097759 
988	 0.167213320826979 
989	 0.167927508042337 
990	 0.17254615716955 
991	 0.173325203192826 
992	 0.170215655610689 
993	 0.172283123328361 
994	 0.173196539969842 
995	 0.170355473680822 
996	 0.16767537251676 
997	 0.168417854013194 
998	 0.174527347314152 
999	 0.176115450295937 
1000	 0.174696519187796 
1001	 0.176185922170245 
1002	 0.172851620133979 
1003	 0.167071803567936 
1004	 0.172475756011768 
1005	 0.180746761094503 
1006	 0.187058480022116 
1007	 0.188492187660425 
1008	 0.185787920003347 
1009	 0.180705420643128 
1010	 0.180359230955006 
1011	 0.183315247515685 
1012	 0.185852807653123 
1013	 0.183712231283348 
1014	 0.178044150479351 
1015	 0.17336065836242 
1016	 0.179671354461656 
1017	 0.19379508304648 
1018	 0.188487582916492 
1019	 0.179136310873372 
1020	 0.175461521788477 
1021	 0.1775682839307 
1022	 0.181118284890816 
1023	 0.182367366551638 
1024	 0.192178425006663 
1025	 0.200338069609655 
1026	 0.18853617656054 
1027	 0.17506129706774 
1028	 0.169047537697818 
1029	 0.183650600165813 
1030	 0.192931157982707 
1031	 0.190961883314352 
1032	 0.200532341878275 
1033	 0.205064601570505 
1034	 0.195115881163478 
1035	 0.181052045486025 
1036	 0.172830882025779 
1037	 0.178898168350066 
1038	 0.194237560770896 
1039	 0.205700841219507 
1040	 0.193831747523743 
1041	 0.19957732667693 
1042	 0.215246227622684 
1043	 0.183305063298556 
1044	 0.170509449241604 
1045	 0.191668267019827 
1046	 0.201863590052937 
1047	 0.205129849688172 
1048	 0.203843536261304 
1049	 0.202811288020946 
1050	 0.202144997036262 
1051	 0.201996663786474 
1052	 0.209441622615243 
1053	 0.212252299385707 
1054	 0.192028230260575 
1055	 0.188868897138649 
1056	 0.200128754089841 
1057	 0.199951960068271 
1058	 0.196060964219012 
1059	 0.192750701010098 
1060	 0.199369303446622 
1061	 0.203357072886606 
1062	 0.202536310627535 
1063	 0.222577656142725 
1064	 0.225086996316859 
1065	 0.189302604307424 
1066	 0.188166181945431 
1067	 0.205429016656843 
1068	 0.211486391772353 
1069	 0.218648576706044 
1070	 0.219384043508912 
1071	 0.199694338034145 
1072	 0.182342328681439 
1073	 0.173753909096453 
1074	 0.179785158343875 
1075	 0.203504266576275 
