Wavelength	AVEI200022.asd
325	 3.19938922133832E-02 
326	 3.19410528420078E-02 
327	 3.19948268306063E-02 
328	 3.21357561188459E-02 
329	 3.22789288307015E-02 
330	 3.23449683507827E-02 
331	 0.032410652902134 
332	 3.15166993276611E-02 
333	 2.89938452803832E-02 
334	 2.91516894787208E-02 
335	 3.11466712555177E-02 
336	 3.12042717651919E-02 
337	 3.24619684783273E-02 
338	 3.46481454772354E-02 
339	 3.21997175177807E-02 
340	 0.030175275890949 
341	 3.24875359465196E-02 
342	 3.30558107846263E-02 
343	 0.032362048843417 
344	 3.34137741953405E-02 
345	 3.19681357421674E-02 
346	 2.82159236954313E-02 
347	 2.67629572199958E-02 
348	 2.71135224168158E-02 
349	 2.85629068592043E-02 
350	 2.91407412115585E-02 
351	 2.90599729221406E-02 
352	 2.91926679126147E-02 
353	 2.88835565045587E-02 
354	 2.83191585137142E-02 
355	 2.87781284876876E-02 
356	 2.84685876012181E-02 
357	 2.68151562157104E-02 
358	 2.83189346174598E-02 
359	 3.06864775933116E-02 
360	 2.98096465742875E-02 
361	 2.84194566287776E-02 
362	 0.027572564637014 
363	 2.84787306615054E-02 
364	 2.88504733711888E-02 
365	 2.77388306069418E-02 
366	 2.77789613380971E-02 
367	 2.81389313119092E-02 
368	 2.73696083376678E-02 
369	 2.74357101174615E-02 
370	 2.82994208787046E-02 
371	 2.82992348972927E-02 
372	 2.85007014360287E-02 
373	 2.91178190170885E-02 
374	 2.75603312762509E-02 
375	 2.55864528148787E-02 
376	 2.58902457001347E-02 
377	 2.71456499203361E-02 
378	 0.028523364907924 
379	 2.86289055414714E-02 
380	 2.79949891486532E-02 
381	 2.70940900809382E-02 
382	 2.68529996960845E-02 
383	 2.70176457377625E-02 
384	 0.027122521841258 
385	 2.72331236759092E-02 
386	 2.75507809699279E-02 
387	 2.90063071996866E-02 
388	 2.87788458565395E-02 
389	 2.62847659674414E-02 
390	 0.026236357809457 
391	 0.027149372468281 
392	 2.68370401318651E-02 
393	 0.026822785753288 
394	 2.72581412522512E-02 
395	 2.77887769314216E-02 
396	 2.80022572944802E-02 
397	 2.77557095429923E-02 
398	 2.73296951254751E-02 
399	 2.71466824685347E-02 
400	 2.75437372056895E-02 
401	 0.026990231601824 
402	 2.60860797924614E-02 
403	 2.70713493268692E-02 
404	 2.76954635347339E-02 
405	 2.71786778823798E-02 
406	 2.67324511435413E-02 
407	 2.65788980172989E-02 
408	 2.68384498463179E-02 
409	 2.68485534502252E-02 
410	 2.67203633087532E-02 
411	 2.73425745341732E-02 
412	 2.75233634481474E-02 
413	 2.69180365263262E-02 
414	 2.72083695326597E-02 
415	 2.76901052658999E-02 
416	 2.72674630735933E-02 
417	 2.70159917658798E-02 
418	 2.71194675685263E-02 
419	 2.73501009899824E-02 
420	 2.75381233342056E-02 
421	 2.75547605419004E-02 
422	 2.71788890010226E-02 
423	 2.70473188533108E-02 
424	 2.81143220605149E-02 
425	 2.83416668224269E-02 
426	 2.75476908866311E-02 
427	 2.70147829800582E-02 
428	 2.70146312007573E-02 
429	 0.027591342055872 
430	 2.74198094424725E-02 
431	 2.70645940194449E-02 
432	 2.77948557813984E-02 
433	 2.80224287755243E-02 
434	 2.75796106431703E-02 
435	 2.75131753093507E-02 
436	 2.75078832885413E-02 
437	 2.73889730713806E-02 
438	 2.76779386590184E-02 
439	 2.80048231081018E-02 
440	 2.75413424445055E-02 
441	 2.73730435195813E-02 
442	 0.027717820103688 
443	 2.80084894566039E-02 
444	 2.81315822433581E-02 
445	 2.80335608545749E-02 
446	 2.80142186687047E-02 
447	 2.80405609178041E-02 
448	 0.027876775185043 
449	 2.79575035461656E-02 
450	 2.82936619172848E-02 
451	 2.81546638551132E-02 
452	 0.027976773178985 
453	 0.028213456963457 
454	 2.84369398730621E-02 
455	 2.85373643909757E-02 
456	 2.84420008586734E-02 
457	 2.84006246398712E-02 
458	 2.85333412688774E-02 
459	 0.028818647654078 
460	 2.90850911533099E-02 
461	 2.91393561487874E-02 
462	 2.91772444288347E-02 
463	 2.91602402887561E-02 
464	 2.87810109515461E-02 
465	 0.028586120750068 
466	 2.88495855461869E-02 
467	 2.93170763543879E-02 
468	 2.95356881940464E-02 
469	 2.89082805871203E-02 
470	 2.86706990824256E-02 
471	 0.029005325654144 
472	 2.92851436481913E-02 
473	 2.93927018668346E-02 
474	 2.92881999717982E-02 
475	 2.93612891663254E-02 
476	 2.96115104797364E-02 
477	 2.99620570152461E-02 
478	 2.99663954902831E-02 
479	 2.96496376245331E-02 
480	 2.97449658974535E-02 
481	 2.98567420638885E-02 
482	 2.96765764657781E-02 
483	 2.96706971867771E-02 
484	 2.97735794525774E-02 
485	 2.95925431758281E-02 
486	 2.97405664005586E-02 
487	 3.03185867803123E-02 
488	 3.06481356062629E-02 
489	 3.06520773717657E-02 
490	 0.030336985776804 
491	 3.01035215937203E-02 
492	 3.01163438426726E-02 
493	 3.05807100973213E-02 
494	 3.08889597199125E-02 
495	 3.07947301034016E-02 
496	 3.06643550227174E-02 
497	 3.06508185368595E-02 
498	 3.08994464409908E-02 
499	 3.08333398737439E-02 
500	 3.05721945150498E-02 
501	 0.031063904000366 
502	 3.14458464710664E-02 
503	 3.12512019198285E-02 
504	 3.12665128827771E-02 
505	 3.13864926596814E-02 
506	 3.12332617223602E-02 
507	 3.15088453550585E-02 
508	 3.21699403685397E-02 
509	 3.22325753177246E-02 
510	 3.21705368869618E-02 
511	 3.23717600366459E-02 
512	 3.25549346058009E-02 
513	 3.26754671103417E-02 
514	 3.27265636230413E-02 
515	 3.27773122658891E-02 
516	 3.28719241340996E-02 
517	 3.30729819761224E-02 
518	 3.32634160424965E-02 
519	 3.33203976401741E-02 
520	 3.34972922794169E-02 
521	 3.37736193830116E-02 
522	 3.39630396927813E-02 
523	 3.41260995991048E-02 
524	 3.42704007731393E-02 
525	 3.42728363910656E-02 
526	 3.42455093102854E-02 
527	 3.43541775289988E-02 
528	 3.45937357170426E-02 
529	 3.49486625727404E-02 
530	 3.54336927543686E-02 
531	 3.56828523652223E-02 
532	 3.55205919083038E-02 
533	 3.57213620737493E-02 
534	 0.036126697576063 
535	 3.62074607964629E-02 
536	 3.61217672979848E-02 
537	 3.60570149923386E-02 
538	 3.66872369195061E-02 
539	 0.037234749229302 
540	 3.69646694822548E-02 
541	 3.69592883422416E-02 
542	 3.72273309898966E-02 
543	 0.037153154421442 
544	 3.72643154727388E-02 
545	 3.76867166124852E-02 
546	 3.77974404573471E-02 
547	 3.77389153228987E-02 
548	 3.77710374490871E-02 
549	 3.79441657334073E-02 
550	 3.81854909280205E-02 
551	 3.81666193701599E-02 
552	 3.81980131652613E-02 
553	 3.84552476949795E-02 
554	 3.86366065548981E-02 
555	 0.038777675694379 
556	 0.039033948981092 
557	 3.92193631636294E-02 
558	 0.039262984547475 
559	 3.91596382275987E-02 
560	 3.89946849736321E-02 
561	 3.88840398050394E-02 
562	 3.93213064682912E-02 
563	 4.00148665156041E-02 
564	 3.99866113781663E-02 
565	 3.99356093898348E-02 
566	 4.00782140614313E-02 
567	 3.98993201959883E-02 
568	 3.97901738666927E-02 
569	 0.040290448781221 
570	 4.03342827181633E-02 
571	 3.99020162534719E-02 
572	 3.98779212384693E-02 
573	 3.99675886917829E-02 
574	 4.00354489683165E-02 
575	 4.04850246627304E-02 
576	 4.09676703150835E-02 
577	 0.040763872664516 
578	 4.06254984868762E-02 
579	 4.07349613082202E-02 
580	 4.07377411393169E-02 
581	 4.07865749976145E-02 
582	 4.09979910241332E-02 
583	 4.09322428643236E-02 
584	 0.040753453941368 
585	 4.10987152922559E-02 
586	 4.14321400634171E-02 
587	 4.15223963338557E-02 
588	 4.13866752552523E-02 
589	 4.12565289819589E-02 
590	 4.14337109956145E-02 
591	 4.16925896882278E-02 
592	 4.19128417986433E-02 
593	 4.19310987333962E-02 
594	 4.19413269008395E-02 
595	 4.20480071479467E-02 
596	 4.20880304881678E-02 
597	 4.21043343350739E-02 
598	 4.22194986617739E-02 
599	 4.21579862900029E-02 
600	 4.19621414904404E-02 
601	 4.21703856527129E-02 
602	 4.25024174426448E-02 
603	 0.042697476408231 
604	 0.04302045952532 
605	 4.32663598819324E-02 
606	 4.27485752723107E-02 
607	 4.25296298879457E-02 
608	 4.29605589534364E-02 
609	 4.32786021354754E-02 
610	 4.33393677980759E-02 
611	 0.043062961941514 
612	 4.30235830389248E-02 
613	 4.33032510792896E-02 
614	 4.36170078553868E-02 
615	 0.043961447350475 
616	 4.42685900088825E-02 
617	 4.41667528336227E-02 
618	 4.38281912530481E-02 
619	 4.36000795778871E-02 
620	 4.37854387526089E-02 
621	 4.42613085373555E-02 
622	 4.40148413773291E-02 
623	 4.37196657423911E-02 
624	 4.39763814528458E-02 
625	 4.39890226768283E-02 
626	 4.38235915504848E-02 
627	 4.40127260542826E-02 
628	 0.044362479367659 
629	 4.47203200208954E-02 
630	 4.46704143996949E-02 
631	 0.044489228755984 
632	 4.45653955370917E-02 
633	 4.48661431393371E-02 
634	 4.53016067882873E-02 
635	 4.56058929860748E-02 
636	 4.58998237802499E-02 
637	 4.61758983557889E-02 
638	 0.045803688801406 
639	 4.52829359217838E-02 
640	 4.56369687172215E-02 
641	 4.58929936141007E-02 
642	 4.58036697134812E-02 
643	 4.57042442308633E-02 
644	 0.045615278301141 
645	 4.55710824952068E-02 
646	 4.58851047229165E-02 
647	 4.64044555387519E-02 
648	 4.66188678769521E-02 
649	 4.65788129767683E-02 
650	 4.63822060857852E-02 
651	 4.65876644697404E-02 
652	 4.67196160349237E-02 
653	 4.61699114116263E-02 
654	 0.045817696732378 
655	 4.58769961434085E-02 
656	 4.63217348061444E-02 
657	 4.66155459464849E-02 
658	 4.64391376836088E-02 
659	 4.61197814700816E-02 
660	 4.59386486859033E-02 
661	 4.62953949068084E-02 
662	 4.62396941703669E-02 
663	 4.57515557026091E-02 
664	 4.60431278893337E-02 
665	 0.046275735201023 
666	 4.57510881751074E-02 
667	 4.51186454876383E-02 
668	 0.044661146533568 
669	 4.47440977731976E-02 
670	 4.49440704102471E-02 
671	 4.50659260955699E-02 
672	 0.045037000182095 
673	 4.49938149305434E-02 
674	 4.51016154906983E-02 
675	 4.53013783039301E-02 
676	 4.55412803574071E-02 
677	 4.56979740033103E-02 
678	 0.045906755443174 
679	 4.62398124348003E-02 
680	 4.66746250406691E-02 
681	 4.70519370508674E-02 
682	 4.71274511216649E-02 
683	 0.047285340452107 
684	 4.76909058788571E-02 
685	 4.84900495915049E-02 
686	 4.95151321381721E-02 
687	 5.05545658937469E-02 
688	 5.10379796993692E-02 
689	 0.051235686129997 
690	 5.20655620367433E-02 
691	 5.32561745560462E-02 
692	 5.46207887485646E-02 
693	 5.54344714194518E-02 
694	 5.63859869925759E-02 
695	 5.81309157871573E-02 
696	 5.92748068994367E-02 
697	 5.99167650967291E-02 
698	 6.11323138388926E-02 
699	 6.23926638977158E-02 
700	 6.34757774534461E-02 
701	 6.46823005819308E-02 
702	 6.59120601493351E-02 
703	 6.70021387236285E-02 
704	 0.067918694513092 
705	 6.87883400304105E-02 
706	 7.00449005161115E-02 
707	 7.11517122125997E-02 
708	 7.18136362780687E-02 
709	 7.27105196531994E-02 
710	 7.37703675034125E-02 
711	 7.46842608223982E-02 
712	 7.55574205035694E-02 
713	 7.64404411865961E-02 
714	 0.077511013712394 
715	 7.83951144302387E-02 
716	 7.87788942947647E-02 
717	 7.89986495774116E-02 
718	 7.93218722956316E-02 
719	 8.01589574954692E-02 
720	 0.08137072157877 
721	 8.26044384355707E-02 
722	 8.33204648470376E-02 
723	 0.083727686108301 
724	 0.083999773087283 
725	 0.084806042286184 
726	 8.59208355831458E-02 
727	 8.62969710269273E-02 
728	 8.65164067422494E-02 
729	 8.69208901293901E-02 
730	 8.76457924845884E-02 
731	 8.85758990161541E-02 
732	 8.95275887623585E-02 
733	 8.98993953081541E-02 
734	 8.99186248603891E-02 
735	 9.07538926962699E-02 
736	 9.16202877466982E-02 
737	 9.20167579838761E-02 
738	 9.26697968227997E-02 
739	 9.34070735985957E-02 
740	 9.37217465378179E-02 
741	 9.41012997624621E-02 
742	 9.46520390273933E-02 
743	 9.51346453588253E-02 
744	 9.56652849613221E-02 
745	 0.096325048416537 
746	 9.67387268873948E-02 
747	 9.70071237542025E-02 
748	 9.75331281202258E-02 
749	 9.80726290214929E-02 
750	 9.85404798531626E-02 
751	 9.89733658626435E-02 
752	 9.93253584037023E-02 
753	 9.95614916192729E-02 
754	 9.99293352811394E-02 
755	 0.100472330886172 
756	 0.101248465141183 
757	 0.101549622837137 
758	 0.101136983452434 
759	 0.101019907746233 
760	 0.10143515441326 
761	 0.102310453497783 
762	 0.103521996009974 
763	 0.104503653974638 
764	 0.104731216933416 
765	 0.104934135445923 
766	 0.105384874452719 
767	 0.106136198338891 
768	 0.106791583931537 
769	 0.106874056265959 
770	 0.107190558665452 
771	 0.107788324234865 
772	 0.108089569235786 
773	 0.108400328255628 
774	 0.108913846003707 
775	 0.10944151590679 
776	 0.109936984532026 
777	 0.110373755116829 
778	 0.110850745295637 
779	 0.111310870639869 
780	 0.111368809865285 
781	 0.111504848883614 
782	 0.112095244504166 
783	 0.11281644014156 
784	 0.113443538409264 
785	 0.113628189068979 
786	 0.11379374730074 
787	 0.114128133373906 
788	 0.114755213443077 
789	 0.115261535821081 
790	 0.115300261870474 
791	 0.115756394819258 
792	 0.116462845522973 
793	 0.116555326838911 
794	 0.117020927860576 
795	 0.117946892585617 
796	 0.117872862728679 
797	 0.117752404656451 
798	 0.118569026005423 
799	 0.119025135901416 
800	 0.11916976311816 
801	 0.119893362505752 
802	 0.120171332789295 
803	 0.11991174435563 
804	 0.120940422752428 
805	 0.122134894919147 
806	 0.122199135900959 
807	 0.12223219913619 
808	 0.122387533039121 
809	 0.122321485871457 
810	 0.122901540855456 
811	 0.124224043403644 
812	 0.124192888917813 
813	 0.123830767310134 
814	 0.124723181232671 
815	 0.125066611609907 
816	 0.124896148130289 
817	 0.125860276119962 
818	 0.126656129882951 
819	 0.126883982239707 
820	 0.127778254748906 
821	 0.128596286153155 
822	 0.128383214533012 
823	 0.128098069252233 
824	 0.128381595137704 
825	 0.130462053203769 
826	 0.13159822236944 
827	 0.130964625288952 
828	 0.131176542832857 
829	 0.131983811195247 
830	 0.132745561530361 
831	 0.133157636022946 
832	 0.133266983876763 
833	 0.133440902656512 
834	 0.133772990450264 
835	 0.134309093404497 
836	 0.135029865781015 
837	 0.13546510177044 
838	 0.135163151376343 
839	 0.136188698618753 
840	 0.138031131233285 
841	 0.137987201599067 
842	 0.137824244296969 
843	 0.138187042795134 
844	 0.138182030435364 
845	 0.138367995878351 
846	 0.139367257974017 
847	 0.139392216871005 
848	 0.138804865110868 
849	 0.139756433011197 
850	 0.14077559125534 
851	 0.141138380481242 
852	 0.140361558404013 
853	 0.139825512297284 
854	 0.140922830086767 
855	 0.140957332627785 
856	 0.140385591104172 
857	 0.141804813577774 
858	 0.142681716625754 
859	 0.142457961352065 
860	 0.142922028157187 
861	 0.143654066463545 
862	 0.144138511579109 
863	 0.144114696748728 
864	 0.143799166750828 
865	 0.143760858860282 
866	 0.144300021272786 
867	 0.145351591825589 
868	 0.146015207967745 
869	 0.146539717503787 
870	 0.147164375196855 
871	 0.14778156108989 
872	 0.148518521554943 
873	 0.149686999638759 
874	 0.150128607275384 
875	 0.149766066062145 
876	 0.149715294294455 
877	 0.150459400402461 
878	 0.152159297374089 
879	 0.153389352291989 
880	 0.153768659358448 
881	 0.153060886761973 
882	 0.153449466083826 
883	 0.154865647536471 
884	 0.154664608067802 
885	 0.154503490930057 
886	 0.155246172863116 
887	 0.155802883443122 
888	 0.156645571177701 
889	 0.158495088617773 
890	 0.158708580469848 
891	 0.157692303969702 
892	 0.158954316027645 
893	 0.159936771140642 
894	 0.159459449531317 
895	 0.158225670775241 
896	 0.157449170560524 
897	 0.158453287290977 
898	 0.159323874900099 
899	 0.160007102659781 
900	 0.161590315635678 
901	 0.162682836346049 
902	 0.1628712805279 
903	 0.162573278437253 
904	 0.162529610443933 
905	 0.163153820141069 
906	 0.162580615643657 
907	 0.161744658866325 
908	 0.162776396479858 
909	 0.163930021656956 
910	 0.164483794936891 
911	 0.16358975526693 
912	 0.16420414569931 
913	 0.167219134632247 
914	 0.166465513186127 
915	 0.164291935792561 
916	 0.164295471532771 
917	 0.165651737738522 
918	 0.167450050350532 
919	 0.167870427984391 
920	 0.167421175198192 
921	 0.166393877961987 
922	 0.165378632475499 
923	 0.164512664032467 
924	 0.16400011912663 
925	 0.165169888794078 
926	 0.166919483899631 
927	 0.16626609087639 
928	 0.166045993686234 
929	 0.166532194090514 
930	 0.164113997364186 
931	 0.15960641436372 
932	 0.15441633806945 
933	 0.152048171479841 
934	 0.155298764885318 
935	 0.165592902839674 
936	 0.165774048599516 
937	 0.158242170511183 
938	 0.162035659420413 
939	 0.159416448846453 
940	 0.148783226848523 
941	 0.145999039949302 
942	 0.151357090880613 
943	 0.162383108451068 
944	 0.161220536985777 
945	 0.152201610927384 
946	 0.14631400920793 
947	 0.145663759881134 
948	 0.149730343086259 
949	 0.154826358719878 
950	 0.152394056524328 
951	 0.141954839492219 
952	 0.142061302210316 
953	 0.14776515907703 
954	 0.152846479617885 
955	 0.152500074886652 
956	 0.150251701640897 
957	 0.154150064609202 
958	 0.153542820698683 
959	 0.14842335049446 
960	 0.147787764670384 
961	 0.147855353104023 
962	 0.147011239695156 
963	 0.146488313993745 
964	 0.146729822583594 
965	 0.148000576222341 
966	 0.148188596414838 
967	 0.14956033475921 
968	 0.157731576318131 
969	 0.158598104372262 
970	 0.151604554836881 
971	 0.150251934404556 
972	 0.149827090567991 
973	 0.14870058462369 
974	 0.154194384781897 
975	 0.159112987357128 
976	 0.155585766079976 
977	 0.153436414659118 
978	 0.153736695032219 
979	 0.154505293146834 
980	 0.15426287722864 
981	 0.152555986409727 
982	 0.149322854006554 
983	 0.149564569117 
984	 0.154821370633073 
985	 0.157166168685214 
986	 0.157234643368798 
987	 0.156698273978749 
988	 0.156670339375048 
989	 0.157868959724536 
990	 0.161192147552428 
991	 0.162415955847122 
992	 0.16164707116258 
993	 0.16419556273962 
994	 0.166660231075352 
995	 0.167100140416765 
996	 0.165284066834967 
997	 0.164947525989072 
998	 0.169130955199676 
999	 0.170364402751747 
1000	 0.16752645570845 
1001	 0.161018528994875 
1002	 0.166529189102517 
1003	 0.180393911745651 
1004	 0.177444869005755 
1005	 0.169539894471441 
1006	 0.162913594244063 
1007	 0.16221083196515 
1008	 0.166582291323465 
1009	 0.173769870588595 
1010	 0.178012025620423 
1011	 0.177885769704312 
1012	 0.172731465528372 
1013	 0.170076720540073 
1014	 0.171390840552608 
1015	 0.175262502364656 
1016	 0.177495015456589 
1017	 0.176607176474613 
1018	 0.172660997428611 
1019	 0.173680813239497 
1020	 0.182258612420089 
1021	 0.186052148637246 
1022	 0.181402862106158 
1023	 0.168313303313414 
1024	 0.177929550418087 
1025	 0.193591898371005 
1026	 0.180158302519943 
1027	 0.167573423067837 
1028	 0.164226951095912 
1029	 0.172093993755313 
1030	 0.178492451591321 
1031	 0.178907224202842 
1032	 0.177008496695249 
1033	 0.176777347316808 
1034	 0.180214885505042 
1035	 0.18447595252621 
1036	 0.180118355000873 
1037	 0.161020378417504 
1038	 0.174593706913175 
1039	 0.198898356399434 
1040	 0.186697618149989 
1041	 0.177529889169138 
1042	 0.179264382169336 
1043	 0.181886465577583 
1044	 0.190242848128992 
1045	 0.198668729986381 
1046	 0.180014698645885 
1047	 0.165973726372173 
1048	 0.174645111162342 
1049	 0.184021225294743 
1050	 0.184007429336644 
1051	 0.169862474188775 
1052	 0.170059309808833 
1053	 0.189807728843662 
1054	 0.229124889843444 
1055	 0.215745509508023 
1056	 0.165177084692256 
1057	 0.16520164056802 
1058	 0.173308513530478 
1059	 0.17979169662872 
1060	 0.194021301327756 
1061	 0.196752723465996 
1062	 0.184033097517873 
1063	 0.183783070096099 
1064	 0.188410243042047 
1065	 0.191085773726225 
1066	 0.190765988255674 
1067	 0.202452361420618 
1068	 0.234790868571309 
1069	 0.221869086767218 
1070	 0.187398202501876 
1071	 0.193336867966342 
1072	 0.183088501542972 
1073	 0.163007612695463 
1074	 0.187122801111336 
1075	 0.184385575609321 
