Wavelength	AVEI200062.asd
325	 2.97050655173383E-02 
326	 0.03190011436191 
327	 3.73455021314806E-02 
328	 3.14439428635243E-02 
329	 3.03000995208939E-02 
330	 3.67938385086311E-02 
331	 3.22974518812285E-02 
332	 2.57704903011893E-02 
333	 2.64382002431662E-02 
334	 2.83446493107059E-02 
335	 2.98801297261568E-02 
336	 3.00111611418816E-02 
337	 2.88739885837972E-02 
338	 0.027250155398388 
339	 2.82871831962433E-02 
340	 2.90729568717527E-02 
341	 2.74307482557321E-02 
342	 2.77669551391791E-02 
343	 2.94007840623414E-02 
344	 2.99854604255131E-02 
345	 2.90241861977882E-02 
346	 2.71482601884029E-02 
347	 2.72731135093347E-02 
348	 0.027565679213611 
349	 2.69669844590119E-02 
350	 2.82623267452113E-02 
351	 2.95741261231017E-02 
352	 2.74267693227905E-02 
353	 2.70710281078846E-02 
354	 2.87021731893785E-02 
355	 0.028039767375273 
356	 2.71234944786732E-02 
357	 2.71772674620822E-02 
358	 2.73502035367519E-02 
359	 2.73440134274297E-02 
360	 2.68802868403012E-02 
361	 2.61771611610118E-02 
362	 2.57389137457744E-02 
363	 2.71054653982381E-02 
364	 2.77299543630633E-02 
365	 2.65143186600382E-02 
366	 2.61002202675375E-02 
367	 2.58926489942295E-02 
368	 2.47372894580611E-02 
369	 2.38509806285155E-02 
370	 2.39247648610292E-02 
371	 2.64487491978474E-02 
372	 2.76537563335723E-02 
373	 2.57854287672102E-02 
374	 2.42192561587645E-02 
375	 2.37234672133796E-02 
376	 2.47236094190321E-02 
377	 0.026522492678666 
378	 2.79184148835786E-02 
379	 2.59091575377425E-02 
380	 2.41404006841418E-02 
381	 0.024398533908649 
382	 2.44528995282466E-02 
383	 0.024810827893244 
384	 2.63636336302057E-02 
385	 2.68050131750492E-02 
386	 2.63663986303424E-02 
387	 0.027872621897781 
388	 2.81835588286786E-02 
389	 2.63308132653303E-02 
390	 2.55945212173104E-02 
391	 2.56870404667289E-02 
392	 2.58882580527003E-02 
393	 2.55996540805572E-02 
394	 2.51517266187247E-02 
395	 2.59182933352834E-02 
396	 0.026703963137432 
397	 2.69391335136866E-02 
398	 0.026636219675542 
399	 2.63104567373472E-02 
400	 2.64481883431614E-02 
401	 0.026048326005805 
402	 2.53422488820162E-02 
403	 2.52838672368862E-02 
404	 2.54098505969397E-02 
405	 2.55293638451586E-02 
406	 2.57385718926842E-02 
407	 2.57979097537327E-02 
408	 2.54276588832306E-02 
409	 0.025332877254952 
410	 2.55933798195441E-02 
411	 2.60073030626193E-02 
412	 2.60599471670784E-02 
413	 2.56213457047611E-02 
414	 2.55914513483742E-02 
415	 2.57052209721573E-02 
416	 2.55104139451506E-02 
417	 2.51406861090381E-02 
418	 2.49396126173037E-02 
419	 0.02598424483372 
420	 2.64910272050321E-02 
421	 2.56494285011862E-02 
422	 2.50714622490888E-02 
423	 2.51438904422905E-02 
424	 2.61308989023717E-02 
425	 2.66681266802235E-02 
426	 0.026459687196954 
427	 2.58960981908637E-02 
428	 2.54556512476628E-02 
429	 2.54659886166211E-02 
430	 2.56378799398948E-02 
431	 2.59682063930542E-02 
432	 2.65451975231517E-02 
433	 2.66655584964363E-02 
434	 0.026254533785783 
435	 2.57746520902548E-02 
436	 2.54990739728874E-02 
437	 2.56087402510258E-02 
438	 2.61082628631124E-02 
439	 2.65651432512576E-02 
440	 2.62078225609592E-02 
441	 2.58896979498143E-02 
442	 2.59051608354821E-02 
443	 2.63075005768661E-02 
444	 2.65327402996887E-02 
445	 2.61895147593519E-02 
446	 2.62296904240654E-02 
447	 2.65621386769345E-02 
448	 2.66463029168926E-02 
449	 2.65792301148236E-02 
450	 2.64271379934957E-02 
451	 2.63898368098476E-02 
452	 2.65101450722382E-02 
453	 2.68040686790687E-02 
454	 2.70656049842408E-02 
455	 2.72172690360389E-02 
456	 2.71703156123789E-02 
457	 2.72308681574529E-02 
458	 2.74759526832109E-02 
459	 2.75558651911743E-02 
460	 2.73911608813374E-02 
461	 2.69450521280243E-02 
462	 2.70007005963778E-02 
463	 2.74201281625197E-02 
464	 0.027148394752548 
465	 2.69762054267891E-02 
466	 2.72760773848683E-02 
467	 2.76696368225658E-02 
468	 2.78014201467121E-02 
469	 2.72274990987948E-02 
470	 2.70976626886623E-02 
471	 2.74823160463257E-02 
472	 2.74059841738543E-02 
473	 2.74128765036513E-02 
474	 2.77961515933829E-02 
475	 2.79946325488514E-02 
476	 2.79921962041556E-02 
477	 2.78974596819936E-02 
478	 2.78136680488079E-02 
479	 2.77937512018121E-02 
480	 2.78697042842537E-02 
481	 2.78715021624873E-02 
482	 2.77123347318703E-02 
483	 2.80910871434849E-02 
484	 2.86941054807902E-02 
485	 2.84648307875319E-02 
486	 0.028429824808802 
487	 0.028850583082592 
488	 2.90472397419025E-02 
489	 2.89839954992038E-02 
490	 2.87054543494545E-02 
491	 2.87503275594145E-02 
492	 2.90363640120244E-02 
493	 2.90277037702382E-02 
494	 2.90070425263922E-02 
495	 2.90841999165482E-02 
496	 2.92087311849781E-02 
497	 2.92304758617016E-02 
498	 2.89652185070294E-02 
499	 0.028922807458161 
500	 2.92101456747161E-02 
501	 2.97565073894659E-02 
502	 3.00299949393332E-02 
503	 0.029775185898666 
504	 2.98178710113988E-02 
505	 2.99771657942162E-02 
506	 2.97468938732011E-02 
507	 2.97263562968824E-02 
508	 0.0300152687851 
509	 3.03177038785486E-02 
510	 3.04579174234265E-02 
511	 3.03495897932255E-02 
512	 3.06321959278209E-02 
513	 3.11132634305432E-02 
514	 3.11192723068294E-02 
515	 3.09145591060424E-02 
516	 3.07292134177258E-02 
517	 3.12864983083949E-02 
518	 3.19010905964218E-02 
519	 0.031797476848322 
520	 3.16921920137449E-02 
521	 3.17706679390864E-02 
522	 3.21286183468069E-02 
523	 3.23627708483674E-02 
524	 3.23186787645113E-02 
525	 3.23416339680008E-02 
526	 3.24628887033245E-02 
527	 3.26672907185032E-02 
528	 3.29328355494002E-02 
529	 3.32198570113242E-02 
530	 3.34813844508957E-02 
531	 3.36025243577857E-02 
532	 3.35460169418829E-02 
533	 3.37066271663049E-02 
534	 3.39831723255011E-02 
535	 3.40693849648062E-02 
536	 0.034047703034525 
537	 0.033995454079635 
538	 3.41437414054035E-02 
539	 3.43678009582485E-02 
540	 3.45416242133699E-02 
541	 3.48481658809925E-02 
542	 3.51860497609351E-02 
543	 3.52129257416238E-02 
544	 3.52221430504385E-02 
545	 3.53389755151542E-02 
546	 3.55007226859257E-02 
547	 3.56336492282592E-02 
548	 3.56485746937857E-02 
549	 3.58041484188917E-02 
550	 3.60614837155837E-02 
551	 3.60481341528075E-02 
552	 3.60588934366885E-02 
553	 3.62831255075885E-02 
554	 3.66570143577931E-02 
555	 3.69751043197996E-02 
556	 3.68681593062899E-02 
557	 3.69164063823611E-02 
558	 3.71731122357145E-02 
559	 3.69435061169722E-02 
560	 3.66730660491351E-02 
561	 3.67960099414703E-02 
562	 3.71051737235616E-02 
563	 3.74838331012768E-02 
564	 3.77768101115266E-02 
565	 3.79051449997646E-02 
566	 0.037868330580033 
567	 3.79541513160129E-02 
568	 3.80430638460631E-02 
569	 3.79486663093647E-02 
570	 3.79154184700938E-02 
571	 0.03797509456938 
572	 3.79965485493485E-02 
573	 3.80718372964998E-02 
574	 3.82408411093604E-02 
575	 0.038348357075768 
576	 3.84205835141175E-02 
577	 3.85473662019427E-02 
578	 3.86628828795071E-02 
579	 3.87558666554083E-02 
580	 3.88406015474859E-02 
581	 0.039040554978303 
582	 3.94340188927534E-02 
583	 0.039601860281253 
584	 3.95770344578358E-02 
585	 3.96533879363934E-02 
586	 3.97095049530812E-02 
587	 0.03973498462817 
588	 3.99464093376229E-02 
589	 4.00539961210166E-02 
590	 3.96639349515808E-02 
591	 3.94527045507429E-02 
592	 0.039623693741694 
593	 4.02758325543102E-02 
594	 4.06058068091662E-02 
595	 4.02319320406502E-02 
596	 4.02760084930752E-02 
597	 4.05895572719928E-02 
598	 4.06341295271626E-02 
599	 4.07584563782083E-02 
600	 4.10173651656587E-02 
601	 4.12233966907415E-02 
602	 4.13679082317541E-02 
603	 4.14507916355051E-02 
604	 4.14971823733616E-02 
605	 4.15482151810271E-02 
606	 4.16895718115701E-02 
607	 4.17983708205661E-02 
608	 0.041865470854214 
609	 4.22060708307048E-02 
610	 4.24014321000186E-02 
611	 4.19122373860082E-02 
612	 4.18892349807307E-02 
613	 4.23601120037081E-02 
614	 4.23931598742533E-02 
615	 4.23988736375016E-02 
616	 4.25836425226881E-02 
617	 4.25827012249028E-02 
618	 0.042376061573928 
619	 4.19673780162948E-02 
620	 4.20821534418681E-02 
621	 0.042727718897678 
622	 0.042893735122712 
623	 0.042836556403153 
624	 4.28356426201198E-02 
625	 4.30691329145448E-02 
626	 4.34400680797032E-02 
627	 4.36221979127779E-02 
628	 4.36269595245898E-02 
629	 4.35191381465345E-02 
630	 4.37414046961986E-02 
631	 4.39275411822302E-02 
632	 4.35889811756046E-02 
633	 4.38087831850367E-02 
634	 0.044558841591188 
635	 4.48977266950649E-02 
636	 4.50735414789007E-02 
637	 4.51987775134961E-02 
638	 4.50258613625956E-02 
639	 4.48106546334021E-02 
640	 4.50458052244094E-02 
641	 4.52217777859601E-02 
642	 0.045278530664319 
643	 4.57426434389471E-02 
644	 4.60011297997794E-02 
645	 4.55717401383748E-02 
646	 4.56737122871244E-02 
647	 4.62272468071662E-02 
648	 4.63649417390428E-02 
649	 4.65995689867928E-02 
650	 4.69871769574287E-02 
651	 4.68065240334588E-02 
652	 4.64276490629458E-02 
653	 4.63520879476129E-02 
654	 0.046368609883835 
655	 4.64499591981318E-02 
656	 4.66844458403557E-02 
657	 4.66896380282078E-02 
658	 4.63101333543441E-02 
659	 4.61258829602499E-02 
660	 0.046128612617166 
661	 4.61994099613432E-02 
662	 0.046246619198455 
663	 4.61864811837353E-02 
664	 4.58763586026651E-02 
665	 0.045478962208653 
666	 4.51360425010058E-02 
667	 4.47302260341164E-02 
668	 4.44015027922232E-02 
669	 4.45097979712447E-02 
670	 4.47178550461199E-02 
671	 4.48946276724475E-02 
672	 4.51542266363808E-02 
673	 4.52206383983997E-02 
674	 4.48013143452197E-02 
675	 4.48343232391771E-02 
676	 4.52971097417183E-02 
677	 4.53689899746939E-02 
678	 4.56312496591451E-02 
679	 4.63071126408378E-02 
680	 4.66998828572869E-02 
681	 4.68432901637936E-02 
682	 4.69113317377529E-02 
683	 4.73165185634111E-02 
684	 4.81317310410632E-02 
685	 4.91649931844518E-02 
686	 0.050010367430352 
687	 0.050328367345657 
688	 0.051024573302086 
689	 5.20448297311718E-02 
690	 5.30393546965608E-02 
691	 5.37351304850443E-02 
692	 5.41771530835614E-02 
693	 0.054900718106201 
694	 5.60659660904426E-02 
695	 5.76930817405106E-02 
696	 5.86119474014341E-02 
697	 0.059029261002688 
698	 6.01991132289844E-02 
699	 6.14493933431555E-02 
700	 6.24669235588635E-02 
701	 6.34488387377256E-02 
702	 6.43880987806221E-02 
703	 6.52685106741634E-02 
704	 6.58670030011779E-02 
705	 0.066381347299873 
706	 6.76787535902134E-02 
707	 6.86563034261241E-02 
708	 6.87401627259706E-02 
709	 6.96180900022355E-02 
710	 7.08228616175973E-02 
711	 7.10441604125303E-02 
712	 7.13912698120512E-02 
713	 7.20903250928151E-02 
714	 7.25846458092016E-02 
715	 7.29390642752246E-02 
716	 7.32621122406597E-02 
717	 7.37371737807833E-02 
718	 7.44178325956163E-02 
719	 7.51060634041995E-02 
720	 7.59413032678983E-02 
721	 7.67757050846905E-02 
722	 7.70733357086846E-02 
723	 7.74750078908138E-02 
724	 7.86695823330489E-02 
725	 7.89691788295572E-02 
726	 7.84111451201567E-02 
727	 7.85046093792901E-02 
728	 7.89261945823689E-02 
729	 7.95243192684005E-02 
730	 8.01787906959003E-02 
731	 8.08352553443553E-02 
732	 8.14581281297787E-02 
733	 8.18559258463752E-02 
734	 8.21528585041699E-02 
735	 8.28776758343687E-02 
736	 8.34965391609848E-02 
737	 8.37252302166342E-02 
738	 8.46410283009764E-02 
739	 8.57193171949193E-02 
740	 8.57110151557882E-02 
741	 8.58252129048024E-02 
742	 0.086372672614704 
743	 8.69740367471086E-02 
744	 8.75703441766281E-02 
745	 8.80939447867723E-02 
746	 8.81560932566982E-02 
747	 8.80645076235585E-02 
748	 0.088724665081198 
749	 8.92474009190572E-02 
750	 8.94499745155441E-02 
751	 9.01928961133954E-02 
752	 9.09681972326081E-02 
753	 9.11919329994798E-02 
754	 9.11735838673069E-02 
755	 9.12254479717691E-02 
756	 9.20994294398437E-02 
757	 9.25918870767841E-02 
758	 9.22480085245177E-02 
759	 9.21692837280197E-02 
760	 9.26912809737707E-02 
761	 9.38892273567344E-02 
762	 9.44153453609046E-02 
763	 9.43810999983935E-02 
764	 9.52908924067537E-02 
765	 9.56537174755109E-02 
766	 9.52610805549565E-02 
767	 9.56116729795604E-02 
768	 0.096302203511474 
769	 9.68026477038885E-02 
770	 9.74321769551807E-02 
771	 9.80814217696678E-02 
772	 9.80831520766264E-02 
773	 9.84090490984907E-02 
774	 9.95954464486135E-02 
775	 0.100322808800309 
776	 0.100543544897091 
777	 0.100528609941235 
778	 0.100632989991221 
779	 0.100997107460315 
780	 0.101573506122201 
781	 0.102048624858659 
782	 0.102217527117993 
783	 0.102723985552286 
784	 0.10327465000262 
785	 0.10295441427989 
786	 0.103184469939509 
787	 0.104207945635677 
788	 0.104696195016961 
789	 0.104858247271982 
790	 0.105005474522548 
791	 0.105952342706923 
792	 0.107043895479855 
793	 0.106194733094438 
794	 0.106184561795691 
795	 0.107571482608851 
796	 0.107633119141548 
797	 0.107443123853377 
798	 0.108187570911075 
799	 0.108673587965571 
800	 0.108818153837217 
801	 0.109014880439203 
802	 0.109118314035092 
803	 0.109244237514252 
804	 0.110255988704408 
805	 0.111156399983199 
806	 0.110891419542324 
807	 0.111148450217023 
808	 0.111877086076171 
809	 0.111807773235229 
810	 0.112135594839043 
811	 0.113146313700758 
812	 0.113148311907435 
813	 0.112746022489696 
814	 0.112934992697008 
815	 0.112870832245233 
816	 0.11274801234648 
817	 0.113717426567133 
818	 0.114950787716468 
819	 0.115936105477696 
820	 0.116365189362735 
821	 0.116416604377032 
822	 0.116326063962206 
823	 0.116504329240403 
824	 0.117166976694932 
825	 0.118620945933446 
826	 0.11983922190247 
827	 0.120410467553425 
828	 0.120680120457609 
829	 0.120816435285911 
830	 0.120994542928563 
831	 0.121384290494487 
832	 0.121862807599133 
833	 0.121906011653355 
834	 0.122210762314915 
835	 0.122985312499221 
836	 0.123597530079341 
837	 0.12406499069341 
838	 0.124468462083629 
839	 0.124724987903777 
840	 0.12495474083061 
841	 0.125571788245459 
842	 0.125906460931365 
843	 0.12577325091103 
844	 0.125790287048188 
845	 0.126383322016077 
846	 0.127886750834361 
847	 0.12853062123207 
848	 0.128248641464054 
849	 0.128015975209427 
850	 0.127948062950919 
851	 0.128037295201352 
852	 0.127486065456997 
853	 0.127262761355503 
854	 0.128354847764832 
855	 0.128688212516495 
856	 0.128567984490931 
857	 0.129851530945204 
858	 0.131100250272387 
859	 0.131796375048206 
860	 0.132048362332325 
861	 0.131972381305142 
862	 0.131699069349627 
863	 0.131415258976989 
864	 0.131257186309281 
865	 0.131286685508079 
866	 0.132345774661218 
867	 0.134123142516313 
868	 0.133885717395685 
869	 0.133485928077462 
870	 0.134457296536774 
871	 0.13534344057483 
872	 0.136066016065778 
873	 0.136919844036495 
874	 0.137580666176271 
875	 0.137893765115274 
876	 0.137485724112416 
877	 0.137963657567628 
878	 0.140182542270187 
879	 0.141229641010708 
880	 0.141411924612603 
881	 0.141935709058894 
882	 0.142356097891722 
883	 0.142617772027657 
884	 0.142744532584331 
885	 0.143261253001242 
886	 0.144221965143545 
887	 0.143647404455137 
888	 0.143311208796125 
889	 0.145737143710594 
890	 0.14647759497556 
891	 0.145677579647857 
892	 0.147543949132862 
893	 0.148610171634912 
894	 0.147537110373361 
895	 0.147087485302677 
896	 0.147179130870716 
897	 0.14741945587076 
898	 0.147452742886839 
899	 0.147817554552296 
900	 0.15025992982637 
901	 0.150854643108717 
902	 0.149243000013334 
903	 0.150185510566696 
904	 0.151365779503384 
905	 0.150872761842212 
906	 0.149444726762475 
907	 0.148485842784519 
908	 0.150249158071538 
909	 0.152434549973164 
910	 0.153655250337684 
911	 0.151578436713719 
912	 0.150454433683647 
913	 0.152463050004401 
914	 0.153813109698572 
915	 0.153903079524993 
916	 0.15268022545272 
917	 0.154732585939203 
918	 0.158268736132278 
919	 0.155765865314261 
920	 0.154185583996543 
921	 0.155499376378418 
922	 0.156375791067011 
923	 0.156816978089831 
924	 0.156844305695737 
925	 0.15545848412062 
926	 0.153080001174542 
927	 0.150855275773279 
928	 0.151855620683639 
929	 0.156276268306684 
930	 0.158374592761649 
931	 0.156239098858624 
932	 0.14915732706471 
933	 0.147580662855977 
934	 0.150618531295258 
935	 0.153228782856516 
936	 0.152871553903583 
937	 0.149667006167993 
938	 0.14671600235192 
939	 0.141032332800484 
940	 0.134054276018019 
941	 0.13406645579182 
942	 0.139327344456155 
943	 0.146796790095008 
944	 0.145230618521228 
945	 0.139322893694737 
946	 0.139096253741561 
947	 0.134505628262241 
948	 0.129118722653011 
949	 0.143008588075277 
950	 0.14758214615512 
951	 0.136290602874394 
952	 0.145281367671421 
953	 0.152689279309664 
954	 0.139524005475231 
955	 0.133523157129094 
956	 0.137246706728436 
957	 0.147237185384597 
958	 0.148810652351063 
959	 0.142606189613631 
960	 0.145838792598223 
961	 0.146534823708597 
962	 0.141192046580174 
963	 0.142667358949741 
964	 0.144851105784141 
965	 0.141522757196005 
966	 0.140161093006151 
967	 0.142541976203818 
968	 0.149858871980869 
969	 0.152156709625796 
970	 0.148679980007746 
971	 0.148306729216651 
972	 0.147040692927133 
973	 0.144385021893949 
974	 0.152240954198235 
975	 0.158267844887607 
976	 0.149246343367299 
977	 0.14840094875395 
978	 0.153638222527024 
979	 0.150571838517218 
980	 0.14884658349384 
981	 0.14967304389382 
982	 0.146826719188563 
983	 0.145990695996507 
984	 0.149483491868869 
985	 0.151432515649476 
986	 0.152836458003559 
987	 0.155262554398766 
988	 0.157927536888482 
989	 0.158986871841515 
990	 0.154928267395409 
991	 0.155372020896357 
992	 0.15952416906431 
993	 0.153251902816984 
994	 0.150298383716093 
995	 0.156285775051464 
996	 0.159666260510987 
997	 0.16024289180922 
998	 0.158954900594509 
999	 0.159947491342861 
1000	 0.160584225063247 
1001	 0.154975869899693 
1002	 0.155138353040342 
1003	 0.1610438366565 
1004	 0.162086841613854 
1005	 0.162357939197308 
1006	 0.162069431891189 
1007	 0.152912368942229 
1008	 0.152448481935564 
1009	 0.17059285210474 
1010	 0.174883435414911 
1011	 0.167635504073456 
1012	 0.158224651393579 
1013	 0.159318204764319 
1014	 0.167138271810462 
1015	 0.164175506619435 
1016	 0.162229781457424 
1017	 0.164220976955369 
1018	 0.166426792436513 
1019	 0.171178714043917 
1020	 0.178521416985742 
1021	 0.18316358235021 
1022	 0.180785785567163 
1023	 0.169482725076677 
1024	 0.170940170940171 
1025	 0.179092398902266 
1026	 0.177683342301387 
1027	 0.160442487904473 
1028	 0.139729926129329 
1029	 0.160021121735639 
1030	 0.17573406790621 
1031	 0.173947471516203 
1032	 0.175452428461981 
1033	 0.171849669228262 
1034	 0.160723802561689 
1035	 0.160138666735582 
1036	 0.168619892333289 
1037	 0.181128780037106 
1038	 0.180758669876748 
1039	 0.171856602023486 
1040	 0.16669222036812 
1041	 0.169290832251651 
1042	 0.177020463132116 
1043	 0.178180876728851 
1044	 0.175905117368655 
1045	 0.173491549895165 
1046	 0.181356762120843 
1047	 0.184027720967931 
1048	 0.174741789532804 
1049	 0.176223416295061 
1050	 0.17788404146336 
1051	 0.170845692905709 
1052	 0.189847301354774 
1053	 0.213737201668755 
1054	 0.206395065881359 
1055	 0.176228554078604 
1056	 0.148411792303385 
1057	 0.178872768636075 
1058	 0.190689996616237 
1059	 0.170719976300195 
1060	 0.157319438654013 
1061	 0.165126589245293 
1062	 0.192496888243626 
1063	 0.191466959900272 
1064	 0.183750214961946 
1065	 0.185518429810688 
1066	 0.174830475777655 
1067	 0.169855017425431 
1068	 0.18889781943821 
1069	 0.189921554939099 
1070	 0.177854381732141 
1071	 0.173321427201094 
1072	 0.15390144557144 
1073	 0.131876384026306 
1074	 0.154452877602369 
1075	 0.175803689351861 
