Wavelength	AVEI200025.asd
325	 2.05968330703447E-02 
326	 2.27386673514558E-02 
327	 0.032540583942948 
328	 3.43463579353594E-02 
329	 3.12697486266192E-02 
330	 2.61737159703947E-02 
331	 0.026886290622658 
332	 2.94399002518407E-02 
333	 2.97288070286748E-02 
334	 3.21442606204312E-02 
335	 3.46515977992152E-02 
336	 0.03070004535142 
337	 2.86564018367048E-02 
338	 3.03285428945451E-02 
339	 3.08939269199175E-02 
340	 3.11038919644376E-02 
341	 3.15559811595065E-02 
342	 2.91906240530191E-02 
343	 0.026713976614859 
344	 3.01604993454329E-02 
345	 3.14601813658716E-02 
346	 2.97026587822633E-02 
347	 3.07719627766868E-02 
348	 3.05680624659718E-02 
349	 2.70352019015144E-02 
350	 0.028117532260957 
351	 3.06925040049157E-02 
352	 2.83002193421757E-02 
353	 2.74805304628291E-02 
354	 2.87405131368192E-02 
355	 2.77534751906178E-02 
356	 2.71196857991762E-02 
357	 2.81588237912459E-02 
358	 2.79646134828216E-02 
359	 2.74744834352412E-02 
360	 2.86340526546324E-02 
361	 2.78851169363181E-02 
362	 2.57567793067834E-02 
363	 2.69546996214454E-02 
364	 2.82768425849263E-02 
365	 2.79948395222528E-02 
366	 2.71444859804495E-02 
367	 0.026421527189894 
368	 2.65780942591592E-02 
369	 2.65009787126018E-02 
370	 2.63141018259158E-02 
371	 2.73420871217175E-02 
372	 2.83103800562346E-02 
373	 2.84568475955345E-02 
374	 0.027792007509247 
375	 2.69372772511677E-02 
376	 2.67150187220242E-02 
377	 2.72633493461845E-02 
378	 2.81242713767036E-02 
379	 0.027716426158006 
380	 2.73515312996358E-02 
381	 2.76030706742383E-02 
382	 2.74630683750801E-02 
383	 2.72468938263097E-02 
384	 2.74690525129809E-02 
385	 2.71231147797968E-02 
386	 2.66869776061843E-02 
387	 2.86414398749506E-02 
388	 2.88870654713368E-02 
389	 2.64226760794074E-02 
390	 0.027449857126909 
391	 2.91924037163971E-02 
392	 2.79134043787154E-02 
393	 2.67060258031553E-02 
394	 2.63519534696838E-02 
395	 2.71403054089702E-02 
396	 2.76510776393646E-02 
397	 2.73520724657434E-02 
398	 2.71684335927608E-02 
399	 2.70768191102757E-02 
400	 2.69598958232539E-02 
401	 2.66714148743765E-02 
402	 2.64121147239663E-02 
403	 2.67302804233515E-02 
404	 2.71092497052231E-02 
405	 2.73224819680198E-02 
406	 0.027444508448284 
407	 2.73770621417981E-02 
408	 2.70057515642288E-02 
409	 0.026846761226047 
410	 2.69743881322651E-02 
411	 2.72679742594428E-02 
412	 2.72527800089115E-02 
413	 2.68972341053707E-02 
414	 2.76581835342532E-02 
415	 2.83836807202099E-02 
416	 2.74629921304715E-02 
417	 0.026793716181241 
418	 2.67939027127574E-02 
419	 2.73521384649413E-02 
420	 2.75021909534494E-02 
421	 2.68161329214493E-02 
422	 2.62988665383612E-02 
423	 2.62904758724999E-02 
424	 2.70929897724809E-02 
425	 2.75054729051619E-02 
426	 2.73239073349802E-02 
427	 2.70612036507886E-02 
428	 2.70177755605164E-02 
429	 2.73122520260541E-02 
430	 2.71006163147027E-02 
431	 2.67900609262308E-02 
432	 2.72626216153707E-02 
433	 2.73363117124693E-02 
434	 0.026907826039679 
435	 2.68020512104102E-02 
436	 2.68803429397755E-02 
437	 2.70386218883034E-02 
438	 2.72979748270296E-02 
439	 2.75305538322216E-02 
440	 2.75070002462146E-02 
441	 2.75540574482284E-02 
442	 2.77288745596706E-02 
443	 2.78028963223267E-02 
444	 2.79105207184453E-02 
445	 2.81310444838095E-02 
446	 2.79879989667385E-02 
447	 2.76933408103775E-02 
448	 0.027911416845501 
449	 2.79233341929213E-02 
450	 2.76482226847127E-02 
451	 2.79295151281724E-02 
452	 2.83324930492203E-02 
453	 2.83906755781756E-02 
454	 2.83850219257405E-02 
455	 2.83613157625933E-02 
456	 2.82608058050312E-02 
457	 2.83695126264824E-02 
458	 2.87206019815094E-02 
459	 2.87688036354966E-02 
460	 0.028627026297793 
461	 2.84913990594291E-02 
462	 2.85243286651498E-02 
463	 2.86715655661047E-02 
464	 2.85857079982744E-02 
465	 2.86647029960132E-02 
466	 2.90487740816805E-02 
467	 2.92335799254084E-02 
468	 2.91254174859158E-02 
469	 2.86772892505978E-02 
470	 2.87695662753565E-02 
471	 2.92889193297471E-02 
472	 2.88708849899683E-02 
473	 2.86865113427412E-02 
474	 2.93661553273642E-02 
475	 2.95265836076709E-02 
476	 2.93815882526548E-02 
477	 2.96538671445666E-02 
478	 2.97036293593423E-02 
479	 2.94773668603967E-02 
480	 0.029564974961085 
481	 2.95029388243101E-02 
482	 2.89851357511536E-02 
483	 2.90974526299321E-02 
484	 2.96703245962749E-02 
485	 2.98780027420836E-02 
486	 2.99155627943105E-02 
487	 2.98997325113178E-02 
488	 3.02316252235695E-02 
489	 3.05122516396069E-02 
490	 3.03314149127626E-02 
491	 3.01832977209065E-02 
492	 3.01246245624166E-02 
493	 2.99857679134017E-02 
494	 0.02998240960773 
495	 3.02102431564821E-02 
496	 3.06734824850223E-02 
497	 3.09701539306795E-02 
498	 3.06012352070674E-02 
499	 3.04514191382878E-02 
500	 3.06709260106958E-02 
501	 3.09651166279849E-02 
502	 3.10593062649214E-02 
503	 3.08635860235721E-02 
504	 3.11670494703831E-02 
505	 3.16010515510273E-02 
506	 3.13808123567023E-02 
507	 3.12336419049379E-02 
508	 3.13636971800444E-02 
509	 3.16861163174927E-02 
510	 3.20139652680705E-02 
511	 3.22161664741785E-02 
512	 3.26354362037439E-02 
513	 3.30396488115521E-02 
514	 3.27352307185616E-02 
515	 3.25647832201323E-02 
516	 3.28067132297107E-02 
517	 3.31182294209125E-02 
518	 3.33393953768924E-02 
519	 3.33296118284045E-02 
520	 3.31423104385038E-02 
521	 3.30354844095244E-02 
522	 3.36826596438406E-02 
523	 3.41063858895853E-02 
524	 3.39534406503478E-02 
525	 3.41782580371162E-02 
526	 0.034460945261473 
527	 3.42006749284368E-02 
528	 0.034378192430456 
529	 3.50265275304015E-02 
530	 3.53856145699693E-02 
531	 3.55214775114514E-02 
532	 3.55304325755141E-02 
533	 3.59260332440607E-02 
534	 0.036373934565633 
535	 0.036048951171043 
536	 3.58437675172066E-02 
537	 3.60272145952255E-02 
538	 3.64048567507075E-02 
539	 3.66731667821243E-02 
540	 3.65746725590032E-02 
541	 3.66953559366499E-02 
542	 3.70096265155389E-02 
543	 3.71012520095525E-02 
544	 3.72938110285652E-02 
545	 3.76704012308738E-02 
546	 3.79269723097143E-02 
547	 3.79914487649023E-02 
548	 3.78122013721532E-02 
549	 0.037791878737087 
550	 3.80048924248424E-02 
551	 3.83105905591194E-02 
552	 3.85292748845536E-02 
553	 3.85663915135122E-02 
554	 0.038719669048945 
555	 3.89204098255031E-02 
556	 3.89464088552206E-02 
557	 3.91779350298248E-02 
558	 3.95321368177671E-02 
559	 0.0390590049091 
560	 3.85528773172099E-02 
561	 0.038766526206394 
562	 3.91651790859081E-02 
563	 3.95558338278102E-02 
564	 3.97217646939059E-02 
565	 3.99088107377554E-02 
566	 0.040160043079483 
567	 0.040124615008788 
568	 3.99493210938994E-02 
569	 3.98605373293922E-02 
570	 3.97761016353416E-02 
571	 3.97354587294458E-02 
572	 3.98985637353454E-02 
573	 4.00894328666169E-02 
574	 4.02071237750052E-02 
575	 0.040386048052072 
576	 4.06130468695154E-02 
577	 4.08572642108992E-02 
578	 4.08279574815975E-02 
579	 4.05310906349885E-02 
580	 4.03889686334947E-02 
581	 4.05001367432085E-02 
582	 4.08953723396717E-02 
583	 4.09948212606893E-02 
584	 4.09331284125672E-02 
585	 4.14206307808423E-02 
586	 0.041603517527517 
587	 4.12346041128283E-02 
588	 4.10996616191127E-02 
589	 4.11565539457134E-02 
590	 4.12487764091688E-02 
591	 4.13648564403234E-02 
592	 4.15150261654861E-02 
593	 4.18045324789995E-02 
594	 4.20250129080703E-02 
595	 0.042038147878161 
596	 4.17776062616735E-02 
597	 4.15814591411406E-02 
598	 0.042058266596933 
599	 4.23046317283611E-02 
600	 4.21979872382166E-02 
601	 0.042554761331544 
602	 4.28501479899519E-02 
603	 4.26513898035348E-02 
604	 4.29341407666401E-02 
605	 4.33872579282947E-02 
606	 4.26998048219331E-02 
607	 4.23661551458483E-02 
608	 4.28535783529444E-02 
609	 4.30232651756444E-02 
610	 4.29861693700472E-02 
611	 4.30125596700283E-02 
612	 4.32312221837383E-02 
613	 4.35033627482949E-02 
614	 4.31690016534538E-02 
615	 4.31541826931625E-02 
616	 4.38872318349342E-02 
617	 0.043920237239944 
618	 4.34895933995886E-02 
619	 4.33285558874164E-02 
620	 4.35140883267277E-02 
621	 0.043960782191663 
622	 4.41474544447181E-02 
623	 4.39782089822708E-02 
624	 4.34558338147787E-02 
625	 0.043613341104487 
626	 4.42478497147305E-02 
627	 4.43017312210251E-02 
628	 4.42840224925386E-02 
629	 4.43995349872228E-02 
630	 4.47471839313352E-02 
631	 0.044994041361335 
632	 4.47300859191734E-02 
633	 4.48328331396294E-02 
634	 4.52787261618618E-02 
635	 4.52485586541494E-02 
636	 4.52512274849003E-02 
637	 4.55261592079346E-02 
638	 4.54293916482825E-02 
639	 4.52328739699493E-02 
640	 4.55733533777742E-02 
641	 4.57701225302775E-02 
642	 4.56646150577089E-02 
643	 4.55454411931279E-02 
644	 4.55103809841745E-02 
645	 4.56407087165761E-02 
646	 4.59317562599273E-02 
647	 4.62591346026114E-02 
648	 4.63140170714127E-02 
649	 4.63991414859168E-02 
650	 4.65213345435661E-02 
651	 4.59678495518092E-02 
652	 4.54879908861615E-02 
653	 0.046009170817225 
654	 4.62234139317336E-02 
655	 4.60063310017077E-02 
656	 4.61222955387236E-02 
657	 4.62245143081506E-02 
658	 4.61073156032762E-02 
659	 4.58427269944557E-02 
660	 4.55903384028671E-02 
661	 4.55848219105276E-02 
662	 4.55378588594872E-02 
663	 4.54201333737517E-02 
664	 4.54981370595235E-02 
665	 4.55243633050845E-02 
666	 4.53014514422824E-02 
667	 4.51097184121144E-02 
668	 0.044978506101959 
669	 4.48441037862262E-02 
670	 4.47174605745377E-02 
671	 4.46263039243312E-02 
672	 4.46882719549814E-02 
673	 4.48460385673192E-02 
674	 4.50158171737356E-02 
675	 4.48349832388176E-02 
676	 4.45071558746654E-02 
677	 4.48574779254388E-02 
678	 4.54851709661327E-02 
679	 4.60982614829895E-02 
680	 4.62722014952851E-02 
681	 4.62991152066638E-02 
682	 4.67337642093119E-02 
683	 4.70449514790818E-02 
684	 4.72336948416476E-02 
685	 4.78969509543227E-02 
686	 4.87722638065387E-02 
687	 4.95988811169779E-02 
688	 5.02285861471955E-02 
689	 0.050807313114292 
690	 5.18464658110486E-02 
691	 5.30579752235979E-02 
692	 5.43371390132594E-02 
693	 5.55132468300498E-02 
694	 5.65839876361817E-02 
695	 0.057519950046971 
696	 5.85706819048379E-02 
697	 5.97452441740352E-02 
698	 6.09911991236462E-02 
699	 6.21483429613792E-02 
700	 6.31854796966602E-02 
701	 6.46615597892519E-02 
702	 6.61350752478302E-02 
703	 6.69403950396752E-02 
704	 6.78476662874632E-02 
705	 6.90457327614986E-02 
706	 7.04909901147627E-02 
707	 7.16134385088848E-02 
708	 7.21332930833854E-02 
709	 7.31443233716902E-02 
710	 7.43222605130678E-02 
711	 7.47490506511678E-02 
712	 7.54799684502115E-02 
713	 7.66634034941547E-02 
714	 7.74736120626309E-02 
715	 7.80238061830434E-02 
716	 7.84859793003193E-02 
717	 0.079036893029258 
718	 7.97797359743773E-02 
719	 8.06148482429292E-02 
720	 8.17519365611508E-02 
721	 8.29805601972039E-02 
722	 8.36613188096073E-02 
723	 8.40289430872525E-02 
724	 8.42905330166622E-02 
725	 0.085074247604537 
726	 0.086170366050999 
727	 8.65837707557094E-02 
728	 8.69591007052547E-02 
729	 8.75943831561057E-02 
730	 0.088179041063539 
731	 8.86777597443644E-02 
732	 8.90843647587621E-02 
733	 8.96425364941895E-02 
734	 9.03187086768475E-02 
735	 9.07754194772211E-02 
736	 0.091162214901912 
737	 9.16154175685531E-02 
738	 9.25898501526299E-02 
739	 0.093641664581029 
740	 9.38295399498792E-02 
741	 9.42012569415816E-02 
742	 9.49451691110524E-02 
743	 9.54007503324559E-02 
744	 9.58201740356503E-02 
745	 9.64097147127248E-02 
746	 9.67197019922625E-02 
747	 9.69226966088629E-02 
748	 9.76395202343787E-02 
749	 9.82240357467531E-02 
750	 9.84948952596201E-02 
751	 9.88233414679265E-02 
752	 9.92673520801912E-02 
753	 9.98443851834605E-02 
754	 0.100141784078147 
755	 0.100309571894808 
756	 0.101092774819941 
757	 0.101580036347826 
758	 0.101410371192151 
759	 0.10106582496603 
760	 0.101086779264094 
761	 0.102924190774222 
762	 0.104161430965213 
763	 0.104259163818268 
764	 0.10438593710867 
765	 0.104759401282322 
766	 0.105392050015991 
767	 0.106092273301068 
768	 0.106723228783395 
769	 0.107142028595724 
770	 0.107396802092368 
771	 0.107602340484521 
772	 0.108144593773371 
773	 0.108606275758965 
774	 0.108777121696908 
775	 0.109471117849092 
776	 0.11029562067706 
777	 0.1103383926449 
778	 0.110602496390985 
779	 0.111288433066563 
780	 0.111903605114526 
781	 0.112313632259185 
782	 0.112466650568207 
783	 0.1129076738419 
784	 0.113472743910237 
785	 0.113590622749169 
786	 0.113831404554096 
787	 0.114368575169057 
788	 0.115073699661967 
789	 0.115580632945613 
790	 0.115590394130754 
791	 0.115836181890286 
792	 0.116280897002303 
793	 0.116426334413515 
794	 0.116900892221187 
795	 0.117753528141257 
796	 0.118040865801067 
797	 0.118225437727152 
798	 0.118792351012631 
799	 0.118905264474731 
800	 0.118823064907985 
801	 0.11968405404532 
802	 0.120425998725397 
803	 0.120727110911765 
804	 0.121346867517358 
805	 0.121968306559744 
806	 0.122219662448667 
807	 0.12255003737478 
808	 0.122881990180817 
809	 0.12268577558879 
810	 0.122552520373169 
811	 0.122783561902711 
812	 0.123384113879667 
813	 0.124066870518398 
814	 0.124416875248823 
815	 0.124189558746138 
816	 0.123895810057177 
817	 0.125333478632881 
818	 0.12659408607065 
819	 0.126916095414261 
820	 0.127289127352182 
821	 0.127738199192259 
822	 0.128198333175979 
823	 0.128607523342469 
824	 0.129139101504832 
825	 0.13047308596617 
826	 0.131202465752757 
827	 0.130936881868178 
828	 0.131130843246599 
829	 0.131640161804746 
830	 0.132096950873105 
831	 0.132200740334168 
832	 0.13219518273388 
833	 0.132944162796473 
834	 0.133900992347791 
835	 0.134715399805272 
836	 0.13495649673748 
837	 0.134942896491897 
838	 0.135090726086997 
839	 0.135821754666993 
840	 0.136842179591753 
841	 0.137007806956889 
842	 0.137413813142982 
843	 0.138294038329724 
844	 0.138147823595557 
845	 0.137902250951997 
846	 0.13866001213424 
847	 0.138537003237495 
848	 0.13787940299767 
849	 0.138875528374115 
850	 0.139458325036144 
851	 0.139067420306237 
852	 0.139693434835496 
853	 0.140729985404259 
854	 0.141301189624115 
855	 0.1405557025448 
856	 0.139502726887448 
857	 0.141122890608314 
858	 0.142288181666136 
859	 0.14222762157304 
860	 0.142997024412319 
861	 0.143437655597412 
862	 0.142520428426924 
863	 0.143014438582267 
864	 0.144299769826819 
865	 0.143579751092069 
866	 0.143604721035304 
867	 0.144773185397159 
868	 0.144269946943477 
869	 0.14418192393127 
870	 0.14604238208313 
871	 0.146530653632626 
872	 0.146495952252831 
873	 0.148654989898632 
874	 0.149696689406672 
875	 0.149097403609771 
876	 0.148961101591478 
877	 0.149616969131111 
878	 0.151105479352839 
879	 0.151822534503738 
880	 0.152036947145608 
881	 0.152578675959104 
882	 0.153434343333626 
883	 0.15438028137868 
884	 0.154592057265859 
885	 0.154752080419346 
886	 0.155193834013216 
887	 0.155128602606961 
888	 0.155589812422402 
889	 0.15795819932022 
890	 0.158486537048273 
891	 0.157306411172792 
892	 0.158061564643117 
893	 0.158058452097903 
894	 0.156386751135864 
895	 0.155663447196846 
896	 0.155733033037298 
897	 0.156193193352111 
898	 0.1582580711255 
899	 0.161158823487811 
900	 0.162721477466959 
901	 0.163094951883002 
902	 0.162432498436806 
903	 0.161143189469771 
904	 0.160759065953218 
905	 0.162159702390829 
906	 0.161828771828375 
907	 0.160857593259154 
908	 0.162176175873237 
909	 0.162485254549763 
910	 0.161516396425832 
911	 0.161950109044515 
912	 0.163463269913309 
913	 0.16534607501388 
914	 0.164589517580548 
915	 0.163547692298345 
916	 0.165283382724554 
917	 0.165309951669598 
918	 0.163765375394733 
919	 0.16315908794976 
920	 0.164828150940202 
921	 0.168221222212207 
922	 0.168094484469486 
923	 0.165928979807468 
924	 0.163570198961078 
925	 0.164221798234824 
926	 0.166208801146284 
927	 0.164319801079887 
928	 0.162388102354294 
929	 0.161764523470921 
930	 0.16249547626585 
931	 0.159538779929056 
932	 0.149794640940089 
933	 0.146685216054709 
934	 0.150668382363589 
935	 0.157368739441382 
936	 0.157425480728568 
937	 0.152542994624022 
938	 0.154793577212117 
939	 0.153010104337683 
940	 0.146148329620258 
941	 0.144276518773142 
942	 0.14629693562229 
943	 0.150192989776758 
944	 0.148142664233667 
945	 0.144672267766105 
946	 0.148718809143501 
947	 0.144871989933716 
948	 0.136586314221955 
949	 0.148855791164269 
950	 0.15179424478878 
951	 0.138746125256934 
952	 0.146621901904688 
953	 0.158706468770321 
954	 0.158511772290965 
955	 0.152267222201883 
956	 0.147298240858487 
957	 0.154785374924699 
958	 0.156141005822156 
959	 0.149572934273864 
960	 0.145908887818634 
961	 0.145023965910367 
962	 0.146451697765752 
963	 0.148113183310121 
964	 0.147431386631998 
965	 0.142548879275442 
966	 0.138922454932013 
967	 0.139459860898623 
968	 0.14776522978058 
969	 0.150279413072151 
970	 0.146063119714373 
971	 0.147465780641939 
972	 0.147329996470388 
973	 0.143621043554193 
974	 0.149775394349025 
975	 0.1560521033768 
976	 0.151278830038539 
977	 0.148057397550821 
978	 0.148086327931698 
979	 0.149476536035073 
980	 0.149718212465784 
981	 0.149256000471957 
982	 0.153352719572088 
983	 0.156475022574435 
984	 0.155703372951132 
985	 0.152745603209667 
986	 0.150505455672557 
987	 0.151672564977704 
988	 0.153281119421584 
989	 0.155230334445522 
990	 0.158600856731229 
991	 0.159360906909229 
992	 0.158461282587322 
993	 0.163809499477123 
994	 0.168936351209822 
995	 0.169776398571332 
996	 0.164650787953831 
997	 0.160882042720942 
998	 0.164996091453855 
999	 0.166140753809626 
1000	 0.164560287728935 
1001	 0.164037241515711 
1002	 0.164765527276672 
1003	 0.165937277818721 
1004	 0.16442109547527 
1005	 0.163224635520769 
1006	 0.163226625968022 
1007	 0.160741117299051 
1008	 0.164462360825519 
1009	 0.178475181988185 
1010	 0.184177062174947 
1011	 0.178167366706935 
1012	 0.159992847247926 
1013	 0.156746767765802 
1014	 0.165976402347833 
1015	 0.164285978702498 
1016	 0.168503255049433 
1017	 0.178380819978713 
1018	 0.172908920070435 
1019	 0.165029514544692 
1020	 0.16382520368132 
1021	 0.17397168459219 
1022	 0.180038338379036 
1023	 0.169059127559808 
1024	 0.171310517558954 
1025	 0.179139397142724 
1026	 0.171802623220497 
1027	 0.160613429060381 
1028	 0.1536142132972 
1029	 0.166958827650213 
1030	 0.177606124724099 
1031	 0.178111751908237 
1032	 0.175662140578537 
1033	 0.174778850035568 
1034	 0.178171898038115 
1035	 0.185066190661224 
1036	 0.183335055335654 
1037	 0.163414947466717 
1038	 0.168138868703227 
1039	 0.183672876558921 
1040	 0.175636365927605 
1041	 0.166199625788471 
1042	 0.164678220193124 
1043	 0.180960281509939 
1044	 0.188205266454329 
1045	 0.180359949237401 
1046	 0.179025378386919 
1047	 0.175964778034663 
1048	 0.168684356113969 
1049	 0.172353846917995 
1050	 0.179065141805582 
1051	 0.180354763063704 
1052	 0.18641703336334 
1053	 0.190432836022682 
1054	 0.181357128765415 
1055	 0.180532900016394 
1056	 0.18527914874239 
1057	 0.174121178208313 
1058	 0.182218534539738 
1059	 0.204310488110914 
1060	 0.179748281125236 
1061	 0.167253359232062 
1062	 0.18563236301274 
1063	 0.182504670519373 
1064	 0.176133499917484 
1065	 0.179180542021709 
1066	 0.166018304899123 
1067	 0.159593374602501 
1068	 0.183218338013173 
1069	 0.182278591814438 
1070	 0.178928535713752 
1071	 0.222688274436348 
1072	 0.190516023306409 
1073	 0.114102936936869 
1074	 0.159877795913375 
1075	 0.179265345231501 
