Wavelength	AVEI200084.asd
325	 2.79693984942585E-02 
326	 2.74242624826477E-02 
327	 2.99131777909218E-02 
328	 2.77985970317308E-02 
329	 2.64280013607362E-02 
330	 2.75065709262287E-02 
331	 0.028841866844917 
332	 2.90198512670864E-02 
333	 2.71834584336882E-02 
334	 2.97496682763121E-02 
335	 0.033376126026085 
336	 2.71764746413689E-02 
337	 2.52750725407514E-02 
338	 2.97318375647731E-02 
339	 2.85063076059573E-02 
340	 2.63309273096865E-02 
341	 2.72485504691487E-02 
342	 2.62503388585508E-02 
343	 0.024626913377137 
344	 2.63578821796173E-02 
345	 2.62622886352709E-02 
346	 2.40553176418551E-02 
347	 2.44947680170374E-02 
348	 0.023991421888915 
349	 2.07574960081738E-02 
350	 0.021811756793261 
351	 2.43687210305816E-02 
352	 2.26437446731558E-02 
353	 2.34317549821227E-02 
354	 2.62524044674155E-02 
355	 2.31386587284261E-02 
356	 2.06743734026729E-02 
357	 2.25023316936429E-02 
358	 2.36512365459294E-02 
359	 2.36275414431497E-02 
360	 2.26857623910872E-02 
361	 2.11065519660774E-02 
362	 1.98041793931942E-02 
363	 2.12802730924394E-02 
364	 2.26542879172313E-02 
365	 2.23510102801187E-02 
366	 2.13836627738672E-02 
367	 2.03637140755544E-02 
368	 1.99131513085181E-02 
369	 2.02682967766348E-02 
370	 2.11748172773834E-02 
371	 2.16396803858592E-02 
372	 2.21987246472571E-02 
373	 2.29282680934483E-02 
374	 2.23711381344346E-02 
375	 2.16224904943683E-02 
376	 2.23382913129725E-02 
377	 2.32681436758211E-02 
378	 0.023673470582143 
379	 0.022292063003286 
380	 0.02074392967934 
381	 2.00616257879573E-02 
382	 2.05111866371555E-02 
383	 2.13117446203875E-02 
384	 2.14308334121717E-02 
385	 2.08879493127574E-02 
386	 2.02545946756297E-02 
387	 2.14491667832357E-02 
388	 2.16381452667083E-02 
389	 2.00773687317214E-02 
390	 2.07399727782518E-02 
391	 2.19396866818827E-02 
392	 2.13821989728562E-02 
393	 2.05701060167275E-02 
394	 2.01206571281292E-02 
395	 2.07680965107393E-02 
396	 0.021647873862607 
397	 2.21911994540543E-02 
398	 2.17429182622347E-02 
399	 2.10241117992896E-02 
400	 2.08022614749566E-02 
401	 2.07436492772278E-02 
402	 2.08462407707928E-02 
403	 2.13490095709936E-02 
404	 2.14961579951231E-02 
405	 2.10606337964887E-02 
406	 2.06921219443764E-02 
407	 2.05312563796888E-02 
408	 2.06615111295465E-02 
409	 2.03204158423178E-02 
410	 1.97933592273835E-02 
411	 2.04841862106796E-02 
412	 2.08031865877826E-02 
413	 2.02362140075664E-02 
414	 2.07156815213159E-02 
415	 2.14022928888722E-02 
416	 2.10119122767334E-02 
417	 2.04183147007114E-02 
418	 2.00251231822067E-02 
419	 2.03795896659545E-02 
420	 2.08469372926594E-02 
421	 2.10285282568508E-02 
422	 2.08263195006756E-02 
423	 2.05385859125455E-02 
424	 2.06043540097485E-02 
425	 2.07781656101038E-02 
426	 2.09129187295898E-02 
427	 2.06909285453395E-02 
428	 2.06120842629678E-02 
429	 2.09091888986087E-02 
430	 2.05937381039631E-02 
431	 2.01895034663139E-02 
432	 2.07777584469311E-02 
433	 2.12368568162691E-02 
434	 2.12818614186444E-02 
435	 0.021119846986269 
436	 2.09407950330363E-02 
437	 2.08874316609282E-02 
438	 2.10443913206286E-02 
439	 2.12132716181337E-02 
440	 2.09997303237854E-02 
441	 2.09143735972922E-02 
442	 2.10652161703393E-02 
443	 2.12027527774098E-02 
444	 2.12943183166963E-02 
445	 2.13147472112013E-02 
446	 2.11939129546442E-02 
447	 2.10524254779313E-02 
448	 2.11774714439343E-02 
449	 2.12735132121012E-02 
450	 2.12631388220184E-02 
451	 2.13004240106177E-02 
452	 2.13523070165276E-02 
453	 2.13868718556219E-02 
454	 2.16041217779318E-02 
455	 2.18391447441097E-02 
456	 2.14738479049868E-02 
457	 2.14795947360933E-02 
458	 0.022089683279144 
459	 2.21512448671454E-02 
460	 2.18096214854285E-02 
461	 2.13727816647786E-02 
462	 2.15186466420553E-02 
463	 2.20112887048152E-02 
464	 2.15182849382072E-02 
465	 0.021339378569767 
466	 2.19871780911878E-02 
467	 2.20270946979768E-02 
468	 2.16812413861728E-02 
469	 2.15128230942352E-02 
470	 2.15737779485853E-02 
471	 2.17542029250515E-02 
472	 2.15195843154456E-02 
473	 2.14364686515999E-02 
474	 2.18099004339985E-02 
475	 2.19657080704153E-02 
476	 2.19729697719435E-02 
477	 2.21260063960704E-02 
478	 2.21811066620257E-02 
479	 2.21354993905171E-02 
480	 2.22879216244829E-02 
481	 2.23383688787317E-02 
482	 2.20811803234201E-02 
483	 2.21245189044272E-02 
484	 2.23740701037307E-02 
485	 2.23396444221938E-02 
486	 2.23765046749684E-02 
487	 2.25778764873681E-02 
488	 2.27554129193201E-02 
489	 2.28978255799569E-02 
490	 2.30001647374219E-02 
491	 2.28665722590068E-02 
492	 2.26450307373843E-02 
493	 2.28558002932303E-02 
494	 2.28555538983101E-02 
495	 0.022489006220081 
496	 2.26462758066711E-02 
497	 0.022983648586401 
498	 2.29556328736408E-02 
499	 2.28222787313696E-02 
500	 2.27669256465038E-02 
501	 2.32588884635025E-02 
502	 0.023412377959933 
503	 2.28432399766903E-02 
504	 2.31272576186812E-02 
505	 2.36802535390195E-02 
506	 2.31575029145773E-02 
507	 2.31657698121399E-02 
508	 2.38801694416204E-02 
509	 2.41616744664974E-02 
510	 2.39913954272367E-02 
511	 2.34709129509435E-02 
512	 2.36844982902459E-02 
513	 2.43491854425958E-02 
514	 2.43807671500033E-02 
515	 2.42784821456803E-02 
516	 2.42543928811429E-02 
517	 2.45308091687739E-02 
518	 2.49188548940958E-02 
519	 2.51768765843865E-02 
520	 0.025007632571628 
521	 2.46470592372039E-02 
522	 2.48610363520334E-02 
523	 2.51693633762656E-02 
524	 2.53606333900443E-02 
525	 2.55803358779414E-02 
526	 2.57471490546326E-02 
527	 2.57288714876906E-02 
528	 2.58521110446228E-02 
529	 2.61391152024793E-02 
530	 2.63772254025126E-02 
531	 2.64736287376244E-02 
532	 2.64039966309044E-02 
533	 2.65696769458126E-02 
534	 2.68073036642952E-02 
535	 2.66693463219016E-02 
536	 2.65440423312519E-02 
537	 2.66416655333354E-02 
538	 2.73467127641482E-02 
539	 2.78737650011315E-02 
540	 2.75006295275223E-02 
541	 2.74027586762739E-02 
542	 2.76159141242647E-02 
543	 2.75472003503927E-02 
544	 2.75607835411659E-02 
545	 2.77640917690658E-02 
546	 2.78997613396479E-02 
547	 2.78995059579318E-02 
548	 2.77091379831163E-02 
549	 2.77457216474807E-02 
550	 2.80223479769942E-02 
551	 2.81836367777637E-02 
552	 2.83319223571145E-02 
553	 2.85121334616168E-02 
554	 0.028562405494317 
555	 2.85834325468758E-02 
556	 2.88065762384551E-02 
557	 2.89786067143981E-02 
558	 2.89920246029104E-02 
559	 2.87708439023293E-02 
560	 2.85598251343812E-02 
561	 0.028588408522849 
562	 2.87544656821587E-02 
563	 2.89786872293618E-02 
564	 2.91261365453189E-02 
565	 2.92329374173262E-02 
566	 2.93202281572621E-02 
567	 2.94771819542524E-02 
568	 2.95743511024849E-02 
569	 2.94405113638793E-02 
570	 2.92871256261183E-02 
571	 2.92192516745659E-02 
572	 2.93766068736326E-02 
573	 2.94967246248403E-02 
574	 2.94581633948614E-02 
575	 0.029724378258278 
576	 3.00617422730098E-02 
577	 2.99443055667098E-02 
578	 2.97040833068203E-02 
579	 2.95245920167749E-02 
580	 2.96764208418034E-02 
581	 2.99309583364061E-02 
582	 3.00691066307383E-02 
583	 3.01099449037123E-02 
584	 3.01008844771769E-02 
585	 3.01531048394058E-02 
586	 3.02621674396779E-02 
587	 3.04084351508195E-02 
588	 3.04637718909203E-02 
589	 3.04560205854961E-02 
590	 3.04395895726755E-02 
591	 3.03380268055302E-02 
592	 3.02619404807743E-02 
593	 3.06431344998527E-02 
594	 3.08163676436556E-02 
595	 0.030469398879605 
596	 3.04540364710496E-02 
597	 3.07515615951268E-02 
598	 3.11523842406246E-02 
599	 3.11977346903454E-02 
600	 3.09042670699711E-02 
601	 3.10882164418929E-02 
602	 3.13294474913122E-02 
603	 3.12620781800166E-02 
604	 0.031477032131933 
605	 3.18516202662945E-02 
606	 0.03181836286274 
607	 3.17744663074701E-02 
608	 3.18660168984784E-02 
609	 3.19880482841969E-02 
610	 3.20700577596922E-02 
611	 3.20360406419874E-02 
612	 3.19191287678712E-02 
613	 3.18251467240462E-02 
614	 3.20506905769477E-02 
615	 3.23021041453375E-02 
616	 3.24028243734681E-02 
617	 3.25998946222756E-02 
618	 3.26221582208467E-02 
619	 3.18981204023536E-02 
620	 3.18333028494799E-02 
621	 3.25905457701242E-02 
622	 3.28744459492736E-02 
623	 3.28742442164509E-02 
624	 3.28072694954104E-02 
625	 0.032765450416383 
626	 3.27720370470429E-02 
627	 3.27789267041571E-02 
628	 3.28988169259057E-02 
629	 3.31526734314652E-02 
630	 3.34367491826612E-02 
631	 3.34858398072495E-02 
632	 3.30068987226083E-02 
633	 3.30217960902823E-02 
634	 0.033567872099049 
635	 3.38824311216973E-02 
636	 3.42222655671989E-02 
637	 0.034623475586165 
638	 3.42159146250401E-02 
639	 3.35634140600906E-02 
640	 3.38481225395211E-02 
641	 3.41321761918194E-02 
642	 3.42005715565233E-02 
643	 3.44900640258589E-02 
644	 3.45821621600061E-02 
645	 3.41603438706985E-02 
646	 3.42069488272626E-02 
647	 0.034713042620152 
648	 3.51857353063016E-02 
649	 3.53745641529617E-02 
650	 3.52080198177363E-02 
651	 3.51694359629224E-02 
652	 3.50655191379753E-02 
653	 3.46222320840428E-02 
654	 3.46744030336633E-02 
655	 3.51566592361173E-02 
656	 0.035038643062056 
657	 3.49595027361751E-02 
658	 3.52147084933702E-02 
659	 3.49899610733706E-02 
660	 3.46952249126999E-02 
661	 3.51318196095054E-02 
662	 3.53530260361796E-02 
663	 3.52021790816493E-02 
664	 3.52683034170481E-02 
665	 3.53198981319787E-02 
666	 3.51621699416771E-02 
667	 3.50000662831832E-02 
668	 3.48807016531548E-02 
669	 3.48035000781469E-02 
670	 0.034800416821215 
671	 3.49256003593807E-02 
672	 3.53976730252299E-02 
673	 3.58649596927424E-02 
674	 3.59193098983986E-02 
675	 3.57875396561486E-02 
676	 3.56120699414035E-02 
677	 3.55832152099635E-02 
678	 3.58226668088199E-02 
679	 3.63553214727909E-02 
680	 3.68711891519533E-02 
681	 3.71452263778978E-02 
682	 3.68912213808674E-02 
683	 0.036870466515184 
684	 3.72740582436914E-02 
685	 3.78700974025026E-02 
686	 3.84897740346591E-02 
687	 3.89559204943016E-02 
688	 3.91448326302423E-02 
689	 3.93973134966749E-02 
690	 4.05901874901468E-02 
691	 4.13982743164181E-02 
692	 4.15761499921655E-02 
693	 4.20529937696482E-02 
694	 4.27140878694565E-02 
695	 4.33613573573232E-02 
696	 4.42554496571032E-02 
697	 4.53303107924115E-02 
698	 0.046392256361823 
699	 4.72967398941025E-02 
700	 4.80183232413536E-02 
701	 4.91417589056641E-02 
702	 5.02450928473762E-02 
703	 5.06816755443172E-02 
704	 5.11778067550146E-02 
705	 5.19527273275852E-02 
706	 5.30620196511188E-02 
707	 0.054067556103978 
708	 0.054723945927246 
709	 5.56373749931543E-02 
710	 5.65978392103526E-02 
711	 5.70291649914765E-02 
712	 5.78738923268638E-02 
713	 5.91396045209568E-02 
714	 5.95251987682993E-02 
715	 5.96475470037051E-02 
716	 6.01321675115346E-02 
717	 6.04816332306854E-02 
718	 6.07838338262581E-02 
719	 6.14483698288961E-02 
720	 6.26517690457526E-02 
721	 6.40426180810408E-02 
722	 6.45298837018324E-02 
723	 6.46235765114465E-02 
724	 6.48584339754322E-02 
725	 6.55094124017268E-02 
726	 6.63816325076336E-02 
727	 6.67346609091744E-02 
728	 6.71504556633372E-02 
729	 6.78358106864833E-02 
730	 6.80741206563717E-02 
731	 6.82145075289921E-02 
732	 6.88146528347715E-02 
733	 0.069515755633517 
734	 0.070184362146298 
735	 7.06452359043106E-02 
736	 7.10611885055575E-02 
737	 7.15422740195752E-02 
738	 7.21979177201208E-02 
739	 0.072886172626208 
740	 0.07331818613117 
741	 7.37385150397942E-02 
742	 7.42209414608324E-02 
743	 7.47628639838739E-02 
744	 7.52148106522194E-02 
745	 7.54722909290964E-02 
746	 7.58169328909619E-02 
747	 7.62151835024212E-02 
748	 7.64575231089479E-02 
749	 7.67178382190718E-02 
750	 7.70546920254603E-02 
751	 7.73979038328196E-02 
752	 7.78235165966661E-02 
753	 7.83932817612539E-02 
754	 7.85171309078894E-02 
755	 7.84732689147585E-02 
756	 0.079484090317965 
757	 8.01150902595271E-02 
758	 7.97819157475839E-02 
759	 7.93047063296557E-02 
760	 7.89275701681175E-02 
761	 7.96107622886683E-02 
762	 8.09877839996065E-02 
763	 8.22425727440165E-02 
764	 8.28780437364837E-02 
765	 8.29123944257307E-02 
766	 8.26570300652243E-02 
767	 8.33409504584255E-02 
768	 8.41945808707314E-02 
769	 8.42644713132803E-02 
770	 8.46347318511739E-02 
771	 8.53414439106482E-02 
772	 8.55753499996308E-02 
773	 8.57717346042463E-02 
774	 8.62207861173663E-02 
775	 8.67828195136247E-02 
776	 8.72846520871016E-02 
777	 8.74448018944352E-02 
778	 8.78341553610106E-02 
779	 8.84655444468634E-02 
780	 8.85593401134589E-02 
781	 8.87945789708939E-02 
782	 0.089668408666024 
783	 9.03561586711655E-02 
784	 9.07103987001921E-02 
785	 9.07156559889851E-02 
786	 9.07743292334435E-02 
787	 0.091049391019171 
788	 9.14847902247807E-02 
789	 9.18520342076245E-02 
790	 9.19756052485677E-02 
791	 9.25537509469651E-02 
792	 9.32759605795949E-02 
793	 0.092980519018516 
794	 9.33756142503493E-02 
795	 9.46885222281547E-02 
796	 0.094726326780243 
797	 9.44418239045503E-02 
798	 9.48864667881154E-02 
799	 9.50669066005304E-02 
800	 9.50660618229125E-02 
801	 9.56028091300125E-02 
802	 9.60539399355783E-02 
803	 9.63234624460865E-02 
804	 9.73462875888839E-02 
805	 9.82910942546203E-02 
806	 9.82587900088294E-02 
807	 9.84963399352202E-02 
808	 9.89472466618747E-02 
809	 9.85799011392153E-02 
810	 9.86766356189694E-02 
811	 9.95499113336864E-02 
812	 9.91735546739876E-02 
813	 9.87852140015906E-02 
814	 0.100203553369193 
815	 9.99597513431684E-02 
816	 0.098579652165929 
817	 0.100808029497887 
818	 0.102450359237101 
819	 0.102045435634391 
820	 0.102439228496044 
821	 0.103435053485259 
822	 0.104529547527025 
823	 0.104652877213011 
824	 0.104147123195347 
825	 0.104697739086091 
826	 0.105672967257402 
827	 0.106639250001737 
828	 0.106324206948253 
829	 0.105968039594333 
830	 0.107164587380974 
831	 0.107516162474505 
832	 0.10716649473184 
833	 0.108079355359983 
834	 0.108920122584475 
835	 0.109217266799037 
836	 0.109692311980797 
837	 0.110374909035119 
838	 0.111213125273062 
839	 0.111558740076648 
840	 0.111616537925106 
841	 0.112395955181909 
842	 0.113102244926308 
843	 0.113415865521442 
844	 0.11359098583194 
845	 0.113790622809318 
846	 0.114160520300874 
847	 0.114212353076593 
848	 0.114161731330868 
849	 0.114884010082762 
850	 0.115841279339666 
851	 0.116578093155196 
852	 0.115890395249966 
853	 0.115275773549476 
854	 0.116335979011955 
855	 0.116801985519618 
856	 0.116680837770923 
857	 0.117083896501463 
858	 0.117918286177025 
859	 0.118966777009141 
860	 0.119267648876962 
861	 0.119069191855802 
862	 0.118718604932303 
863	 0.118852118337281 
864	 0.119460652302429 
865	 0.120195015842635 
866	 0.120735932491072 
867	 0.121008777853791 
868	 0.121348962477991 
869	 0.121917904381228 
870	 0.122812776675395 
871	 0.123808745002511 
872	 0.124687419413982 
873	 0.125156398708432 
874	 0.125167118085442 
875	 0.124867077753466 
876	 0.12472607041862 
877	 0.125245818858448 
878	 0.126686993309707 
879	 0.128218103125215 
880	 0.12938116734447 
881	 0.129708915992743 
882	 0.129809533115832 
883	 0.129950009598016 
884	 0.130334728549792 
885	 0.130778478608216 
886	 0.131102374616233 
887	 0.130789788343342 
888	 0.13081480487232 
889	 0.132462713307597 
890	 0.132442576947883 
891	 0.131108021430746 
892	 0.132303040723202 
893	 0.133327321741253 
894	 0.13291962728887 
895	 0.131662276123535 
896	 0.131051175656985 
897	 0.132717900305229 
898	 0.134060739858259 
899	 0.13488549977168 
900	 0.136445721879147 
901	 0.137169227443062 
902	 0.136575127704712 
903	 0.13481084623149 
904	 0.13395455392622 
905	 0.135337214287748 
906	 0.135237129726788 
907	 0.134789609658216 
908	 0.137040371381728 
909	 0.138853428231474 
910	 0.139025224307743 
911	 0.136683431633101 
912	 0.135898494761658 
913	 0.138525919928911 
914	 0.13931031406154 
915	 0.139363359125153 
916	 0.140635848940187 
917	 0.140691055253453 
918	 0.139762513681929 
919	 0.139639872630413 
920	 0.140193156811378 
921	 0.141156897886626 
922	 0.141411918344375 
923	 0.140706430935303 
924	 0.139034127632234 
925	 0.138701882946201 
926	 0.139159981496715 
927	 0.138171179258113 
928	 0.137179225564712 
929	 0.137190729901951 
930	 0.14109574884768 
931	 0.140712646170595 
932	 0.130081470525085 
933	 0.125018961530775 
934	 0.12588304631805 
935	 0.128276069651835 
936	 0.133804005249675 
937	 0.139461957556313 
938	 0.139015884260892 
939	 0.130286415579366 
940	 0.117383305394085 
941	 0.118209592151861 
942	 0.125047494428256 
943	 0.130723910179958 
944	 0.1301170712162 
945	 0.126202090324261 
946	 0.125028925786231 
947	 0.125093391565214 
948	 0.126198362424341 
949	 0.129010197129602 
950	 0.127922523730238 
951	 0.122283736440779 
952	 0.121673620459405 
953	 0.12630474570837 
954	 0.134354610657305 
955	 0.131301263753862 
956	 0.123791575317477 
957	 0.127915375718682 
958	 0.12671635441393 
959	 0.120188352497234 
960	 0.122165640576313 
961	 0.127014953445762 
962	 0.130764873737984 
963	 0.129042801243623 
964	 0.125152258086675 
965	 0.122646195497974 
966	 0.121901446637808 
967	 0.123942164145972 
968	 0.130914111989028 
969	 0.130902160055067 
970	 0.124358031928416 
971	 0.126607963981279 
972	 0.128258445943353 
973	 0.125692372354745 
974	 0.131001328408721 
975	 0.136053381758755 
976	 0.131519213805102 
977	 0.129094384291771 
978	 0.128594580674476 
979	 0.124373539396745 
980	 0.122681708411289 
981	 0.124421046148229 
982	 0.125574527322273 
983	 0.12735931718337 
984	 0.130135232389596 
985	 0.132734159839848 
986	 0.132021345697572 
987	 0.125897278706083 
988	 0.12771539668803 
989	 0.135737362581268 
990	 0.141975470126222 
991	 0.142311087648376 
992	 0.137626430092845 
993	 0.136341571299907 
994	 0.137511160800477 
995	 0.1395035974065 
996	 0.135327191557497 
997	 0.131557546825785 
998	 0.134796896058863 
999	 0.139482156002013 
1000	 0.141921467798445 
1001	 0.137667189032631 
1002	 0.13809544721741 
1003	 0.143018611713908 
1004	 0.141723450150753 
1005	 0.138493495079707 
1006	 0.135992619404835 
1007	 0.137637495907456 
1008	 0.143501962751531 
1009	 0.15178861026728 
1010	 0.154694416694851 
1011	 0.14938047312069 
1012	 0.134292364853664 
1013	 0.134510800205556 
1014	 0.147421424660126 
1015	 0.15249271948165 
1016	 0.148320414744986 
1017	 0.137569988724476 
1018	 0.134703898934674 
1019	 0.139677393236187 
1020	 0.150290151269692 
1021	 0.156695233321112 
1022	 0.154896291492643 
1023	 0.143962193921619 
1024	 0.14664692909795 
1025	 0.158566278907081 
1026	 0.165731479795551 
1027	 0.153749277341462 
1028	 0.133190816842106 
1029	 0.150798749437214 
1030	 0.160847470430177 
1031	 0.152555710799731 
1032	 0.152550956365163 
1033	 0.160538403166829 
1034	 0.173322901312618 
1035	 0.174080792940401 
1036	 0.167112843405859 
1037	 0.159550731118034 
1038	 0.157292744811744 
1039	 0.156443808713883 
1040	 0.147867981177074 
1041	 0.147702853471441 
1042	 0.156767104824137 
1043	 0.165326840098115 
1044	 0.166228492677604 
1045	 0.158658673799198 
1046	 0.153165232875789 
1047	 0.14913990241152 
1048	 0.147532163341825 
1049	 0.154215740493503 
1050	 0.160305040627047 
1051	 0.157594428519722 
1052	 0.15754456273169 
1053	 0.162417218660855 
1054	 0.172650518700789 
1055	 0.166690599263085 
1056	 0.148705927347834 
1057	 0.14264199365992 
1058	 0.154042266273031 
1059	 0.175807855899675 
1060	 0.175569896196217 
1061	 0.159952128423386 
1062	 0.139910538170567 
1063	 0.152494324782882 
1064	 0.16794933489411 
1065	 0.163976087337075 
1066	 0.160351356062902 
1067	 0.165970431704791 
1068	 0.18474024279496 
1069	 0.189336918240557 
1070	 0.186574052255953 
1071	 0.194189714450487 
1072	 0.174561473566514 
1073	 0.141932015746584 
1074	 0.159190618579384 
1075	 0.174365129838133 
