Wavelength	AVEI200403.asd
325	 0.034871146922618 
326	 2.78401433854391E-02 
327	 2.24186101838254E-02 
328	 2.78674886037134E-02 
329	 2.96325552880716E-02 
330	 2.47803257195997E-02 
331	 2.86597704405152E-02 
332	 0.032968638738257 
333	 2.94789661263015E-02 
334	 2.86986665710873E-02 
335	 3.02047167886113E-02 
336	 2.84089091734526E-02 
337	 2.81242709305298E-02 
338	 3.02700848496234E-02 
339	 3.17945037836074E-02 
340	 3.34279734834935E-02 
341	 3.56399602063667E-02 
342	 3.59936149766707E-02 
343	 3.47184390918694E-02 
344	 0.032816080015539 
345	 3.14685104410185E-02 
346	 0.031083149087813 
347	 3.10594581879174E-02 
348	 3.27742614230887E-02 
349	 3.62866509731766E-02 
350	 3.36736402076153E-02 
351	 2.96117952231581E-02 
352	 3.31522440074449E-02 
353	 3.46663571282891E-02 
354	 3.28225730990121E-02 
355	 0.031959104062753 
356	 3.18165966883892E-02 
357	 3.20736682043799E-02 
358	 3.15390840934723E-02 
359	 0.030888292205747 
360	 3.13325337653589E-02 
361	 3.24806238581644E-02 
362	 3.34242552254975E-02 
363	 3.13660837409262E-02 
364	 3.05616153292258E-02 
365	 3.26736074023555E-02 
366	 3.20478177587586E-02 
367	 3.06496258531067E-02 
368	 3.18585141978472E-02 
369	 3.28237263644027E-02 
370	 3.30565295168253E-02 
371	 3.32613273347794E-02 
372	 3.31776716885187E-02 
373	 3.27005283057793E-02 
374	 3.21039781720091E-02 
375	 3.12775871815182E-02 
376	 3.00256103892233E-02 
377	 3.18726672437702E-02 
378	 3.53041694903635E-02 
379	 0.03250919524293 
380	 3.00441201250534E-02 
381	 3.09349335381472E-02 
382	 3.10830730253485E-02 
383	 3.04253423837048E-02 
384	 2.93974107302109E-02 
385	 2.92936216116732E-02 
386	 0.030020380651028 
387	 2.99853618949817E-02 
388	 3.05809321904045E-02 
389	 3.19831308501559E-02 
390	 3.14454152852455E-02 
391	 3.03322576838882E-02 
392	 3.04693440898535E-02 
393	 3.05275024594513E-02 
394	 3.03040849817962E-02 
395	 2.97868329575702E-02 
396	 3.05370441776904E-02 
397	 3.24738425467425E-02 
398	 0.031290336823669 
399	 2.95983141671586E-02 
400	 3.03272335613605E-02 
401	 3.03358083801767E-02 
402	 2.97438095085242E-02 
403	 3.03164165761159E-02 
404	 3.08347918061688E-02 
405	 3.08610621249156E-02 
406	 3.09718727921497E-02 
407	 3.10546761575485E-02 
408	 3.09164502097791E-02 
409	 3.06482120533389E-02 
410	 3.03398178255604E-02 
411	 3.01418346685921E-02 
412	 0.030036653438401 
413	 0.030020478560304 
414	 3.01018442051071E-02 
415	 3.02775065091229E-02 
416	 3.05479273613285E-02 
417	 3.04969229457504E-02 
418	 3.02439297114079E-02 
419	 3.05031147491937E-02 
420	 3.06787850924133E-02 
421	 3.05079214268194E-02 
422	 3.05774058541823E-02 
423	 3.08251372643889E-02 
424	 3.10748752119107E-02 
425	 3.09755592406424E-02 
426	 3.05736095392052E-02 
427	 3.03627679928364E-02 
428	 3.03848906647672E-02 
429	 3.06313703418317E-02 
430	 3.07699688872999E-02 
431	 3.08407370771537E-02 
432	 3.10082322463021E-02 
433	 3.09804322939812E-02 
434	 3.08361864535695E-02 
435	 3.11961638271509E-02 
436	 0.031318675913905 
437	 3.08027654758366E-02 
438	 3.07351711273455E-02 
439	 3.10320981924245E-02 
440	 3.12503976997283E-02 
441	 3.14382981649493E-02 
442	 3.15834948749347E-02 
443	 3.16906387038791E-02 
444	 3.17131622950942E-02 
445	 3.16317104357555E-02 
446	 3.16716427397008E-02 
447	 3.17343033707279E-02 
448	 3.14792432137612E-02 
449	 0.031365219237576 
450	 3.15803920888805E-02 
451	 3.22207456673536E-02 
452	 3.26643564740976E-02 
453	 3.23430541145367E-02 
454	 3.23529002519758E-02 
455	 3.26375927385941E-02 
456	 3.23347064529431E-02 
457	 3.23770037354549E-02 
458	 3.29607410265411E-02 
459	 3.28107392884633E-02 
460	 3.25638792799624E-02 
461	 3.30794150932734E-02 
462	 3.34399354650412E-02 
463	 3.34918549521575E-02 
464	 3.33758784601466E-02 
465	 3.36516691003229E-02 
466	 3.44487342369664E-02 
467	 3.43914255479215E-02 
468	 3.39265552487764E-02 
469	 3.39494361273233E-02 
470	 0.033809915894177 
471	 3.35574584393844E-02 
472	 3.39559950111244E-02 
473	 3.41410330530806E-02 
474	 3.36889984642222E-02 
475	 0.034086425888378 
476	 3.46820492628407E-02 
477	 3.39414172169153E-02 
478	 3.38098394671609E-02 
479	 3.45843459954777E-02 
480	 3.49659508213777E-02 
481	 3.50922410993664E-02 
482	 3.50927688801436E-02 
483	 0.034818200502148 
484	 3.44772330460669E-02 
485	 3.45581482842171E-02 
486	 3.48847322683079E-02 
487	 3.52622661895643E-02 
488	 3.50275378549103E-02 
489	 3.47894409550516E-02 
490	 0.035182228626991 
491	 3.54031358779264E-02 
492	 3.54435723934023E-02 
493	 3.57489813038767E-02 
494	 0.035939268874211 
495	 3.58964111685094E-02 
496	 3.59828845668015E-02 
497	 3.61168141696099E-02 
498	 3.61474553608161E-02 
499	 3.62162672542217E-02 
500	 3.63669435827021E-02 
501	 3.65498199831389E-02 
502	 3.70700263148091E-02 
503	 3.79852979801901E-02 
504	 3.83262670761757E-02 
505	 3.82216267894511E-02 
506	 3.81044319697222E-02 
507	 3.80798760940935E-02 
508	 3.82244938761562E-02 
509	 3.85948632218171E-02 
510	 3.89053053958918E-02 
511	 3.89675033361583E-02 
512	 3.93991322703401E-02 
513	 3.99857805487347E-02 
514	 3.99207872323706E-02 
515	 4.02843290202287E-02 
516	 4.12535248402644E-02 
517	 4.15237298600639E-02 
518	 4.15895884882362E-02 
519	 4.20716038350281E-02 
520	 4.24012270370729E-02 
521	 4.26079799643906E-02 
522	 4.31084169555932E-02 
523	 4.34963654262727E-02 
524	 4.36003647382665E-02 
525	 0.043548649894925 
526	 4.36946482665518E-02 
527	 4.45008336619936E-02 
528	 4.52683572234717E-02 
529	 4.57559422139012E-02 
530	 4.59367216871548E-02 
531	 4.59300395102863E-02 
532	 4.58873196994038E-02 
533	 4.63553462757814E-02 
534	 4.70353473363205E-02 
535	 4.71773793334971E-02 
536	 4.73663823596454E-02 
537	 4.77099355417676E-02 
538	 4.77878898907591E-02 
539	 4.79664778251915E-02 
540	 4.85779287262169E-02 
541	 4.88172656058474E-02 
542	 4.88045793397231E-02 
543	 4.93374205404841E-02 
544	 4.97468052649352E-02 
545	 4.97877791813006E-02 
546	 0.049820023550251 
547	 4.98097590989553E-02 
548	 4.96678892434853E-02 
549	 4.98187280418172E-02 
550	 5.02375104752744E-02 
551	 5.04525751172606E-02 
552	 5.06489260403385E-02 
553	 5.09337648210791E-02 
554	 5.12080937775839E-02 
555	 5.14487812226065E-02 
556	 5.16500594154682E-02 
557	 5.17213888637597E-02 
558	 5.16895718758486E-02 
559	 5.18265336771103E-02 
560	 5.19157495653921E-02 
561	 5.17820231551265E-02 
562	 5.20219590474382E-02 
563	 5.24596522815303E-02 
564	 0.052323336074177 
565	 5.23206364128178E-02 
566	 0.052611842782607 
567	 5.23043120375169E-02 
568	 5.18753358013487E-02 
569	 5.20322667731689E-02 
570	 5.23618964028536E-02 
571	 5.26702227269084E-02 
572	 5.26953323633625E-02 
573	 5.26114297631283E-02 
574	 5.25740387482353E-02 
575	 5.29327975479331E-02 
576	 5.32970347421451E-02 
577	 5.28605692823203E-02 
578	 5.24614384837499E-02 
579	 5.24104517949116E-02 
580	 5.27688281268878E-02 
581	 5.30741076761503E-02 
582	 5.29384235122428E-02 
583	 5.28137909254183E-02 
584	 5.28193057363613E-02 
585	 5.30652552406116E-02 
586	 5.31558123660638E-02 
587	 5.29883068153026E-02 
588	 5.30993489817131E-02 
589	 5.32548145496984E-02 
590	 5.30821103474136E-02 
591	 5.31178658272186E-02 
592	 0.053434721216822 
593	 5.38439741407612E-02 
594	 5.41378988969089E-02 
595	 5.42026664138328E-02 
596	 5.42589383054521E-02 
597	 5.43491944235015E-02 
598	 5.45007731800466E-02 
599	 5.45196603696167E-02 
600	 5.43574438878736E-02 
601	 5.40226647546545E-02 
602	 5.40133179099137E-02 
603	 5.46863659519871E-02 
604	 5.49210318115299E-02 
605	 0.054645240285903 
606	 0.054156371843954 
607	 5.40151313389158E-02 
608	 5.43654264057237E-02 
609	 5.42988058335329E-02 
610	 5.41711132387149E-02 
611	 5.45260073668129E-02 
612	 0.054607965185 
613	 5.43876451793748E-02 
614	 5.44299207269798E-02 
615	 5.44258484755721E-02 
616	 5.42056291963671E-02 
617	 0.053937468923456 
618	 5.38322160457377E-02 
619	 5.42213809003501E-02 
620	 5.43958168528389E-02 
621	 5.42391860357682E-02 
622	 5.42890191733671E-02 
623	 5.44263586697543E-02 
624	 5.45334607018688E-02 
625	 5.47499956860538E-02 
626	 5.49671390292349E-02 
627	 5.48570724041157E-02 
628	 5.46746760976685E-02 
629	 5.45670147989063E-02 
630	 5.46524148733512E-02 
631	 5.49517123794465E-02 
632	 5.54617406926678E-02 
633	 5.53348422843325E-02 
634	 5.48027371788178E-02 
635	 5.53686474080191E-02 
636	 5.57537420784961E-02 
637	 5.52752816675736E-02 
638	 5.49235590515462E-02 
639	 5.48351996361401E-02 
640	 5.50152517500953E-02 
641	 5.51330890416338E-02 
642	 5.51088525041148E-02 
643	 5.51887973745267E-02 
644	 5.51685055483979E-02 
645	 5.48897644030944E-02 
646	 5.48623131836815E-02 
647	 5.49615239167198E-02 
648	 0.054558777313612 
649	 5.42621601551912E-02 
650	 5.43171557232708E-02 
651	 5.46036862592213E-02 
652	 5.48297204562305E-02 
653	 0.05467249953951 
654	 5.45649094672143E-02 
655	 0.054539573302552 
656	 5.44101106599846E-02 
657	 5.38704784599719E-02 
658	 0.05294201485305 
659	 5.28073132072057E-02 
660	 5.31473970659101E-02 
661	 5.33131490972066E-02 
662	 5.27652923644782E-02 
663	 5.16419860041516E-02 
664	 5.12246273067002E-02 
665	 5.14352478412832E-02 
666	 5.20525728573421E-02 
667	 5.16880701630268E-02 
668	 5.06275318287037E-02 
669	 5.01635716222722E-02 
670	 4.99226746019652E-02 
671	 4.98445613834239E-02 
672	 5.00795500247293E-02 
673	 0.050379129502463 
674	 5.04596550414395E-02 
675	 5.05574603576201E-02 
676	 5.07856570377778E-02 
677	 5.13779205712764E-02 
678	 5.16862486365978E-02 
679	 5.15020932693626E-02 
680	 5.20634726874327E-02 
681	 5.30339772489261E-02 
682	 5.36590069057686E-02 
683	 5.39645752077886E-02 
684	 5.42529896509233E-02 
685	 5.58400263000453E-02 
686	 0.057489204482595 
687	 5.80928779253478E-02 
688	 5.93624446549227E-02 
689	 6.12454789947552E-02 
690	 6.32556633329577E-02 
691	 0.064655281613827 
692	 6.55294876255313E-02 
693	 6.72428045910785E-02 
694	 6.96187255766802E-02 
695	 7.21970154291272E-02 
696	 7.39262807863434E-02 
697	 7.50664046961684E-02 
698	 7.69250112442568E-02 
699	 7.89711599719817E-02 
700	 8.09303405371051E-02 
701	 8.28376050089875E-02 
702	 8.47981447967944E-02 
703	 8.69980690061886E-02 
704	 0.088036872801269 
705	 8.84206986746628E-02 
706	 9.10026535214887E-02 
707	 9.33989252847722E-02 
708	 9.41515921117197E-02 
709	 9.47705569516247E-02 
710	 9.57245763857247E-02 
711	 9.75002107197218E-02 
712	 0.098823752043529 
713	 9.95441359891219E-02 
714	 0.101004191343042 
715	 0.102565570658031 
716	 0.103714612318004 
717	 0.10561571072483 
718	 0.107967094913396 
719	 0.1085409990896 
720	 0.108919504790268 
721	 0.10965985076942 
722	 0.110181954669579 
723	 0.110866826493424 
724	 0.112114008072069 
725	 0.11316926227368 
726	 0.113839395116985 
727	 0.114436768304332 
728	 0.115217278343885 
729	 0.116202507514786 
730	 0.116459252438797 
731	 0.116584801819925 
732	 0.117494613900009 
733	 0.118156815676793 
734	 0.118423086296674 
735	 0.118451826021098 
736	 0.118736586900669 
737	 0.119543723253245 
738	 0.120181491488629 
739	 0.120603192267925 
740	 0.120908164776068 
741	 0.121340778083764 
742	 0.121817108622137 
743	 0.121522502517503 
744	 0.12155836948644 
745	 0.122773629356179 
746	 0.123613293213459 
747	 0.123923452498154 
748	 0.124007900016282 
749	 0.124239985856281 
750	 0.124801137439831 
751	 0.125676425498078 
752	 0.126379361847386 
753	 0.126437752609015 
754	 0.126738781981002 
755	 0.127235495381454 
756	 0.127135078192885 
757	 0.127571175141807 
758	 0.128964094788026 
759	 0.129209664128756 
760	 0.129168451842843 
761	 0.13231759918496 
762	 0.134072758670889 
763	 0.133493926849927 
764	 0.132359063454213 
765	 0.131727323946958 
766	 0.131893653481648 
767	 0.132630465552132 
768	 0.133066471542216 
769	 0.132208376997445 
770	 0.132270398028068 
771	 0.13335835330379 
772	 0.133789137332125 
773	 0.134205418803685 
774	 0.134951265900244 
775	 0.135195878632944 
776	 0.135114854291581 
777	 0.13521439588227 
778	 0.135467002710711 
779	 0.135907954857354 
780	 0.136650101050194 
781	 0.13720294137136 
782	 0.137257371644944 
783	 0.137901552011429 
784	 0.138840269985225 
785	 0.13904515941526 
786	 0.139391734220459 
787	 0.140008771982606 
788	 0.140056957473215 
789	 0.139969222110066 
790	 0.140202957983473 
791	 0.140697111281565 
792	 0.141338437543851 
793	 0.141915747959076 
794	 0.142288198901964 
795	 0.142466665085461 
796	 0.142810782740062 
797	 0.143348960217556 
798	 0.14403878194997 
799	 0.14413443845584 
800	 0.143855485257917 
801	 0.144215396011418 
802	 0.144483277122895 
803	 0.144504107402813 
804	 0.144946160971186 
805	 0.145722072835578 
806	 0.146660472994165 
807	 0.147079235491366 
808	 0.147160083353291 
809	 0.147910890552272 
810	 0.148464726433004 
811	 0.148518442806426 
812	 0.148616943951019 
813	 0.149344941298322 
814	 0.151346630308078 
815	 0.151818172708724 
816	 0.150906318748603 
817	 0.151843305942411 
818	 0.152621108591114 
819	 0.152594005116981 
820	 0.153214997533908 
821	 0.153656324244199 
822	 0.152866610286954 
823	 0.152796278219273 
824	 0.153448572788883 
825	 0.153493001859131 
826	 0.153517282964153 
827	 0.153786997583749 
828	 0.154379460605752 
829	 0.155131030376806 
830	 0.155801918184403 
831	 0.156138340325697 
832	 0.156164809664789 
833	 0.156009849714042 
834	 0.156532730195377 
835	 0.157730270830234 
836	 0.15721944021292 
837	 0.156680202688702 
838	 0.158121252667916 
839	 0.159109016322817 
840	 0.159301949391886 
841	 0.159273335899844 
842	 0.159148905934121 
843	 0.159115594447303 
844	 0.159623619053664 
845	 0.160219607654064 
846	 0.160361236442455 
847	 0.160259154158004 
848	 0.15993792828673 
849	 0.159197286528098 
850	 0.159304176667921 
851	 0.160416647608057 
852	 0.159909248685364 
853	 0.159443799386258 
854	 0.160915048345589 
855	 0.162311626065766 
856	 0.163178682113279 
857	 0.163519397478875 
858	 0.163572696992149 
859	 0.163449862415008 
860	 0.163091538796007 
861	 0.162795945339234 
862	 0.162832841090906 
863	 0.162724076729746 
864	 0.163044608826883 
865	 0.16547908529385 
866	 0.166837925200375 
867	 0.16606001990404 
868	 0.16389270468321 
869	 0.162936473094304 
870	 0.164969064454846 
871	 0.165837337211277 
872	 0.166022139059811 
873	 0.167878832896416 
874	 0.168587543138086 
875	 0.168003426698015 
876	 0.169267584944616 
877	 0.17026197340959 
878	 0.169615228258857 
879	 0.169235101515278 
880	 0.169400335844249 
881	 0.170068907848445 
882	 0.171840037342003 
883	 0.173806603231613 
884	 0.172416750628976 
885	 0.171501092915043 
886	 0.172881383849197 
887	 0.172531444824794 
888	 0.171895546615465 
889	 0.173405320389453 
890	 0.174667365836557 
891	 0.175273106817583 
892	 0.175929975892669 
893	 0.175920931066369 
894	 0.175141400977591 
895	 0.175092736960762 
896	 0.176042020564346 
897	 0.177975725221371 
898	 0.179132069969756 
899	 0.178842970251275 
900	 0.176529288797289 
901	 0.175970014817348 
902	 0.177881870048345 
903	 0.179023838948875 
904	 0.179690130731958 
905	 0.180241702805359 
906	 0.181299357326183 
907	 0.182053276494794 
908	 0.180818530441403 
909	 0.181020142454264 
910	 0.18272995415967 
911	 0.181838438360244 
912	 0.181319059483556 
913	 0.182351344959701 
914	 0.180331802467181 
915	 0.178297869507415 
916	 0.180323638173443 
917	 0.185258791063879 
918	 0.189750965250965 
919	 0.185896864759981 
920	 0.182517622567664 
921	 0.182366640888907 
922	 0.181918618122024 
923	 0.181969540470171 
924	 0.183245688944268 
925	 0.184174615790525 
926	 0.184379539924598 
927	 0.183485277793098 
928	 0.186340241834556 
929	 0.193266385142848 
930	 0.195864433871171 
931	 0.194284420234827 
932	 0.189197593444472 
933	 0.186246338546831 
934	 0.188564153375548 
935	 0.197729188155032 
936	 0.193373579135404 
937	 0.180529727021282 
938	 0.185832594255817 
939	 0.191172753324168 
940	 0.191446905505087 
941	 0.192871397543322 
942	 0.190258563359502 
943	 0.181544687409068 
944	 0.183446357719523 
945	 0.189652835109278 
946	 0.186829882853595 
947	 0.185113002121734 
948	 0.186795402662495 
949	 0.19099658752283 
950	 0.193868220750852 
951	 0.192476578574541 
952	 0.17950502364147 
953	 0.174762131316464 
954	 0.192705757594571 
955	 0.184104157948141 
956	 0.163538773990525 
957	 0.169995226454173 
958	 0.179024254590644 
959	 0.183335280516357 
960	 0.182260769698816 
961	 0.176944500558208 
962	 0.170970288809649 
963	 0.178999053894158 
964	 0.187605825725555 
965	 0.184352920401837 
966	 0.183917791407594 
967	 0.185432690612817 
968	 0.182405841490214 
969	 0.180793300721695 
970	 0.182093721142196 
971	 0.185994111795262 
972	 0.186248112594939 
973	 0.181669001920973 
974	 0.188256649183501 
975	 0.195124671067156 
976	 0.189259135670756 
977	 0.182287869916065 
978	 0.180260698593397 
979	 0.19160729740745 
980	 0.192825537287072 
981	 0.18330727608444 
982	 0.188660754529804 
983	 0.193603585194459 
984	 0.190805709850837 
985	 0.18891454503909 
986	 0.189109611608215 
987	 0.191420823315268 
988	 0.189053881932768 
989	 0.185462537259315 
990	 0.19029299821553 
991	 0.191728570500003 
992	 0.188762655524428 
993	 0.190267292677684 
994	 0.18932577644319 
995	 0.184523909161309 
996	 0.188550063007139 
997	 0.19428736048051 
998	 0.19379497004808 
999	 0.189260931742514 
1000	 0.18387813033911 
1001	 0.182422912825886 
1002	 0.180235027305897 
1003	 0.17915805364672 
1004	 0.190426885258446 
1005	 0.191613447252171 
1006	 0.178757989128817 
1007	 0.18305950631461 
1008	 0.193996677609157 
1009	 0.200943892672415 
1010	 0.198373562012447 
1011	 0.192552303174505 
1012	 0.193252430472308 
1013	 0.19105186842529 
1014	 0.187193998316383 
1015	 0.189245401237991 
1016	 0.191528176085751 
1017	 0.192152447850833 
1018	 0.191601014152016 
1019	 0.18944318134336 
1020	 0.187793887365544 
1021	 0.20155112938017 
1022	 0.209460121133707 
1023	 0.192043466645417 
1024	 0.18387969300195 
1025	 0.190508288531681 
1026	 0.209406175028276 
1027	 0.21472178071669 
1028	 0.204362106017541 
1029	 0.193910057904351 
1030	 0.187068538393714 
1031	 0.187162420353392 
1032	 0.197223806899962 
1033	 0.197877772771859 
1034	 0.181101314361044 
1035	 0.178126402658226 
1036	 0.187882909072222 
1037	 0.203156684486065 
1038	 0.207668819044655 
1039	 0.200756377919161 
1040	 0.186476402209971 
1041	 0.1873891672117 
1042	 0.201747556470224 
1043	 0.203253539820062 
1044	 0.202079796665329 
1045	 0.201089811359605 
1046	 0.198912556601785 
1047	 0.202990248441336 
1048	 0.211582702816142 
1049	 0.190785857841796 
1050	 0.171634511463294 
1051	 0.186383615694378 
1052	 0.210136845003495 
1053	 0.218757290171095 
1054	 0.182920774733035 
1055	 0.151508196822541 
1056	 0.145101342004793 
1057	 0.18070706706052 
1058	 0.185153507186189 
1059	 0.159380871292033 
1060	 0.195737452307775 
1061	 0.208740668338635 
1062	 0.174189812558247 
1063	 0.191463105401065 
1064	 0.207786047915507 
1065	 0.189556976229713 
1066	 0.178647071536633 
1067	 0.181223180004517 
1068	 0.196002491521905 
1069	 0.178353908856228 
1070	 0.154425459168433 
1071	 0.186874702792626 
1072	 0.181480848570661 
1073	 0.14799363541216 
1074	 0.152994851103745 
1075	 0.176879397904294 
