Wavelength	AVEI200255.asd
325	 4.15331356567779E-02 
326	 4.41019344833959E-02 
327	 4.97964672394173E-02 
328	 4.89954467712499E-02 
329	 0.047128921979303 
330	 4.64393062638558E-02 
331	 4.68567767602963E-02 
332	 4.89480066377086E-02 
333	 5.28324859733123E-02 
334	 4.87700652725768E-02 
335	 4.00935563430089E-02 
336	 3.77224244321787E-02 
337	 3.73930032610815E-02 
338	 3.81695753548627E-02 
339	 4.17289661500632E-02 
340	 4.45371779623171E-02 
341	 4.37625369600145E-02 
342	 4.02343697552598E-02 
343	 0.037563349913672 
344	 4.23723195262835E-02 
345	 0.044038964413654 
346	 4.15063650391418E-02 
347	 4.26204541258999E-02 
348	 4.45501417570255E-02 
349	 4.51287549735562E-02 
350	 4.43320533775161E-02 
351	 4.23454470067674E-02 
352	 3.93033174250491E-02 
353	 3.83044211076359E-02 
354	 3.93863493381276E-02 
355	 0.039528044479302 
356	 3.98090727814264E-02 
357	 4.06906393185346E-02 
358	 4.03383138078223E-02 
359	 3.98241140119637E-02 
360	 4.10834514640497E-02 
361	 4.05846572245107E-02 
362	 3.83590789743643E-02 
363	 3.71369776606094E-02 
364	 3.78163678520018E-02 
365	 4.03767487392615E-02 
366	 4.18659332069866E-02 
367	 4.18202247571375E-02 
368	 4.01052550978009E-02 
369	 3.93989648759901E-02 
370	 4.00284492148612E-02 
371	 4.07942310359402E-02 
372	 4.05753688452209E-02 
373	 3.89794777385922E-02 
374	 3.81050548784121E-02 
375	 3.78787336487505E-02 
376	 3.78221623873593E-02 
377	 3.89612917786343E-02 
378	 4.04441254742336E-02 
379	 3.88761180237867E-02 
380	 0.037195375877564 
381	 0.037047206281313 
382	 3.84935361658459E-02 
383	 0.039681953339779 
384	 3.83017586822971E-02 
385	 3.75295969462775E-02 
386	 3.75326860797424E-02 
387	 3.61311181896572E-02 
388	 0.03507771156892 
389	 3.54432417135998E-02 
390	 3.86492407953844E-02 
391	 4.07765547986518E-02 
392	 3.74955090764457E-02 
393	 3.54423739586827E-02 
394	 3.56326677540489E-02 
395	 3.66248388890924E-02 
396	 3.65398143704582E-02 
397	 3.49846348522641E-02 
398	 3.48527748578823E-02 
399	 3.55251203570017E-02 
400	 3.60567729188898E-02 
401	 3.53721291585891E-02 
402	 3.42715750791528E-02 
403	 3.52917233768729E-02 
404	 3.59332203532146E-02 
405	 3.53278880612356E-02 
406	 0.034882175956036 
407	 3.45240219328135E-02 
408	 3.40171164921075E-02 
409	 3.39780048805333E-02 
410	 3.42683971400971E-02 
411	 3.40402885115124E-02 
412	 3.41211907407917E-02 
413	 0.03473407748749 
414	 3.47015620016723E-02 
415	 3.43913806074134E-02 
416	 3.44147930022851E-02 
417	 3.47680906120236E-02 
418	 3.51512898704402E-02 
419	 3.45980224771017E-02 
420	 3.41369968768253E-02 
421	 3.43066784688411E-02 
422	 3.46271558594925E-02 
423	 3.47984724170527E-02 
424	 3.44914935274624E-02 
425	 3.39683159412161E-02 
426	 0.033508441421862 
427	 3.37811784628557E-02 
428	 3.41849798876446E-02 
429	 3.42721596207308E-02 
430	 3.38927906617746E-02 
431	 3.34125067747564E-02 
432	 3.34615404271847E-02 
433	 3.35828261872292E-02 
434	 3.36690902488015E-02 
435	 3.38623281819846E-02 
436	 3.38555663209529E-02 
437	 3.35210138380289E-02 
438	 3.35955718645048E-02 
439	 3.39733366552325E-02 
440	 3.43079559197771E-02 
441	 3.42034000039916E-02 
442	 3.37769944165296E-02 
443	 3.41124656510588E-02 
444	 3.45791242852946E-02 
445	 3.46381431691376E-02 
446	 3.45717980399577E-02 
447	 3.43478130198373E-02 
448	 3.36855431131371E-02 
449	 3.37177017909406E-02 
450	 3.45651756160292E-02 
451	 3.47238262458597E-02 
452	 0.034521202852042 
453	 3.43799062358981E-02 
454	 3.43966137410193E-02 
455	 3.44937338683782E-02 
456	 3.43870174138133E-02 
457	 3.41020326594294E-02 
458	 3.37708221929794E-02 
459	 3.40209382628246E-02 
460	 3.45817658754841E-02 
461	 0.035055555404258 
462	 3.50231340987448E-02 
463	 3.44975458770841E-02 
464	 3.37044146263101E-02 
465	 3.38190848691515E-02 
466	 3.51138993776253E-02 
467	 3.46543751629918E-02 
468	 3.36387285137869E-02 
469	 3.43031315821812E-02 
470	 3.47931977790188E-02 
471	 3.47463002516089E-02 
472	 3.46628175679673E-02 
473	 3.46038157241061E-02 
474	 3.46085340466622E-02 
475	 3.45345644715602E-02 
476	 3.45347543904966E-02 
477	 3.49341667601824E-02 
478	 3.49586383657934E-02 
479	 3.45478969822312E-02 
480	 3.44680810014102E-02 
481	 0.034540741730674 
482	 3.46251161065443E-02 
483	 3.50748850054648E-02 
484	 3.55242246293972E-02 
485	 3.49745222819135E-02 
486	 3.44520198007532E-02 
487	 3.43701006655781E-02 
488	 3.46203931297101E-02 
489	 3.49639675454451E-02 
490	 3.51430522526229E-02 
491	 3.48298205442106E-02 
492	 3.43676348591376E-02 
493	 3.48967710736355E-02 
494	 3.51282632588615E-02 
495	 3.46421074197727E-02 
496	 3.45139538231879E-02 
497	 0.034885866189569 
498	 3.57970222950059E-02 
499	 3.65183071014059E-02 
500	 3.66882006012556E-02 
501	 3.57969506608847E-02 
502	 3.53304541581396E-02 
503	 3.60767455408744E-02 
504	 3.63710459448146E-02 
505	 3.64641169594828E-02 
506	 3.71639141301257E-02 
507	 3.76799925827101E-02 
508	 3.78668256945423E-02 
509	 3.80950752142288E-02 
510	 3.82902461031549E-02 
511	 3.84277864414633E-02 
512	 3.90163294148627E-02 
513	 3.97803770808931E-02 
514	 3.98526988481628E-02 
515	 4.01393387706811E-02 
516	 4.09024983165136E-02 
517	 4.16857138485046E-02 
518	 4.22711698603128E-02 
519	 4.24748231818888E-02 
520	 4.25989602818527E-02 
521	 0.042894474700083 
522	 4.38720452879373E-02 
523	 4.45498538584385E-02 
524	 4.46483921024317E-02 
525	 4.55963207375537E-02 
526	 0.046767470963696 
527	 0.047077593454856 
528	 4.71827924095637E-02 
529	 4.73750457186269E-02 
530	 4.80835071482592E-02 
531	 4.85865062938641E-02 
532	 4.85112118541185E-02 
533	 4.91716177496745E-02 
534	 5.00939409762149E-02 
535	 4.99514255952939E-02 
536	 5.00577061403932E-02 
537	 5.06626682373858E-02 
538	 5.08404928535413E-02 
539	 5.10067786056301E-02 
540	 5.15735091928828E-02 
541	 5.19648912615858E-02 
542	 5.20864789976075E-02 
543	 5.19512157501657E-02 
544	 5.20889337534423E-02 
545	 5.26513997162567E-02 
546	 5.29485266636748E-02 
547	 5.31348856767882E-02 
548	 5.34950109333085E-02 
549	 5.39349177055652E-02 
550	 5.42889980003604E-02 
551	 5.40264251568491E-02 
552	 5.39967285188867E-02 
553	 5.46497776039935E-02 
554	 0.054883396585747 
555	 5.48061086803641E-02 
556	 5.49059948523685E-02 
557	 5.50705288724516E-02 
558	 5.52643704298142E-02 
559	 5.54961990308914E-02 
560	 5.53674126107441E-02 
561	 5.46167763056997E-02 
562	 5.48083609149278E-02 
563	 5.56124952624771E-02 
564	 5.53911251127691E-02 
565	 5.50739221006156E-02 
566	 5.49691085637697E-02 
567	 5.46293925359728E-02 
568	 5.43703496201339E-02 
569	 5.46252602302569E-02 
570	 5.42467521139772E-02 
571	 5.33538899452562E-02 
572	 5.33301956049486E-02 
573	 5.35655234822265E-02 
574	 5.36306003758209E-02 
575	 5.32822114136744E-02 
576	 0.052693326796214 
577	 5.22293852378816E-02 
578	 5.20955367284406E-02 
579	 5.22376691390043E-02 
580	 5.19943786389249E-02 
581	 0.051872069897411 
582	 5.22857948346318E-02 
583	 5.24360336457002E-02 
584	 5.21984942808118E-02 
585	 5.16048042404757E-02 
586	 5.11799477400084E-02 
587	 0.051169962103492 
588	 5.14619346173676E-02 
589	 5.16023694681039E-02 
590	 0.051030461166418 
591	 5.09228682627668E-02 
592	 5.13083572411547E-02 
593	 5.12662377809186E-02 
594	 5.11996821842372E-02 
595	 5.12980039126662E-02 
596	 5.11913863007821E-02 
597	 5.08748524644919E-02 
598	 5.03927789278926E-02 
599	 5.01821447931273E-02 
600	 5.03644687486104E-02 
601	 5.07952942402068E-02 
602	 0.050983044481116 
603	 5.05699436498344E-02 
604	 0.050667789716045 
605	 5.11031391037441E-02 
606	 5.09422336883197E-02 
607	 5.05690148971615E-02 
608	 5.01317964211247E-02 
609	 4.96232305455658E-02 
610	 4.93039561451874E-02 
611	 4.94779498008607E-02 
612	 0.049688818855042 
613	 4.96428129692818E-02 
614	 4.87441484178993E-02 
615	 4.82463349711959E-02 
616	 4.88081245732295E-02 
617	 4.89744996522844E-02 
618	 4.87403652061788E-02 
619	 4.84545004251148E-02 
620	 4.82892989237577E-02 
621	 4.83440481639486E-02 
622	 4.87975333016431E-02 
623	 4.88001138385089E-02 
624	 4.76973204137284E-02 
625	 4.73702723118276E-02 
626	 0.047849646529792 
627	 4.83046577177286E-02 
628	 4.82841522717678E-02 
629	 4.77575964160499E-02 
630	 4.81423064503258E-02 
631	 4.85088772127742E-02 
632	 4.75864704541542E-02 
633	 4.75069033382583E-02 
634	 4.83023706439121E-02 
635	 4.83864882931234E-02 
636	 4.81671256529797E-02 
637	 0.047871288352659 
638	 4.74305319851607E-02 
639	 4.69156273746946E-02 
640	 4.64335554387304E-02 
641	 4.60781179390779E-02 
642	 4.58242569484762E-02 
643	 4.54017182866471E-02 
644	 4.48905601237234E-02 
645	 4.43977932597938E-02 
646	 4.43814608765372E-02 
647	 4.45895920279255E-02 
648	 0.044108097370933 
649	 4.37230533477217E-02 
650	 4.37023525812889E-02 
651	 4.36849429377388E-02 
652	 4.35225528762194E-02 
653	 4.30794275155635E-02 
654	 4.27049087499866E-02 
655	 4.25601241413006E-02 
656	 4.28893194478082E-02 
657	 4.32250870815039E-02 
658	 4.31924472227044E-02 
659	 4.24565989057519E-02 
660	 4.15462829258105E-02 
661	 4.13269064081579E-02 
662	 4.12627233474185E-02 
663	 4.10537681809151E-02 
664	 4.00347091936843E-02 
665	 3.93798805338643E-02 
666	 3.99665016599372E-02 
667	 3.99309830189669E-02 
668	 3.93378850428708E-02 
669	 3.91095049738507E-02 
670	 3.92971411769803E-02 
671	 3.98343215614886E-02 
672	 4.00926252200018E-02 
673	 3.99326560111042E-02 
674	 3.92924075610424E-02 
675	 3.90530174630092E-02 
676	 3.93197327656625E-02 
677	 3.96634417405041E-02 
678	 4.01662051991055E-02 
679	 4.07791397487257E-02 
680	 4.09861698142465E-02 
681	 4.10178990602218E-02 
682	 4.13204010533111E-02 
683	 4.18924282350493E-02 
684	 4.27774207765703E-02 
685	 4.41606813826666E-02 
686	 0.045600249476971 
687	 4.66772458359863E-02 
688	 0.047826535958433 
689	 4.91923805511991E-02 
690	 5.11271568620549E-02 
691	 5.29601274059065E-02 
692	 5.47387088735852E-02 
693	 5.75526696727638E-02 
694	 0.060570542040482 
695	 6.27551819525843E-02 
696	 6.46282890872664E-02 
697	 6.67147252793271E-02 
698	 7.01785181447893E-02 
699	 7.40015644641453E-02 
700	 0.077573728305678 
701	 8.08289357401881E-02 
702	 8.39047732944854E-02 
703	 8.70446733310915E-02 
704	 9.03878625888586E-02 
705	 0.093813772373693 
706	 9.66054199275513E-02 
707	 9.94948390699727E-02 
708	 0.102909990134856 
709	 0.106378342693176 
710	 0.109614937648946 
711	 0.112198345868781 
712	 0.115101762117024 
713	 0.118473098046396 
714	 0.121654401556088 
715	 0.124429607239142 
716	 0.126755823770324 
717	 0.128930677340812 
718	 0.131344698413667 
719	 0.134550178044571 
720	 0.137176863040766 
721	 0.138828403827473 
722	 0.140936261936657 
723	 0.143130192690609 
724	 0.144731329278357 
725	 0.145945331452826 
726	 0.147084937669404 
727	 0.149331724284414 
728	 0.151172392061237 
729	 0.152036295978232 
730	 0.153708798951308 
731	 0.155486756640505 
732	 0.156182575217139 
733	 0.156661311736201 
734	 0.157294614411134 
735	 0.158528581880351 
736	 0.159674114676413 
737	 0.160288603635259 
738	 0.161188462777197 
739	 0.162268217427257 
740	 0.163141318959542 
741	 0.163771301115494 
742	 0.164136451397051 
743	 0.164136226685687 
744	 0.164591593841019 
745	 0.166098955317555 
746	 0.167230961984364 
747	 0.167807062914496 
748	 0.167977902667492 
749	 0.168590652334359 
750	 0.169779639532235 
751	 0.17028744486217 
752	 0.170540649578866 
753	 0.171062337292757 
754	 0.171010342886481 
755	 0.170699996477626 
756	 0.171412829602525 
757	 0.172500107255617 
758	 0.173643418852631 
759	 0.173935898898415 
760	 0.173924018905456 
761	 0.175463218040667 
762	 0.176397970569193 
763	 0.176080007988022 
764	 0.174599297865785 
765	 0.174240222548471 
766	 0.17542694079975 
767	 0.176482167351517 
768	 0.177239254671008 
769	 0.177632702133652 
770	 0.177806122512072 
771	 0.177963020988079 
772	 0.178674880811716 
773	 0.179359197012856 
774	 0.179659766411757 
775	 0.180223933852859 
776	 0.180655803906055 
777	 0.180047406294926 
778	 0.179973160192398 
779	 0.180802672752882 
780	 0.181848971663485 
781	 0.182669481189003 
782	 0.182936707817811 
783	 0.182966039825621 
784	 0.183067911460859 
785	 0.183777505610121 
786	 0.184282880204496 
787	 0.184456102905489 
788	 0.185149750776302 
789	 0.185773614230177 
790	 0.185771705941015 
791	 0.185849196238527 
792	 0.186155935514463 
793	 0.18672815754344 
794	 0.187179437813234 
795	 0.187454217340776 
796	 0.188171461321858 
797	 0.188645877609016 
798	 0.188229569672657 
799	 0.188100296626884 
800	 0.188379274873178 
801	 0.188697767693547 
802	 0.189043382089816 
803	 0.18940463392421 
804	 0.189868308317302 
805	 0.190419999420634 
806	 0.191033867759133 
807	 0.191598600979038 
808	 0.191993871464742 
809	 0.191922072477095 
810	 0.191944605500667 
811	 0.192348244825696 
812	 0.19300142936517 
813	 0.193971639906435 
814	 0.195295728030613 
815	 0.19546549950926 
816	 0.194743251467609 
817	 0.195368132327959 
818	 0.196021238884447 
819	 0.196238848428484 
820	 0.196838436053402 
821	 0.197521705100566 
822	 0.197852663094429 
823	 0.197011189728754 
824	 0.195919320228761 
825	 0.197500365252711 
826	 0.199315910158076 
827	 0.200229409358317 
828	 0.199825906094904 
829	 0.199329641483646 
830	 0.20025315529251 
831	 0.20101059035199 
832	 0.201294900261565 
833	 0.201359761200649 
834	 0.20098755984705 
835	 0.200433668292411 
836	 0.201596253981861 
837	 0.202677770885907 
838	 0.20158788397392 
839	 0.201100193420177 
840	 0.201579480394392 
841	 0.20225781663799 
842	 0.203119618303917 
843	 0.203858773582511 
844	 0.203081835822868 
845	 0.20237229599184 
846	 0.203533706944325 
847	 0.204612571714992 
848	 0.204988876357276 
849	 0.204046974045878 
850	 0.203775690282301 
851	 0.204638517585461 
852	 0.203831202723747 
853	 0.202717285370674 
854	 0.202974305627426 
855	 0.20379812351041 
856	 0.204828209101744 
857	 0.20569147476836 
858	 0.206070468046431 
859	 0.205835628318321 
860	 0.204932758572548 
861	 0.204510383805817 
862	 0.20557436382076 
863	 0.206650599447651 
864	 0.207238077404925 
865	 0.206925487862636 
866	 0.206306277737944 
867	 0.205861296457939 
868	 0.206338219167352 
869	 0.207636925565804 
870	 0.209400345117077 
871	 0.209315969871486 
872	 0.208541567396466 
873	 0.210043704547611 
874	 0.211175220825375 
875	 0.211261942018428 
876	 0.210910823721835 
877	 0.211101897370247 
878	 0.212481283716075 
879	 0.214407413855446 
880	 0.215536883492687 
881	 0.213925960347201 
882	 0.213645868515411 
883	 0.21519951442041 
884	 0.216104185095341 
885	 0.216343902752361 
886	 0.216191268733681 
887	 0.217987084035589 
888	 0.219714252217322 
889	 0.218483543544871 
890	 0.218503432224678 
891	 0.219860970797513 
892	 0.219308789266291 
893	 0.219556736256857 
894	 0.221629725422525 
895	 0.223571778135576 
896	 0.223738682816549 
897	 0.220590694153477 
898	 0.217421633738876 
899	 0.216479363743666 
900	 0.221117787411564 
901	 0.223096440270446 
902	 0.221138024144963 
903	 0.223484543877696 
904	 0.225558533116741 
905	 0.224034450678291 
906	 0.224380781539409 
907	 0.225748419378074 
908	 0.225162330954673 
909	 0.22428675112438 
910	 0.224131449541572 
911	 0.227179586615138 
912	 0.226931403700945 
913	 0.22108156465661 
914	 0.220901705580531 
915	 0.223603750719333 
916	 0.224336026365398 
917	 0.224970303701888 
918	 0.225652256505543 
919	 0.226106042514907 
920	 0.226263633758338 
921	 0.226026646216302 
922	 0.224716436842892 
923	 0.224775453734657 
924	 0.228036185197641 
925	 0.229024191057416 
926	 0.227304473226624 
927	 0.22403045540635 
928	 0.223642968429003 
929	 0.226287232644774 
930	 0.221992329672881 
931	 0.218577181690262 
932	 0.222397973967217 
933	 0.226937605533988 
934	 0.224881903691765 
935	 0.208782750855293 
936	 0.206686109291588 
937	 0.216996230752496 
938	 0.216162784727568 
939	 0.212851835501726 
940	 0.210426198154158 
941	 0.212932080111706 
942	 0.214388007765036 
943	 0.210573273774161 
944	 0.204312170821402 
945	 0.199453075849136 
946	 0.201428808227173 
947	 0.2021430667783 
948	 0.201018828007239 
949	 0.204322595435834 
950	 0.202665987213453 
951	 0.194336289316891 
952	 0.193003290023131 
953	 0.193725255929515 
954	 0.191235023723849 
955	 0.187465252828343 
956	 0.186558079524985 
957	 0.195941536457494 
958	 0.192744623328926 
959	 0.179848276845809 
960	 0.185491214019431 
961	 0.193435363166048 
962	 0.194574761560504 
963	 0.185032180118211 
964	 0.178234343113927 
965	 0.186214428939691 
966	 0.190535959209415 
967	 0.188732040464795 
968	 0.182416538490862 
969	 0.17868820212493 
970	 0.180088250291668 
971	 0.18724604181656 
972	 0.191148121538096 
973	 0.18770098429855 
974	 0.184375414593355 
975	 0.182536898552993 
976	 0.182888992182142 
977	 0.187924572032839 
978	 0.193352368613393 
979	 0.189991596233584 
980	 0.184292629136391 
981	 0.180425417372442 
982	 0.18629612511856 
983	 0.189670413958116 
984	 0.1859078885343 
985	 0.190537319863729 
986	 0.196076466713751 
987	 0.193589870913249 
988	 0.187938902793868 
989	 0.184382376105677 
990	 0.1909951072655 
991	 0.195382895270839 
992	 0.195218865672982 
993	 0.197200205380324 
994	 0.19761414357044 
995	 0.195465454526785 
996	 0.196175978992028 
997	 0.198222879174983 
998	 0.199949759203835 
999	 0.203922264832477 
1000	 0.208724675057147 
1001	 0.211820185756356 
1002	 0.207982823774977 
1003	 0.199570666936336 
1004	 0.198340082764426 
1005	 0.203203234372431 
1006	 0.21196583290604 
1007	 0.216272440308462 
1008	 0.215225038476912 
1009	 0.209337544928712 
1010	 0.204381567859081 
1011	 0.202744019024509 
1012	 0.20595805363926 
1013	 0.202199866106094 
1014	 0.195125783955329 
1015	 0.200705674485164 
1016	 0.201978497001882 
1017	 0.197544476303504 
1018	 0.20421389089062 
1019	 0.211899883334477 
1020	 0.213711627281297 
1021	 0.205808095151847 
1022	 0.20215582421571 
1023	 0.215611260540137 
1024	 0.225683001154669 
1025	 0.227845504630172 
1026	 0.220389076921334 
1027	 0.22211578884823 
1028	 0.230205367997521 
1029	 0.222066335863519 
1030	 0.215976574588644 
1031	 0.216937551100686 
1032	 0.216773187737656 
1033	 0.219797665986184 
1034	 0.227514466010236 
1035	 0.231653107740572 
1036	 0.227625159663435 
1037	 0.214181123768014 
1038	 0.221791635553958 
1039	 0.239830191551661 
1040	 0.242990789476785 
1041	 0.227047050886176 
1042	 0.208969002092954 
1043	 0.243764075847611 
1044	 0.266944521565154 
1045	 0.258104638281731 
1046	 0.225047057208628 
1047	 0.221183387359438 
1048	 0.262342998567875 
1049	 0.227213347926744 
1050	 0.200879673998582 
1051	 0.262101465778273 
1052	 0.258698285784919 
1053	 0.221927225652377 
1054	 0.238786969369114 
1055	 0.23222900507718 
1056	 0.213780382334554 
1057	 0.246511114649489 
1058	 0.25517278329559 
1059	 0.227202455986699 
1060	 0.211570985596436 
1061	 0.215654745138867 
1062	 0.236629626149057 
1063	 0.254580474065758 
1064	 0.242900419917879 
1065	 0.19473605255411 
1066	 0.194330454763288 
1067	 0.212333285153016 
1068	 0.208760446985005 
1069	 0.216929751347338 
1070	 0.225035109386542 
1071	 0.208225695141956 
1072	 0.227008808068795 
1073	 0.26196150951182 
1074	 0.23152854340654 
1075	 0.209418508736117 
