Wavelength	AVEI200178.asd
325	 0.046810714141945 
326	 4.60029006376376E-02 
327	 3.77857270094711E-02 
328	 3.63695502621331E-02 
329	 0.038437572927719 
330	 4.20054725508956E-02 
331	 4.42862120818371E-02 
332	 4.47598500080985E-02 
333	 4.32229453839248E-02 
334	 4.08456428579872E-02 
335	 3.85434154482911E-02 
336	 3.76820271116975E-02 
337	 0.035902412095138 
338	 3.39579743331652E-02 
339	 3.89191954844201E-02 
340	 4.29106457042011E-02 
341	 4.02295422622655E-02 
342	 4.14010344223176E-02 
343	 4.43277675835062E-02 
344	 4.20016314583861E-02 
345	 4.00634719483485E-02 
346	 0.039688559481517 
347	 0.03888073119688 
348	 3.92588088175864E-02 
349	 4.13816404634709E-02 
350	 4.03511496287228E-02 
351	 3.82602869423917E-02 
352	 3.94105499796305E-02 
353	 3.92008063983283E-02 
354	 0.037529499094195 
355	 0.038134213335278 
356	 3.91785699061903E-02 
357	 3.95549718596859E-02 
358	 4.01325003766319E-02 
359	 4.03008697802671E-02 
360	 0.039070141554806 
361	 3.78813334702156E-02 
362	 3.73147666674813E-02 
363	 3.78550712611949E-02 
364	 3.84086111760725E-02 
365	 3.83722968242835E-02 
366	 3.81760242057409E-02 
367	 3.79011972674524E-02 
368	 3.75999286355603E-02 
369	 3.69301225456445E-02 
370	 3.61430895253286E-02 
371	 3.62719078514262E-02 
372	 3.64479468171652E-02 
373	 0.036230227233612 
374	 3.60339121127443E-02 
375	 3.59730851583218E-02 
376	 3.61362559129138E-02 
377	 3.61915804976925E-02 
378	 3.58816510222948E-02 
379	 3.45517930597953E-02 
380	 3.39594350671303E-02 
381	 3.48926400058885E-02 
382	 3.61483948138433E-02 
383	 3.68674260837165E-02 
384	 3.61594282011941E-02 
385	 3.50811847047124E-02 
386	 3.44065742240511E-02 
387	 3.55917746604975E-02 
388	 0.03615110584998 
389	 0.03516575960613 
390	 3.46950421310193E-02 
391	 3.45921718875699E-02 
392	 3.44687691816385E-02 
393	 3.51565392192829E-02 
394	 0.03584536148991 
395	 3.37892797307682E-02 
396	 3.22587421261182E-02 
397	 3.25947819543553E-02 
398	 3.36831862420723E-02 
399	 3.46813984215316E-02 
400	 3.49042733628296E-02 
401	 3.41628437165312E-02 
402	 3.30177827170507E-02 
403	 3.26703974064371E-02 
404	 3.30414590971705E-02 
405	 3.37876413853729E-02 
406	 3.30155612169333E-02 
407	 3.19731027611284E-02 
408	 3.23588258091994E-02 
409	 3.27210479164269E-02 
410	 3.27957684251727E-02 
411	 3.28523017054596E-02 
412	 3.26225178975645E-02 
413	 3.21555213243841E-02 
414	 3.25993806889712E-02 
415	 3.30454630838916E-02 
416	 3.22198224049896E-02 
417	 3.20879734732945E-02 
418	 3.26274038598953E-02 
419	 3.21940815777113E-02 
420	 3.21650835163289E-02 
421	 3.30648560140204E-02 
422	 3.30676431612542E-02 
423	 3.26032787535124E-02 
424	 3.25942851715517E-02 
425	 3.24318644023986E-02 
426	 3.21308369989887E-02 
427	 3.22212320365716E-02 
428	 3.24152703314886E-02 
429	 3.25137388429196E-02 
430	 3.25548008000569E-02 
431	 3.25598427745238E-02 
432	 3.25668527862037E-02 
433	 0.032544430314171 
434	 3.24230204546505E-02 
435	 3.19073181025207E-02 
436	 3.17201398269554E-02 
437	 3.22375871572782E-02 
438	 0.032332666814617 
439	 3.20647533499746E-02 
440	 3.18219919499742E-02 
441	 3.18103577090138E-02 
442	 3.20464769653052E-02 
443	 3.22585848228623E-02 
444	 3.22995753403598E-02 
445	 3.20806982235719E-02 
446	 3.18423205021532E-02 
447	 3.17349988298619E-02 
448	 3.19822961980266E-02 
449	 0.032255145669222 
450	 3.23871372710529E-02 
451	 3.22293344256528E-02 
452	 3.20578892279424E-02 
453	 3.21486557779327E-02 
454	 3.23652642465882E-02 
455	 3.25262801795079E-02 
456	 3.21899022805935E-02 
457	 3.20051755982921E-02 
458	 3.21926827417563E-02 
459	 3.22827060567463E-02 
460	 0.032285155456496 
461	 3.22598870233696E-02 
462	 3.22118529974767E-02 
463	 3.21734896903853E-02 
464	 3.22076306786845E-02 
465	 0.032346187342661 
466	 0.032528746704568 
467	 0.03225368290935 
468	 3.17939722719009E-02 
469	 0.031619776237222 
470	 3.19518100086889E-02 
471	 3.25396370942328E-02 
472	 3.22885991094588E-02 
473	 3.20419647391537E-02 
474	 3.22933925635634E-02 
475	 0.032379784891586 
476	 3.22366022087735E-02 
477	 3.18716696046716E-02 
478	 3.19987107776665E-02 
479	 3.25598440380554E-02 
480	 3.23831796229641E-02 
481	 3.19901714958944E-02 
482	 3.18467980482454E-02 
483	 3.19732590581314E-02 
484	 3.22208771548311E-02 
485	 3.21768828443662E-02 
486	 3.23856070500187E-02 
487	 3.28905516417045E-02 
488	 3.28849189262963E-02 
489	 3.26555076796654E-02 
490	 3.25604682650015E-02 
491	 3.26313618751356E-02 
492	 3.27133720697984E-02 
493	 3.23183571260263E-02 
494	 3.20786544482796E-02 
495	 3.22581348171121E-02 
496	 3.25572162597024E-02 
497	 3.29207106723431E-02 
498	 3.33204577344411E-02 
499	 3.34298685654881E-02 
500	 3.33445341413475E-02 
501	 0.033700072699292 
502	 3.39824662849662E-02 
503	 3.39253750701426E-02 
504	 3.40186003567097E-02 
505	 3.43224677004314E-02 
506	 3.48289309410102E-02 
507	 3.52999138744986E-02 
508	 3.56558787751763E-02 
509	 3.59250030201023E-02 
510	 3.62080771956796E-02 
511	 3.65845835625208E-02 
512	 3.70090360748098E-02 
513	 3.74124208980175E-02 
514	 3.76353903969909E-02 
515	 3.79624399236881E-02 
516	 3.84835515957361E-02 
517	 3.90311977104094E-02 
518	 3.96062387948628E-02 
519	 4.02147269476377E-02 
520	 4.08690395512887E-02 
521	 4.16118408617646E-02 
522	 4.26519476182202E-02 
523	 0.043334597490548 
524	 4.34565827831077E-02 
525	 4.38055601814206E-02 
526	 4.44092027579757E-02 
527	 4.51732904950134E-02 
528	 4.58191336698308E-02 
529	 4.62896233122554E-02 
530	 4.66968038222239E-02 
531	 4.72744401387701E-02 
532	 4.81166865283973E-02 
533	 4.85575627156084E-02 
534	 4.87155245243655E-02 
535	 4.90110773300842E-02 
536	 4.93559751813723E-02 
537	 4.97042635749998E-02 
538	 0.049885460928613 
539	 5.01039723196406E-02 
540	 5.05502710331812E-02 
541	 5.09601465145895E-02 
542	 5.12367386545062E-02 
543	 5.12225139909146E-02 
544	 5.15148731608415E-02 
545	 5.22479851110148E-02 
546	 5.25292507427398E-02 
547	 5.25612004514969E-02 
548	 5.27180041816646E-02 
549	 5.27943214657103E-02 
550	 5.28208831349894E-02 
551	 5.30229420094196E-02 
552	 5.32501646542488E-02 
553	 5.34227146937893E-02 
554	 5.37439495410802E-02 
555	 5.40791365216639E-02 
556	 5.41341826928087E-02 
557	 5.42090159442351E-02 
558	 5.43264514443476E-02 
559	 5.41197532886054E-02 
560	 5.39306400961054E-02 
561	 5.40638260168453E-02 
562	 5.40641207610684E-02 
563	 5.39459250890243E-02 
564	 5.39908183754263E-02 
565	 5.39790507530248E-02 
566	 5.38029611166118E-02 
567	 0.053408305956457 
568	 5.29617065173037E-02 
569	 5.26774757082033E-02 
570	 5.25603999534405E-02 
571	 5.25339506448364E-02 
572	 5.23393653348044E-02 
573	 0.052100952764129 
574	 5.18898476287121E-02 
575	 5.16739070337727E-02 
576	 5.13965096448943E-02 
577	 5.09463157096334E-02 
578	 5.06828924309445E-02 
579	 5.06406084914897E-02 
580	 5.03958663980751E-02 
581	 5.01521844546876E-02 
582	 5.00918297128404E-02 
583	 5.00202448869443E-02 
584	 0.049915985255258 
585	 4.98371967053696E-02 
586	 4.96664586233738E-02 
587	 0.049396901258882 
588	 4.93020705046443E-02 
589	 4.92781057712362E-02 
590	 4.91570816890267E-02 
591	 4.89642107309435E-02 
592	 0.048765180040744 
593	 4.87389011520207E-02 
594	 4.87490445493574E-02 
595	 4.87021518333198E-02 
596	 4.85572120078331E-02 
597	 4.83660285535394E-02 
598	 4.82210563952936E-02 
599	 4.81451316624755E-02 
600	 4.81532661346591E-02 
601	 4.82750808573968E-02 
602	 4.83249133356625E-02 
603	 4.81471216828136E-02 
604	 4.78829308745422E-02 
605	 4.76781674570862E-02 
606	 0.04785707478341 
607	 4.78565036500129E-02 
608	 4.74875350824422E-02 
609	 4.71582675262272E-02 
610	 0.046904567049631 
611	 4.67209817768431E-02 
612	 4.63836069979761E-02 
613	 4.59412311867562E-02 
614	 4.57301513190792E-02 
615	 4.56499267541167E-02 
616	 4.56095445266829E-02 
617	 4.53931053667351E-02 
618	 4.51159309127126E-02 
619	 4.50354041731772E-02 
620	 4.48998121116414E-02 
621	 4.46803747949299E-02 
622	 4.45576280424495E-02 
623	 4.45849409171561E-02 
624	 4.47909742026389E-02 
625	 4.49984524209001E-02 
626	 4.50865400204134E-02 
627	 4.48456166938658E-02 
628	 4.46611966006464E-02 
629	 4.46772087461226E-02 
630	 4.46848643023822E-02 
631	 4.45921693704111E-02 
632	 4.43157885453404E-02 
633	 0.044439269426706 
634	 0.044854611531278 
635	 0.044832565424506 
636	 4.43413209425105E-02 
637	 4.34629948135212E-02 
638	 4.30151708440699E-02 
639	 4.29183191573204E-02 
640	 4.28265283530104E-02 
641	 4.26323520624415E-02 
642	 4.22559274161823E-02 
643	 4.16270708706036E-02 
644	 0.04101332331392 
645	 4.06276821230451E-02 
646	 4.00361521771463E-02 
647	 3.93770682070144E-02 
648	 0.039243904554309 
649	 3.90456341086437E-02 
650	 3.86635265433899E-02 
651	 3.88534299997438E-02 
652	 3.91750137711728E-02 
653	 3.90432252473103E-02 
654	 0.038395784078067 
655	 3.75740799232326E-02 
656	 3.79611638965901E-02 
657	 3.81813061833083E-02 
658	 3.75113318429406E-02 
659	 3.71563766017024E-02 
660	 3.69983508801056E-02 
661	 3.66182775457703E-02 
662	 3.64076129293223E-02 
663	 3.63584829781702E-02 
664	 3.60014165055317E-02 
665	 3.55093260964716E-02 
666	 3.50745060111812E-02 
667	 3.51065712813895E-02 
668	 3.52910010303323E-02 
669	 3.45882547426429E-02 
670	 3.44268170404235E-02 
671	 3.50494199839162E-02 
672	 0.034620270218105 
673	 3.40275590474486E-02 
674	 3.44216902426022E-02 
675	 3.44952192774212E-02 
676	 3.41964177573223E-02 
677	 3.42416595162612E-02 
678	 3.45445257011258E-02 
679	 3.50120880324044E-02 
680	 3.52512423462484E-02 
681	 3.53485268588368E-02 
682	 3.55020034338208E-02 
683	 3.61283546398871E-02 
684	 3.72123197054154E-02 
685	 3.82186055426044E-02 
686	 3.91420392375202E-02 
687	 3.99951915821618E-02 
688	 4.11989495287491E-02 
689	 4.27776858955837E-02 
690	 4.48391555935089E-02 
691	 4.66351524833935E-02 
692	 4.81695234216419E-02 
693	 5.04412858741545E-02 
694	 5.32565456771999E-02 
695	 5.62027569444323E-02 
696	 5.89869844236305E-02 
697	 6.16961818051888E-02 
698	 6.49092102373014E-02 
699	 6.82838523080822E-02 
700	 7.16003662103648E-02 
701	 7.48911892343939E-02 
702	 7.81713218700996E-02 
703	 8.14740995319661E-02 
704	 8.49710200318758E-02 
705	 8.85880595127533E-02 
706	 9.17985968159339E-02 
707	 0.094889067906228 
708	 9.80629202237484E-02 
709	 0.10142904794119 
710	 0.104805256200404 
711	 0.107857735910821 
712	 0.110828689124088 
713	 0.113763254695837 
714	 0.116637289486365 
715	 0.119292863402078 
716	 0.121711340365421 
717	 0.123855214044558 
718	 0.126107997072128 
719	 0.129232722247835 
720	 0.132110699295638 
721	 0.134190279510135 
722	 0.135948856518875 
723	 0.137809788763546 
724	 0.140047630952599 
725	 0.141843523317499 
726	 0.143097283030407 
727	 0.144641947853234 
728	 0.146173675130131 
729	 0.147583991326351 
730	 0.149159888033573 
731	 0.150573279166732 
732	 0.151348541256335 
733	 0.152402061459237 
734	 0.153772214957062 
735	 0.15472787266693 
736	 0.155751832568066 
737	 0.157052920068775 
738	 0.157864453005126 
739	 0.158393445878106 
740	 0.159206905405063 
741	 0.160028715108258 
742	 0.160787835079467 
743	 0.161539015829279 
744	 0.162182336178903 
745	 0.162650344683208 
746	 0.163088250564081 
747	 0.163553166772244 
748	 0.164097359624075 
749	 0.16475182096646 
750	 0.165423324505187 
751	 0.165584060834799 
752	 0.165698355475125 
753	 0.166281814889187 
754	 0.166875870421879 
755	 0.16737891351388 
756	 0.167837143930936 
757	 0.168023218420717 
758	 0.167894572197529 
759	 0.167946958245983 
760	 0.168454183575232 
761	 0.169465158318815 
762	 0.169643734061049 
763	 0.16936941934271 
764	 0.170355497841325 
765	 0.171335703667357 
766	 0.171830756112133 
767	 0.172098870806355 
768	 0.172248120157709 
769	 0.172320268877031 
770	 0.172962903587135 
771	 0.174022293140792 
772	 0.174419260488435 
773	 0.174369711660477 
774	 0.174106373679311 
775	 0.174282295394168 
776	 0.174780702331514 
777	 0.175194132652105 
778	 0.175696713598486 
779	 0.176187315324002 
780	 0.176087866111125 
781	 0.176152874622884 
782	 0.176927698879596 
783	 0.177444541010976 
784	 0.177600255425056 
785	 0.177494622214866 
786	 0.177730207785492 
787	 0.178339612157463 
788	 0.178309655019408 
789	 0.178131399873958 
790	 0.178313921476193 
791	 0.178695763119331 
792	 0.179103372205069 
793	 0.179159833551984 
794	 0.179406154695052 
795	 0.179885764395305 
796	 0.179773978497374 
797	 0.179527776665356 
798	 0.179645037012126 
799	 0.179792622392585 
800	 0.179984485721822 
801	 0.180440520864356 
802	 0.180753155048004 
803	 0.18085850710935 
804	 0.181424623036511 
805	 0.181977303912116 
806	 0.181996358426824 
807	 0.182240445630729 
808	 0.182698986541847 
809	 0.182803695217533 
810	 0.183344560033196 
811	 0.184337456812263 
812	 0.183553931091009 
813	 0.182331974649748 
814	 0.182730326193839 
815	 0.183678758684085 
816	 0.184652711407909 
817	 0.184858665451204 
818	 0.185235109729035 
819	 0.186075423009443 
820	 0.186629997124671 
821	 0.186807729865673 
822	 0.186583795567647 
823	 0.187176552690312 
824	 0.188393406040126 
825	 0.189017733228316 
826	 0.189086984356818 
827	 0.188713302580753 
828	 0.188617141111994 
829	 0.188703613031034 
830	 0.188768829439249 
831	 0.189351817660737 
832	 0.19018188376407 
833	 0.190164073632513 
834	 0.190415744246494 
835	 0.191181741458417 
836	 0.190892685522983 
837	 0.190644983928945 
838	 0.191754017806749 
839	 0.19282739847799 
840	 0.193362291671533 
841	 0.192819244013869 
842	 0.192398132140236 
843	 0.192605338614903 
844	 0.192865909559134 
845	 0.193127321266548 
846	 0.193382595352205 
847	 0.193734848675075 
848	 0.194102136100309 
849	 0.194223124323734 
850	 0.194178584709675 
851	 0.194064368215017 
852	 0.194264120594184 
853	 0.194314262266999 
854	 0.193758802221663 
855	 0.193892597561967 
856	 0.194501543766179 
857	 0.194346084510088 
858	 0.194561248632446 
859	 0.19525461863793 
860	 0.194966882469181 
861	 0.194638566591679 
862	 0.195184079348839 
863	 0.195527860387017 
864	 0.195672835206297 
865	 0.196161947372317 
866	 0.196061989565163 
867	 0.195520113383751 
868	 0.196717035799913 
869	 0.197913337195191 
870	 0.197746999886747 
871	 0.198167373447518 
872	 0.198760537351341 
873	 0.198088020030222 
874	 0.198288661477972 
875	 0.199613120038407 
876	 0.200234962070453 
877	 0.200681007297636 
878	 0.201289314067951 
879	 0.201434274035843 
880	 0.201699119012831 
881	 0.203132692848728 
882	 0.204224615721878 
883	 0.204648826528149 
884	 0.204952710116604 
885	 0.204959659699052 
886	 0.204763635570809 
887	 0.205377425990871 
888	 0.206817302820355 
889	 0.208892900346539 
890	 0.20931867870772 
891	 0.208234231885608 
892	 0.207859039032836 
893	 0.208486788125819 
894	 0.209910391053938 
895	 0.209180519765493 
896	 0.207889510251673 
897	 0.208248523726206 
898	 0.20826033204835 
899	 0.208027726162025 
900	 0.208847127542208 
901	 0.209296446316168 
902	 0.209263414088324 
903	 0.210661339999867 
904	 0.211301922311971 
905	 0.209722724858185 
906	 0.209190007567086 
907	 0.209567698279211 
908	 0.209671304058541 
909	 0.210776826136692 
910	 0.21214763355308 
911	 0.209693288560776 
912	 0.207943574669439 
913	 0.209404283360993 
914	 0.211395357820142 
915	 0.212107973552395 
916	 0.209910581594343 
917	 0.208839162237621 
918	 0.209329440463925 
919	 0.210061040418459 
920	 0.210604765866745 
921	 0.210860192736937 
922	 0.211697823684395 
923	 0.2120612858012 
924	 0.211080446858984 
925	 0.210748716524847 
926	 0.210717681748282 
927	 0.209520212248741 
928	 0.205664260007053 
929	 0.199816587362725 
930	 0.199104547868225 
931	 0.197512804296944 
932	 0.19128602173886 
933	 0.195018349970333 
934	 0.202684828434799 
935	 0.201494412929453 
936	 0.197165094089331 
937	 0.193147590361446 
938	 0.194446138315889 
939	 0.195441364313367 
940	 0.194799799931062 
941	 0.196367878002731 
942	 0.194651900791148 
943	 0.186488539862129 
944	 0.180456068832626 
945	 0.179398590102608 
946	 0.185327111796615 
947	 0.188396328666178 
948	 0.187871988402315 
949	 0.19274252351021 
950	 0.186841794038815 
951	 0.168943245927902 
952	 0.171027985061022 
953	 0.178765050779902 
954	 0.177694660886476 
955	 0.179202837777084 
956	 0.179843643476827 
957	 0.170707923036593 
958	 0.165825044313005 
959	 0.167033281013523 
960	 0.167006923459388 
961	 0.166085585607103 
962	 0.164765979602592 
963	 0.16519021422254 
964	 0.1661606747778 
965	 0.166542756834621 
966	 0.168887329078324 
967	 0.171178112552927 
968	 0.168768980222564 
969	 0.167671667456677 
970	 0.169220911631661 
971	 0.172139553434405 
972	 0.172249297956583 
973	 0.168144190963075 
974	 0.166687258363428 
975	 0.167172927266851 
976	 0.167923360348948 
977	 0.167940443190512 
978	 0.167856951438447 
979	 0.169662554197592 
980	 0.170219113239562 
981	 0.169639618868376 
982	 0.172000737599115 
983	 0.174430350526098 
984	 0.17503021869109 
985	 0.172518212137518 
986	 0.170468415477677 
987	 0.17261816331988 
988	 0.175033210771914 
989	 0.176896280068118 
990	 0.178231141633511 
991	 0.176407305647011 
992	 0.172913963690891 
993	 0.175378021399569 
994	 0.179137763406513 
995	 0.181250066122991 
996	 0.17958528814781 
997	 0.178453657144746 
998	 0.181582607349431 
999	 0.179397044285138 
1000	 0.17729908792095 
1001	 0.187251253008829 
1002	 0.18863728912173 
1003	 0.18134048546915 
1004	 0.183031481485784 
1005	 0.185388936830217 
1006	 0.186643738415421 
1007	 0.195733614722108 
1008	 0.19999775799961 
1009	 0.191492192669409 
1010	 0.191844179957843 
1011	 0.195535377366797 
1012	 0.191166104744359 
1013	 0.188797842508385 
1014	 0.190706781787745 
1015	 0.197831004098342 
1016	 0.19686906629845 
1017	 0.187854320328924 
1018	 0.190121008580161 
1019	 0.193782910795706 
1020	 0.19408775748469 
1021	 0.199767719774984 
1022	 0.203051432883704 
1023	 0.196958898153033 
1024	 0.197730922715042 
1025	 0.202973547772175 
1026	 0.204328560614045 
1027	 0.201620569285374 
1028	 0.197435945181316 
1029	 0.199892849825047 
1030	 0.202372474124731 
1031	 0.20192790006119 
1032	 0.195709687597635 
1033	 0.197507621189207 
1034	 0.212659619712229 
1035	 0.215349324171363 
1036	 0.212980945848935 
1037	 0.216012904092435 
1038	 0.222595030576155 
1039	 0.225798511464684 
1040	 0.21516406466838 
1041	 0.208609497633991 
1042	 0.209307487897298 
1043	 0.211417450535193 
1044	 0.218618423802814 
1045	 0.227338081965074 
1046	 0.219578015113802 
1047	 0.211861367897689 
1048	 0.212832579915345 
1049	 0.21225784992891 
1050	 0.208762044263383 
1051	 0.202587578574557 
1052	 0.199017863030287 
1053	 0.204821153903338 
1054	 0.226337571783079 
1055	 0.213219573747401 
1056	 0.180017108167169 
1057	 0.191213296882548 
1058	 0.206248127882966 
1059	 0.215060146138715 
1060	 0.224083229921309 
1061	 0.224157143227345 
1062	 0.21205984391946 
1063	 0.188459180759359 
1064	 0.189102156845469 
1065	 0.22682095856619 
1066	 0.214933839549341 
1067	 0.186998262000814 
1068	 0.190254451462937 
1069	 0.200825694098139 
1070	 0.209641007206506 
1071	 0.209280729899195 
1072	 0.207164498402214 
1073	 0.204824899430216 
1074	 0.200930742796419 
1075	 0.208361993321576 
