Wavelength	AVEI200079.asd
325	 2.31266803727824E-02 
326	 0.029947029860102 
327	 3.92862987627912E-02 
328	 2.78052745435978E-02 
329	 2.00748664850691E-02 
330	 2.41061470426367E-02 
331	 2.85524800599927E-02 
332	 2.93335405431262E-02 
333	 2.41148633653607E-02 
334	 2.44786770382307E-02 
335	 2.82786652283021E-02 
336	 2.57291347085674E-02 
337	 2.38689252890623E-02 
338	 0.024610711822878 
339	 2.60101066557994E-02 
340	 0.028305847445938 
341	 3.13117239480988E-02 
342	 3.02466705049415E-02 
343	 2.70493628106207E-02 
344	 2.65727845967447E-02 
345	 2.66432417679666E-02 
346	 2.67197642102528E-02 
347	 2.67356976668414E-02 
348	 2.73876119687102E-02 
349	 2.88590828377503E-02 
350	 2.87804575116557E-02 
351	 0.02751666322378 
352	 2.60459352990402E-02 
353	 2.53254784317723E-02 
354	 2.52922266596125E-02 
355	 2.45096238925263E-02 
356	 2.41095704763353E-02 
357	 2.47296361108696E-02 
358	 2.57733319992198E-02 
359	 2.64593237881567E-02 
360	 2.58142121950972E-02 
361	 0.02490903946353 
362	 2.44262050408764E-02 
363	 2.56143240254525E-02 
364	 2.64085603337828E-02 
365	 2.58237474396422E-02 
366	 2.55573838081429E-02 
367	 2.51078018259495E-02 
368	 2.35698773421407E-02 
369	 2.30008687471361E-02 
370	 2.37903238615922E-02 
371	 2.57243795627395E-02 
372	 2.63962686635649E-02 
373	 2.48575995947926E-02 
374	 2.47240824684341E-02 
375	 2.51635669816204E-02 
376	 2.44936132829261E-02 
377	 2.46728489193914E-02 
378	 2.55509737673144E-02 
379	 2.50970717139037E-02 
380	 2.48892160334133E-02 
381	 2.54479513162903E-02 
382	 0.024573765419813 
383	 2.36097949295754E-02 
384	 0.02450915224337 
385	 2.43176846604614E-02 
386	 2.32782051922713E-02 
387	 2.44396058293186E-02 
388	 2.53890286732908E-02 
389	 2.51932801849309E-02 
390	 2.55759317816817E-02 
391	 2.59223002362401E-02 
392	 2.53851312164709E-02 
393	 2.45545101366871E-02 
394	 2.40301333569196E-02 
395	 2.51706536389029E-02 
396	 2.55624185167945E-02 
397	 0.0245866230763 
398	 2.51286569786931E-02 
399	 2.57870676817599E-02 
400	 2.49662206173272E-02 
401	 2.43365551960701E-02 
402	 2.42582223845977E-02 
403	 2.49238670961018E-02 
404	 2.51496412997694E-02 
405	 0.02460233210079 
406	 0.024510010128353 
407	 2.46413162160944E-02 
408	 2.45806982152688E-02 
409	 2.42700326581093E-02 
410	 2.39452167996007E-02 
411	 2.43587419141067E-02 
412	 2.45886395469818E-02 
413	 2.43188791754319E-02 
414	 2.45852611579262E-02 
415	 2.49449032080248E-02 
416	 2.47211468885144E-02 
417	 2.41958831256844E-02 
418	 2.38079576178272E-02 
419	 2.47532918717782E-02 
420	 2.53337998933242E-02 
421	 2.47537469194831E-02 
422	 2.44439706137823E-02 
423	 2.45343009660336E-02 
424	 2.49609309130633E-02 
425	 2.51931331236102E-02 
426	 0.025076185351639 
427	 2.46247119401007E-02 
428	 2.43308084177671E-02 
429	 2.44950570060023E-02 
430	 2.46506279202826E-02 
431	 2.48167447786765E-02 
432	 2.51537892394126E-02 
433	 2.51671409574225E-02 
434	 0.024861354222347 
435	 2.47271255899987E-02 
436	 2.47801001815964E-02 
437	 2.50067789059148E-02 
438	 2.52784352043669E-02 
439	 2.54164392629871E-02 
440	 2.51297306032153E-02 
441	 2.49497662197148E-02 
442	 2.50332745589673E-02 
443	 2.53000788970995E-02 
444	 2.53295136510313E-02 
445	 2.48624717044959E-02 
446	 2.49216289276026E-02 
447	 0.025354969673667 
448	 2.54427144342606E-02 
449	 2.55000115358073E-02 
450	 2.56098865692538E-02 
451	 2.57509169499768E-02 
452	 2.57876256617723E-02 
453	 2.56141409266409E-02 
454	 2.57655935803412E-02 
455	 2.61227098631419E-02 
456	 2.60621152818895E-02 
457	 2.59667841669144E-02 
458	 0.025974751425125 
459	 2.59262491818689E-02 
460	 2.59220503202881E-02 
461	 2.60861134538648E-02 
462	 2.61764970611427E-02 
463	 2.61493935964894E-02 
464	 2.60333109485055E-02 
465	 2.60542871542093E-02 
466	 2.63043965013542E-02 
467	 2.65159686920423E-02 
468	 2.65570929691355E-02 
469	 2.62864703933801E-02 
470	 2.64107815938984E-02 
471	 2.68257778208735E-02 
472	 2.64062223115427E-02 
473	 2.61805521791865E-02 
474	 2.67081480952434E-02 
475	 2.67851826534813E-02 
476	 2.66448424494968E-02 
477	 2.70064197085281E-02 
478	 2.70362401710876E-02 
479	 2.66765689101057E-02 
480	 2.67357613851322E-02 
481	 2.68357231042349E-02 
482	 2.66866110151905E-02 
483	 2.68008544308667E-02 
484	 2.70882693817172E-02 
485	 2.71228037595536E-02 
486	 2.72268317232114E-02 
487	 2.74907318011261E-02 
488	 2.78209683741239E-02 
489	 0.027918994162129 
490	 0.027534585746408 
491	 2.74561883146438E-02 
492	 0.027632815731706 
493	 0.027407415498423 
494	 2.75130866361321E-02 
495	 2.80876933672047E-02 
496	 2.79271974735709E-02 
497	 2.75167606036899E-02 
498	 2.76227783772233E-02 
499	 2.77587517233982E-02 
500	 2.78638178255218E-02 
501	 2.81589650855196E-02 
502	 2.82836555528342E-02 
503	 2.80668810042717E-02 
504	 2.79893234366895E-02 
505	 2.81014516368865E-02 
506	 2.83713586126702E-02 
507	 0.028602394658711 
508	 2.87764378827154E-02 
509	 2.91357470107684E-02 
510	 2.93884813918976E-02 
511	 0.029338966729609 
512	 2.96079597265999E-02 
513	 2.99613946648341E-02 
514	 2.95476070628114E-02 
515	 2.94774002707724E-02 
516	 3.00076540328626E-02 
517	 3.01571605121062E-02 
518	 0.030093482183742 
519	 3.00813865419681E-02 
520	 3.00821989947698E-02 
521	 3.01601189838506E-02 
522	 3.04937344893529E-02 
523	 3.07802023250059E-02 
524	 3.08866743851011E-02 
525	 3.09645088057267E-02 
526	 0.031059206358267 
527	 3.12105148137424E-02 
528	 3.13068835439005E-02 
529	 3.13871681263126E-02 
530	 3.17065504390561E-02 
531	 3.19685814696481E-02 
532	 3.20044808829035E-02 
533	 3.21951381495963E-02 
534	 3.24844941545072E-02 
535	 0.032664428275122 
536	 3.27299617040646E-02 
537	 3.27423094217996E-02 
538	 0.033040769785489 
539	 0.033235341396683 
540	 3.29780535301815E-02 
541	 3.31875057638088E-02 
542	 3.36917026428963E-02 
543	 3.35118175280271E-02 
544	 3.34332692696291E-02 
545	 3.37432465604543E-02 
546	 3.40747285821609E-02 
547	 3.42616887950648E-02 
548	 3.41382113370963E-02 
549	 3.41852299929875E-02 
550	 3.43864984252767E-02 
551	 3.41937408051857E-02 
552	 3.41502109612633E-02 
553	 0.034548211955146 
554	 3.47627480398897E-02 
555	 3.48043282901922E-02 
556	 3.48468023180731E-02 
557	 0.035082429843707 
558	 3.54514280240498E-02 
559	 3.53732001504265E-02 
560	 3.50985109948938E-02 
561	 3.49211178711125E-02 
562	 3.52606127813566E-02 
563	 3.58917623233543E-02 
564	 3.60445693694911E-02 
565	 3.60604945228716E-02 
566	 3.60955818530178E-02 
567	 3.63401097593422E-02 
568	 3.64733096519818E-02 
569	 3.60706726447591E-02 
570	 3.58169394339022E-02 
571	 3.58686311505642E-02 
572	 3.60991695338899E-02 
573	 3.62781348702411E-02 
574	 3.62748231288939E-02 
575	 3.63441740840966E-02 
576	 3.64539012132246E-02 
577	 3.64750973114708E-02 
578	 3.65678481458608E-02 
579	 3.67253947898471E-02 
580	 3.66670764041439E-02 
581	 3.67039377814877E-02 
582	 0.037084264486576 
583	 3.72607237686333E-02 
584	 3.72253769785061E-02 
585	 3.72059871164398E-02 
586	 3.72971605517044E-02 
587	 3.75123905766365E-02 
588	 3.75961522667061E-02 
589	 3.75461229368897E-02 
590	 3.73989202296466E-02 
591	 3.75041405557326E-02 
592	 0.037803669715822 
593	 3.78024719774965E-02 
594	 0.037807946090426 
595	 3.79958353298554E-02 
596	 3.82468242525117E-02 
597	 3.85021913570685E-02 
598	 3.87110078377864E-02 
599	 3.86295741010809E-02 
600	 3.83700431914221E-02 
601	 3.87813402426548E-02 
602	 3.91225213975038E-02 
603	 3.87773353731128E-02 
604	 3.88952626537662E-02 
605	 3.93362326975231E-02 
606	 0.039194673876944 
607	 3.91571418358371E-02 
608	 3.94095327085412E-02 
609	 3.93948946240494E-02 
610	 3.92186904452691E-02 
611	 3.90776011153465E-02 
612	 3.92283945919421E-02 
613	 3.96117460884153E-02 
614	 3.98001635679135E-02 
615	 3.99181349819892E-02 
616	 4.00333524362629E-02 
617	 4.01237374652826E-02 
618	 4.01359123248029E-02 
619	 0.039961753981548 
620	 3.99869146871002E-02 
621	 4.02670367199588E-02 
622	 4.05142026799639E-02 
623	 4.05410461732342E-02 
624	 4.02386400609854E-02 
625	 4.04134609782941E-02 
626	 4.08996636960592E-02 
627	 4.08737007449569E-02 
628	 4.07152033604341E-02 
629	 4.06031961493016E-02 
630	 4.07068858159875E-02 
631	 4.08760546444758E-02 
632	 4.09038113157556E-02 
633	 4.10456843343301E-02 
634	 4.13609407371575E-02 
635	 4.18420153338606E-02 
636	 4.23694023325576E-02 
637	 4.27721631361925E-02 
638	 4.23976923806613E-02 
639	 4.17871210522614E-02 
640	 4.20383965239347E-02 
641	 4.22158949321554E-02 
642	 4.21704702681507E-02 
643	 4.25673333143816E-02 
644	 4.29334995883327E-02 
645	 0.042860914010945 
646	 4.28754495846907E-02 
647	 4.30209922331797E-02 
648	 4.31249432798554E-02 
649	 4.33088078879723E-02 
650	 0.043566451860826 
651	 4.36834205026191E-02 
652	 4.35562916710066E-02 
653	 4.30946938513029E-02 
654	 4.28423928861026E-02 
655	 4.29010024300092E-02 
656	 4.30618535146896E-02 
657	 4.33525644618938E-02 
658	 4.36685405963295E-02 
659	 4.33568964982421E-02 
660	 4.28976032668627E-02 
661	 4.31741493401753E-02 
662	 4.31128032411737E-02 
663	 4.26284701218165E-02 
664	 4.26935807653729E-02 
665	 4.29324241772016E-02 
666	 4.29769447381659E-02 
667	 0.042588299071979 
668	 4.20068665070252E-02 
669	 4.19136390579318E-02 
670	 4.18001248558911E-02 
671	 4.16605914031099E-02 
672	 4.25359408796858E-02 
673	 4.32838363330262E-02 
674	 4.25670822661901E-02 
675	 4.22200155142043E-02 
676	 4.25159562723323E-02 
677	 4.28816016119084E-02 
678	 4.33754115963097E-02 
679	 4.39374391688204E-02 
680	 4.40987461523322E-02 
681	 4.40842868714096E-02 
682	 4.43326580265829E-02 
683	 4.46673722142239E-02 
684	 4.50695748201051E-02 
685	 4.56505054013584E-02 
686	 4.62743519163044E-02 
687	 4.68391770520641E-02 
688	 4.76978311561544E-02 
689	 4.87795277565325E-02 
690	 0.050030556658265 
691	 5.07871320599924E-02 
692	 5.10464005480012E-02 
693	 0.051845138168999 
694	 5.26891710346427E-02 
695	 5.30121658897521E-02 
696	 0.054124647381064 
697	 5.57608393930586E-02 
698	 5.66247191897636E-02 
699	 5.73487103926084E-02 
700	 5.81818713576271E-02 
701	 5.89066351566701E-02 
702	 5.96380860262469E-02 
703	 0.060557388241581 
704	 6.14166493405892E-02 
705	 6.22504872235462E-02 
706	 6.34481699549694E-02 
707	 6.42729899035774E-02 
708	 6.43566683458771E-02 
709	 6.48947160451376E-02 
710	 6.58409115253743E-02 
711	 6.67979926506993E-02 
712	 6.76452762893522E-02 
713	 6.82177894476748E-02 
714	 6.80733825453167E-02 
715	 6.81122611733341E-02 
716	 6.91723583699471E-02 
717	 6.97670747408757E-02 
718	 6.97871089070171E-02 
719	 7.00040798461935E-02 
720	 7.06651746614895E-02 
721	 7.16344085021611E-02 
722	 7.21999979445334E-02 
723	 7.25542008875516E-02 
724	 7.28879621390168E-02 
725	 7.34454381460659E-02 
726	 7.41943678315117E-02 
727	 7.50419777612106E-02 
728	 7.53694163076468E-02 
729	 7.50341710793217E-02 
730	 7.53852513442213E-02 
731	 0.076124328013086 
732	 7.66109563180542E-02 
733	 7.71656248761482E-02 
734	 7.77814179287586E-02 
735	 7.82158717861422E-02 
736	 7.85789791264039E-02 
737	 7.89646429507194E-02 
738	 7.96726779727853E-02 
739	 8.04423320235145E-02 
740	 8.07253690619254E-02 
741	 8.09161414545673E-02 
742	 8.12051894188309E-02 
743	 8.18306025487074E-02 
744	 8.24969811268987E-02 
745	 8.29425115570469E-02 
746	 8.31754369022664E-02 
747	 8.32767750727345E-02 
748	 8.33770166344671E-02 
749	 8.38113703236418E-02 
750	 8.45898013386991E-02 
751	 8.49923241884013E-02 
752	 8.52408024697375E-02 
753	 8.56268921382399E-02 
754	 8.59911787293772E-02 
755	 0.08635652461546 
756	 8.69237893673082E-02 
757	 8.72038524879371E-02 
758	 8.70026432319842E-02 
759	 8.66023481831824E-02 
760	 8.64268334443571E-02 
761	 8.78696556284793E-02 
762	 8.86699813569725E-02 
763	 8.85400621292633E-02 
764	 8.88761960087835E-02 
765	 0.089559349430661 
766	 9.03629098992296E-02 
767	 9.06494554158277E-02 
768	 9.08436140955132E-02 
769	 9.14544280886307E-02 
770	 9.20080374317085E-02 
771	 0.092414769171547 
772	 9.27498719170373E-02 
773	 9.32414255548327E-02 
774	 9.40110940533191E-02 
775	 9.47677037421786E-02 
776	 9.52652632566511E-02 
777	 9.51486397971558E-02 
778	 9.52291972660425E-02 
779	 9.56857911702334E-02 
780	 9.60354017855057E-02 
781	 9.64253858309336E-02 
782	 9.69544671273529E-02 
783	 9.73586226470141E-02 
784	 9.75069954052358E-02 
785	 9.71515559979352E-02 
786	 9.73625506983655E-02 
787	 9.82904437247963E-02 
788	 9.86482027497572E-02 
789	 9.88750601047939E-02 
790	 9.94193344793799E-02 
791	 9.99221486020636E-02 
792	 0.100254397887736 
793	 0.100208809502243 
794	 0.100531240825244 
795	 0.101302950341955 
796	 0.101386050824278 
797	 0.101323376306528 
798	 0.101717277058893 
799	 0.102220977719208 
800	 0.102673732900364 
801	 0.102790097629915 
802	 0.102984006330874 
803	 0.1034576429789 
804	 0.104336054368333 
805	 0.105021146864922 
806	 0.104918997968832 
807	 0.105053415929655 
808	 0.105514644533105 
809	 0.105928819789579 
810	 0.106190584351889 
811	 0.106218980524175 
812	 0.10590640580521 
813	 0.10594747787751 
814	 0.107215336115545 
815	 0.106930054274654 
816	 0.105729303153811 
817	 0.108160036479658 
818	 0.110061838142205 
819	 0.109803441054042 
820	 0.109294584198841 
821	 0.109264139559917 
822	 0.110371112605148 
823	 0.111702171933379 
824	 0.112758139816789 
825	 0.113037393040712 
826	 0.113164472010467 
827	 0.113446700797239 
828	 0.113817086023327 
829	 0.114227888861803 
830	 0.114612304735294 
831	 0.115162986174918 
832	 0.115638293556501 
833	 0.115133009490689 
834	 0.115260433684267 
835	 0.116507850840708 
836	 0.117362875477531 
837	 0.117754492683139 
838	 0.117784658490731 
839	 0.118369783919987 
840	 0.119305065669033 
841	 0.119376193575532 
842	 0.119545997034736 
843	 0.12009133745673 
844	 0.120076080373676 
845	 0.120118529220215 
846	 0.120932429920786 
847	 0.120992359146673 
848	 0.120528359720426 
849	 0.121152432413071 
850	 0.121712466736666 
851	 0.121780579075329 
852	 0.121760587304263 
853	 0.12177939107825 
854	 0.121971760063645 
855	 0.122804604701548 
856	 0.123948989330551 
857	 0.124455878389252 
858	 0.124615583892721 
859	 0.124618980980749 
860	 0.124948771788802 
861	 0.125325599984955 
862	 0.125443972794507 
863	 0.125253937622417 
864	 0.124910908428373 
865	 0.124740319736101 
866	 0.125007026256768 
867	 0.125726036964278 
868	 0.126400658389241 
869	 0.127168081387006 
870	 0.128093771652256 
871	 0.128508803926194 
872	 0.128733750504944 
873	 0.129582991397113 
874	 0.130329138347959 
875	 0.130714158993669 
876	 0.130545566006645 
877	 0.130871841482195 
878	 0.132296636376653 
879	 0.133262854655233 
880	 0.133770718590939 
881	 0.134210850502743 
882	 0.134582090276504 
883	 0.134935281289133 
884	 0.135314351774116 
885	 0.135899835398799 
886	 0.136691092624437 
887	 0.136834734992381 
888	 0.137292887263291 
889	 0.139381336647118 
890	 0.139110390995043 
891	 0.137079777794662 
892	 0.138457797793297 
893	 0.139579852521237 
894	 0.138990136552994 
895	 0.139315958878126 
896	 0.139197783261112 
897	 0.13704804828898 
898	 0.137703550576068 
899	 0.140719956213669 
900	 0.142390466447918 
901	 0.142641533538701 
902	 0.141932935990798 
903	 0.142862639653131 
904	 0.144150434571056 
905	 0.144637932229328 
906	 0.144129563000192 
907	 0.142902958950127 
908	 0.141426975614654 
909	 0.142326761090699 
910	 0.144908804628541 
911	 0.143158976102304 
912	 0.14154703721197 
913	 0.142555883337619 
914	 0.143468054958383 
915	 0.144328902764885 
916	 0.145502856255711 
917	 0.146760289565243 
918	 0.147519347710083 
919	 0.146233775791853 
920	 0.146039701933076 
921	 0.147697800221899 
922	 0.148789813453686 
923	 0.149336758096902 
924	 0.149464149559563 
925	 0.149444059345804 
926	 0.149105816406388 
927	 0.147952724514119 
928	 0.145826918119162 
929	 0.143887435347874 
930	 0.148547442567293 
931	 0.148724754137604 
932	 0.136547799392677 
933	 0.134622183716033 
934	 0.139296059343532 
935	 0.138655176138455 
936	 0.138816309089961 
937	 0.14061607680048 
938	 0.144294778748455 
939	 0.139631847835479 
940	 0.128494942618103 
941	 0.13276812778816 
942	 0.140378193351759 
943	 0.141429042976231 
944	 0.136256373979696 
945	 0.12928248719696 
946	 0.127563119958121 
947	 0.127974138599751 
948	 0.130589841219086 
949	 0.13886081571039 
950	 0.14032287922643 
951	 0.133000844706227 
952	 0.136792834069748 
953	 0.143756102554772 
954	 0.1451225302018 
955	 0.134893902895182 
956	 0.123216253675578 
957	 0.129041783276294 
958	 0.13488117042974 
959	 0.135940605870934 
960	 0.133566790648555 
961	 0.130189671556844 
962	 0.127867088658565 
963	 0.129453343615367 
964	 0.131613819549039 
965	 0.131190205973585 
966	 0.130672327492404 
967	 0.133549733824185 
968	 0.146680951283029 
969	 0.14552668699595 
970	 0.13100661439196 
971	 0.134091369435549 
972	 0.136794254886715 
973	 0.131670226584707 
974	 0.138630029810334 
975	 0.14585434021975 
976	 0.139596559903332 
977	 0.137990978879614 
978	 0.139461224468721 
979	 0.132698078195867 
980	 0.130461142704564 
981	 0.135097673127748 
982	 0.140898479587621 
983	 0.143698515531541 
984	 0.142078753358291 
985	 0.142381850428804 
986	 0.143192642600085 
987	 0.142696532702691 
988	 0.146229925323852 
989	 0.150824117944601 
990	 0.148954777586966 
991	 0.147422756473002 
992	 0.14751203032083 
993	 0.145947613194841 
994	 0.146917619084677 
995	 0.150945428993369 
996	 0.148298626174616 
997	 0.144834881710077 
998	 0.146882023581386 
999	 0.152020645645241 
1000	 0.155260721985844 
1001	 0.148982321817228 
1002	 0.146637099061124 
1003	 0.150141639115415 
1004	 0.153560667273213 
1005	 0.154855806184779 
1006	 0.153723357628327 
1007	 0.153939817136714 
1008	 0.158003419763404 
1009	 0.166000686031436 
1010	 0.168032728663712 
1011	 0.162218466996697 
1012	 0.148520399365693 
1013	 0.146794821618789 
1014	 0.154864893500331 
1015	 0.155198411067496 
1016	 0.155331015527473 
1017	 0.157298243832101 
1018	 0.161206529502794 
1019	 0.163537738907489 
1020	 0.163075835592826 
1021	 0.166931773668143 
1022	 0.166308427387244 
1023	 0.154314554946537 
1024	 0.158502652458467 
1025	 0.168782792570374 
1026	 0.16126234837902 
1027	 0.154918975812787 
1028	 0.155249888245501 
1029	 0.165568320159677 
1030	 0.165713033466673 
1031	 0.152949179391805 
1032	 0.150153009769252 
1033	 0.153422794692093 
1034	 0.159261306570032 
1035	 0.165277753421674 
1036	 0.16461653383497 
1037	 0.152429031277869 
1038	 0.154727523504966 
1039	 0.162900614177827 
1040	 0.155385757626992 
1041	 0.158580003993905 
1042	 0.171387127926785 
1043	 0.171390375927285 
1044	 0.167675483598833 
1045	 0.163165455117363 
1046	 0.154979340843748 
1047	 0.159564841465916 
1048	 0.179753867862331 
1049	 0.168429607539393 
1050	 0.148186191763766 
1051	 0.146203513793491 
1052	 0.159789473242791 
1053	 0.179307920609609 
1054	 0.191913511207346 
1055	 0.184391591011621 
1056	 0.163659007541363 
1057	 0.156981250359675 
1058	 0.155620247039623 
1059	 0.157104645144511 
1060	 0.160833150787538 
1061	 0.165125230286835 
1062	 0.167178294776168 
1063	 0.156756941690427 
1064	 0.157242619309455 
1065	 0.178383183423846 
1066	 0.154950871610759 
1067	 0.144929236854654 
1068	 0.20655107984259 
1069	 0.198163203333618 
1070	 0.152919526383728 
1071	 0.16834096651284 
1072	 0.160285907645081 
1073	 0.125394829107765 
1074	 0.108370387322146 
1075	 9.88999901709282E-02 
