Wavelength	SHSI00345.asd
325	 5.94313360779885E-02 
326	 6.43633339489966E-02 
327	 0.074972578651392 
328	 7.88845057614503E-02 
329	 7.60468716626313E-02 
330	 6.97150415252348E-02 
331	 0.076280671307491 
332	 8.23511067977605E-02 
333	 7.48112465199038E-02 
334	 0.068897641099824 
335	 6.64617960816529E-02 
336	 6.40337588675712E-02 
337	 6.78509017371998E-02 
338	 7.56331829110991E-02 
339	 6.96233849537249E-02 
340	 0.063464665208369 
341	 6.78312430746938E-02 
342	 0.066463753372584 
343	 0.062558703451452 
344	 6.66290144470777E-02 
345	 7.01695861680875E-02 
346	 7.11646370650542E-02 
347	 7.14012555760015E-02 
348	 7.13212751675712E-02 
349	 0.071178446532107 
350	 7.06123012536201E-02 
351	 6.95782060998941E-02 
352	 6.79424796972092E-02 
353	 6.70489386691882E-02 
354	 6.74274673217291E-02 
355	 6.97807733780881E-02 
356	 7.08499799348489E-02 
357	 0.069120232616801 
358	 6.88195754098358E-02 
359	 0.069362960936878 
360	 6.90901001291908E-02 
361	 6.82851784596807E-02 
362	 6.76736315735259E-02 
363	 6.95305996297355E-02 
364	 7.05772077768176E-02 
365	 6.93044336233264E-02 
366	 6.80794629533837E-02 
367	 6.73389235810698E-02 
368	 0.067290095261042 
369	 6.74595372553577E-02 
370	 0.067493288878587 
371	 0.066710343764452 
372	 6.59560352176506E-02 
373	 6.58585246745378E-02 
374	 6.73939932680152E-02 
375	 6.82720231408764E-02 
376	 6.54160113447684E-02 
377	 6.44840557040737E-02 
378	 6.57354410087289E-02 
379	 6.52836919526393E-02 
380	 0.064669449260058 
381	 6.46768853156597E-02 
382	 6.54418645694244E-02 
383	 6.60121586175749E-02 
384	 6.51632878559887E-02 
385	 6.50856967896016E-02 
386	 0.06545087717871 
387	 6.34330605969922E-02 
388	 6.22424141112131E-02 
389	 6.31490030891824E-02 
390	 6.44889597202709E-02 
391	 6.52651047596918E-02 
392	 6.45917783800219E-02 
393	 6.45266135187495E-02 
394	 6.53243010471601E-02 
395	 6.66704314459464E-02 
396	 0.066126305064707 
397	 6.33289005107689E-02 
398	 6.21752110601418E-02 
399	 6.17899165921308E-02 
400	 6.08967747131641E-02 
401	 6.07462548976138E-02 
402	 6.11682343896988E-02 
403	 6.13064319323164E-02 
404	 6.15233602755558E-02 
405	 6.18490828610227E-02 
406	 6.15448389099904E-02 
407	 6.13144711147603E-02 
408	 6.20604347732872E-02 
409	 6.22238762659753E-02 
410	 6.17757991787722E-02 
411	 6.16831021748563E-02 
412	 6.15109607882879E-02 
413	 6.12048798587802E-02 
414	 6.16960209840024E-02 
415	 0.062354905597081 
416	 6.22967266260969E-02 
417	 6.19265214067238E-02 
418	 6.15545683426955E-02 
419	 6.18508033042979E-02 
420	 6.19975441043925E-02 
421	 6.16634091690371E-02 
422	 6.19008097340634E-02 
423	 6.22955372071886E-02 
424	 0.062098537906715 
425	 6.17868293525052E-02 
426	 6.16317161789372E-02 
427	 6.21451716790662E-02 
428	 6.26293929917223E-02 
429	 6.26163560942258E-02 
430	 6.23633225077005E-02 
431	 6.20390806419674E-02 
432	 6.18565307889245E-02 
433	 6.17254009791857E-02 
434	 6.16381335320588E-02 
435	 6.16061542260798E-02 
436	 6.17308829795301E-02 
437	 6.20186089098462E-02 
438	 6.18683273304134E-02 
439	 6.16116863874005E-02 
440	 6.20275939123611E-02 
441	 6.23324411071129E-02 
442	 6.23024298125086E-02 
443	 6.20273382686933E-02 
444	 6.19803900375948E-02 
445	 6.24770613122923E-02 
446	 6.26285817624832E-02 
447	 6.25495968979714E-02 
448	 6.28696372800773E-02 
449	 6.29770754824249E-02 
450	 6.27951823064148E-02 
451	 6.29511987341561E-02 
452	 6.33204512917487E-02 
453	 6.37112149771084E-02 
454	 6.35230159455304E-02 
455	 6.30254326702728E-02 
456	 6.32966345238486E-02 
457	 6.35759848647297E-02 
458	 6.35884984521487E-02 
459	 0.063618796090253 
460	 6.37426970661799E-02 
461	 0.064015705561222 
462	 0.064093063405187 
463	 6.39727362514924E-02 
464	 6.38951442710427E-02 
465	 6.39197771565119E-02 
466	 6.40603236354038E-02 
467	 6.41403747308746E-02 
468	 6.40616834095616E-02 
469	 6.37152263938957E-02 
470	 6.37538693412418E-02 
471	 6.41927862837767E-02 
472	 6.44593076623018E-02 
473	 6.44924660972017E-02 
474	 6.43327934180292E-02 
475	 6.47009904558157E-02 
476	 6.52438664357834E-02 
477	 0.065191057926966 
478	 6.49956388441787E-02 
479	 6.48457323006622E-02 
480	 6.49283845709169E-02 
481	 6.50443142932934E-02 
482	 6.50355978035608E-02 
483	 0.065037748974085 
484	 0.065178677842152 
485	 6.57695656331165E-02 
486	 6.59903611448852E-02 
487	 6.56335034140322E-02 
488	 6.54616626593391E-02 
489	 6.53253297229873E-02 
490	 6.50403352843177E-02 
491	 6.50645809487536E-02 
492	 6.53091161650498E-02 
493	 6.52774428232646E-02 
494	 6.53786503281705E-02 
495	 0.065744992832869 
496	 6.61027328567772E-02 
497	 6.62794993340821E-02 
498	 0.066096715190656 
499	 6.60298461041705E-02 
500	 6.62470248641301E-02 
501	 6.68413198016096E-02 
502	 6.73999248342183E-02 
503	 6.76640200291154E-02 
504	 6.78377073438452E-02 
505	 6.79997026925343E-02 
506	 6.82168982515007E-02 
507	 6.86440526367939E-02 
508	 6.92050729052399E-02 
509	 6.93856511091045E-02 
510	 6.96321495789222E-02 
511	 7.02797623977053E-02 
512	 7.08255447092017E-02 
513	 7.12384005037284E-02 
514	 7.16258680413736E-02 
515	 7.21806403740714E-02 
516	 7.28594332247989E-02 
517	 7.29578372788278E-02 
518	 7.30934763581924E-02 
519	 7.39369733424546E-02 
520	 7.43651327510551E-02 
521	 7.45046160874411E-02 
522	 7.53517607911649E-02 
523	 7.61521277822886E-02 
524	 0.07660156272941 
525	 7.71172736828482E-02 
526	 7.76436889890749E-02 
527	 7.80435305609268E-02 
528	 7.82556634230804E-02 
529	 7.83969358004857E-02 
530	 7.88925380969185E-02 
531	 7.94926773784136E-02 
532	 8.00151609602406E-02 
533	 8.03741712674622E-02 
534	 8.07079280398662E-02 
535	 8.13153065769076E-02 
536	 8.19450816554342E-02 
537	 8.24876530201355E-02 
538	 8.28791137613688E-02 
539	 8.31130594040951E-02 
540	 8.32037058113725E-02 
541	 8.34289391860885E-02 
542	 8.38179449945913E-02 
543	 0.084297655235478 
544	 8.46787742469181E-02 
545	 8.48857991770171E-02 
546	 8.50242934810374E-02 
547	 0.085260320099785 
548	 8.57866811473034E-02 
549	 8.63044772488434E-02 
550	 8.66364890790605E-02 
551	 0.086457224426002 
552	 8.64498438959624E-02 
553	 8.70030721838301E-02 
554	 8.74088415573082E-02 
555	 8.76964075194444E-02 
556	 0.088152506977848 
557	 8.81842953696343E-02 
558	 8.78190760538067E-02 
559	 8.80571542718644E-02 
560	 8.85064322119591E-02 
561	 8.87649281204276E-02 
562	 8.90428762828762E-02 
563	 8.92109753807327E-02 
564	 8.88199458667488E-02 
565	 8.86025399221179E-02 
566	 8.87923333485896E-02 
567	 8.87207007428133E-02 
568	 8.85531190797888E-02 
569	 8.85739079475574E-02 
570	 0.088630857752401 
571	 8.86501078615753E-02 
572	 8.85134748996993E-02 
573	 8.83753599614859E-02 
574	 0.088317314812786 
575	 8.81591214335482E-02 
576	 8.79868768728258E-02 
577	 8.80016717333175E-02 
578	 8.79814482677097E-02 
579	 8.78954991571271E-02 
580	 8.79345508521879E-02 
581	 8.80018938597397E-02 
582	 8.80058617585578E-02 
583	 8.79887327140815E-02 
584	 8.79336756459541E-02 
585	 8.77723454264843E-02 
586	 8.76422001037603E-02 
587	 8.75851040152837E-02 
588	 8.74331407852023E-02 
589	 8.73546324753882E-02 
590	 8.75798805280777E-02 
591	 8.76398092407772E-02 
592	 8.74865739037786E-02 
593	 8.73616145748949E-02 
594	 8.72844591325967E-02 
595	 8.72839737068148E-02 
596	 8.74467784347579E-02 
597	 8.75975826171197E-02 
598	 8.74043125583996E-02 
599	 8.74108650861793E-02 
600	 8.76343839081542E-02 
601	 8.73495265686901E-02 
602	 8.70695703241996E-02 
603	 8.72472587595502E-02 
604	 0.087418890142472 
605	 8.74800966716433E-02 
606	 8.74348741380228E-02 
607	 8.71400327142979E-02 
608	 8.66392804634804E-02 
609	 8.65454983052008E-02 
610	 8.65805758953724E-02 
611	 8.63246010861831E-02 
612	 8.57182724063143E-02 
613	 8.51009253759219E-02 
614	 8.56782695221747E-02 
615	 8.60923219572252E-02 
616	 8.55640325948014E-02 
617	 0.085062811212216 
618	 8.48387416004071E-02 
619	 8.50885152509823E-02 
620	 0.085148960320141 
621	 8.49023973694435E-02 
622	 8.48652349323636E-02 
623	 8.48100682533945E-02 
624	 8.45374448954565E-02 
625	 8.43647387470947E-02 
626	 8.43188616855434E-02 
627	 8.43107570327105E-02 
628	 8.42641674020626E-02 
629	 8.41952663594174E-02 
630	 8.44528389986074E-02 
631	 8.47008372602855E-02 
632	 8.45005044232443E-02 
633	 0.084416630289564 
634	 8.44365393440371E-02 
635	 8.39990872555077E-02 
636	 8.37949812327641E-02 
637	 0.084145996986228 
638	 8.40946568905634E-02 
639	 8.37647804206048E-02 
640	 8.35946021907882E-02 
641	 8.36106784346563E-02 
642	 8.36836754234701E-02 
643	 8.31407877168186E-02 
644	 8.26420948198736E-02 
645	 8.27562138468853E-02 
646	 8.28386545524678E-02 
647	 8.27251512422606E-02 
648	 8.23365838270792E-02 
649	 8.18523976910702E-02 
650	 8.14097234465973E-02 
651	 8.12184117455387E-02 
652	 0.081074484563463 
653	 8.07131901156037E-02 
654	 0.080385684754654 
655	 8.00996130544597E-02 
656	 0.079755708504208 
657	 7.92498447568536E-02 
658	 7.86161955597516E-02 
659	 0.078419307813064 
660	 7.82122293234262E-02 
661	 7.71583651176698E-02 
662	 0.076620835339474 
663	 7.66387778037799E-02 
664	 7.55773703475848E-02 
665	 7.45013122901659E-02 
666	 7.42946630845193E-02 
667	 7.40224906222642E-02 
668	 7.35298112663865E-02 
669	 7.28004960929958E-02 
670	 0.072266539930031 
671	 7.21201891513342E-02 
672	 7.23156626626117E-02 
673	 7.25475103689102E-02 
674	 7.24808320809524E-02 
675	 7.22980094714818E-02 
676	 7.21810947514438E-02 
677	 7.25386770877462E-02 
678	 7.29326323709313E-02 
679	 7.31284733045268E-02 
680	 7.33483920683071E-02 
681	 0.073503308545957 
682	 7.33689809330603E-02 
683	 7.41495139712333E-02 
684	 7.58014714911407E-02 
685	 7.66841354058197E-02 
686	 7.77532998253186E-02 
687	 7.97888801407102E-02 
688	 8.14717886761243E-02 
689	 8.27120055726882E-02 
690	 8.42108251121424E-02 
691	 8.59489132889768E-02 
692	 8.79470409827828E-02 
693	 8.99692751100534E-02 
694	 9.21599830906702E-02 
695	 9.45568290099302E-02 
696	 9.62558016109226E-02 
697	 9.77152519106996E-02 
698	 0.100819133509232 
699	 0.103577888259094 
700	 0.10515888329168 
701	 0.107203604952251 
702	 0.1093304472505 
703	 0.110796219072562 
704	 0.112467827510071 
705	 0.11439235213005 
706	 0.115896588495188 
707	 0.117349577498968 
708	 0.118949132262967 
709	 0.120324626853002 
710	 0.121474978074708 
711	 0.122467255121274 
712	 0.123668378739075 
713	 0.125011463677873 
714	 0.125643144569926 
715	 0.126101800736604 
716	 0.126951654014811 
717	 0.12800099119917 
718	 0.129082040872001 
719	 0.129516979561705 
720	 0.130427331052383 
721	 0.131837779091471 
722	 0.132210404090111 
723	 0.132287480125466 
724	 0.132908152399336 
725	 0.133492718977818 
726	 0.1339285078469 
727	 0.134416753781908 
728	 0.134801719865601 
729	 0.135055839229117 
730	 0.13551673061205 
731	 0.136092053548063 
732	 0.136604160886736 
733	 0.136958247891855 
734	 0.137185804125933 
735	 0.137442558367997 
736	 0.137745863519291 
737	 0.138076533217282 
738	 0.138184168586237 
739	 0.138303210936754 
740	 0.138938223217037 
741	 0.139468298163401 
742	 0.13974288736713 
743	 0.140076249540203 
744	 0.140289269952436 
745	 0.140246033092686 
746	 0.140195887240978 
747	 0.140328170969137 
748	 0.141019780793844 
749	 0.14148179526289 
750	 0.141441702615281 
751	 0.141221595379162 
752	 0.141154080694607 
753	 0.141542050311528 
754	 0.141869744167697 
755	 0.142049811210403 
756	 0.142237274189411 
757	 0.142103060596836 
758	 0.141568120845218 
759	 0.141377426551829 
760	 0.141846023546641 
761	 0.143134286910993 
762	 0.143538495705597 
763	 0.143173571926867 
764	 0.14349600661024 
765	 0.144062803273372 
766	 0.144586292606939 
767	 0.144681925251278 
768	 0.144557584013381 
769	 0.144434610204356 
770	 0.144638127806732 
771	 0.14505874090065 
772	 0.144956920656071 
773	 0.144813961790082 
774	 0.144964553463971 
775	 0.145332880380339 
776	 0.145695663469036 
777	 0.145672163267197 
778	 0.145753207117601 
779	 0.145998193994753 
780	 0.146010470924817 
781	 0.145876751395632 
782	 0.14572403895093 
783	 0.145995374909449 
784	 0.146578015806558 
785	 0.14712652713986 
786	 0.147226381324944 
787	 0.146859159413899 
788	 0.146711998363364 
789	 0.146900049487353 
790	 0.147452599107201 
791	 0.147782573228286 
792	 0.147807262517846 
793	 0.147632071278001 
794	 0.147469560722321 
795	 0.147493197873869 
796	 0.148051147233717 
797	 0.148441469026974 
798	 0.148007555257975 
799	 0.147935921380986 
800	 0.148248165925022 
801	 0.148288670995493 
802	 0.148600144452507 
803	 0.149242495225108 
804	 0.149428960576629 
805	 0.149422328381919 
806	 0.149563942641154 
807	 0.149576216207608 
808	 0.149505168058287 
809	 0.149595584851464 
810	 0.149834070302676 
811	 0.150117104611154 
812	 0.149763573806554 
813	 0.149535286674954 
814	 0.150461444110939 
815	 0.150602264898372 
816	 0.149932420009573 
817	 0.150057700252015 
818	 0.150236043945814 
819	 0.150300377482789 
820	 0.151113015961695 
821	 0.152106548607952 
822	 0.152552943893647 
823	 0.152800182239099 
824	 0.152797045882374 
825	 0.152200210210118 
826	 0.151753712630349 
827	 0.151815408551943 
828	 0.152384780637188 
829	 0.152886469558193 
830	 0.152649850509858 
831	 0.15267123589352 
832	 0.153079739939925 
833	 0.153598658343782 
834	 0.153988367938618 
835	 0.154056308121147 
836	 0.15348429917509 
837	 0.152939782434506 
838	 0.153189951839514 
839	 0.154109273993986 
840	 0.154980632736121 
841	 0.153757602082752 
842	 0.153388528511811 
843	 0.154687101068018 
844	 0.154213167757615 
845	 0.153474705189989 
846	 0.154377530596167 
847	 0.154386477547764 
848	 0.153664054923646 
849	 0.154272103450785 
850	 0.154601537299772 
851	 0.154067818278277 
852	 0.153166190789078 
853	 0.153104828053714 
854	 0.154923145897085 
855	 0.15518599399847 
856	 0.154219954994594 
857	 0.154662977878548 
858	 0.155158712243252 
859	 0.155288115224894 
860	 0.155136042601245 
861	 0.155084271228648 
862	 0.155439755990425 
863	 0.155206333914827 
864	 0.15484567678406 
865	 0.155970367557032 
866	 0.156287926289359 
867	 0.15539554615403 
868	 0.155441532763374 
869	 0.155595699662475 
870	 0.155237220937816 
871	 0.155939655264585 
872	 0.156899947327063 
873	 0.156049679899072 
874	 0.156424898669156 
875	 0.15827851742273 
876	 0.158830117229744 
877	 0.158290217295647 
878	 0.157118511516791 
879	 0.157529901319365 
880	 0.158653268028222 
881	 0.158560091295554 
882	 0.158291485356805 
883	 0.158206283870275 
884	 0.158555620377499 
885	 0.159150022595574 
886	 0.15985393250005 
887	 0.160799750670057 
888	 0.161132426833949 
889	 0.159797210200038 
890	 0.159676541800879 
891	 0.160839615886378 
892	 0.161201509919959 
893	 0.161163946267683 
894	 0.160936559784118 
895	 0.161075356201839 
896	 0.161207933664251 
897	 0.160919800497912 
898	 0.161886386399186 
899	 0.163456900380939 
900	 0.163144389233499 
901	 0.163247006280264 
902	 0.163985464471811 
903	 0.162839832481066 
904	 0.161472611686785 
905	 0.161285715847442 
906	 0.162029453717421 
907	 0.163442640512458 
908	 0.16520189220773 
909	 0.165108060302607 
910	 0.163369440736077 
911	 0.163493669129467 
912	 0.16416202975733 
913	 0.164522230435848 
914	 0.164322409958692 
915	 0.164069723565846 
916	 0.164413279369689 
917	 0.165062190147042 
918	 0.165545966463343 
919	 0.164850049681231 
920	 0.163862745006271 
921	 0.163227821674331 
922	 0.164439906368962 
923	 0.164786692589968 
924	 0.162245142544752 
925	 0.163536554541456 
926	 0.166341794741779 
927	 0.163016517649916 
928	 0.16099130020883 
929	 0.162217184590157 
930	 0.162098449249227 
931	 0.16207687367131 
932	 0.163221942465125 
933	 0.164707823242006 
934	 0.165637218837744 
935	 0.16497597274575 
936	 0.162680458021334 
937	 0.160342085481219 
938	 0.161063546759336 
939	 0.165346691745595 
940	 0.171107245752962 
941	 0.170938009622784 
942	 0.168367800141119 
943	 0.166221873729913 
944	 0.163069525481001 
945	 0.16001482253538 
946	 0.158975836723198 
947	 0.161717813654204 
948	 0.166288634801292 
949	 0.165275080781 
950	 0.164583495769343 
951	 0.165944448724308 
952	 0.164366669166664 
953	 0.161368782679202 
954	 0.159011069881819 
955	 0.161235292265697 
956	 0.163767170113947 
957	 0.157590937441764 
958	 0.16128234554507 
959	 0.172959480553802 
960	 0.17109629032942 
961	 0.167018382715807 
962	 0.166117610818959 
963	 0.165133220674693 
964	 0.163825862902798 
965	 0.162334440796405 
966	 0.162734956955984 
967	 0.164681262502704 
968	 0.166978145255111 
969	 0.168480631037495 
970	 0.167866110070586 
971	 0.161322736083699 
972	 0.159941969409921 
973	 0.167664455111249 
974	 0.165578448231825 
975	 0.160763424807233 
976	 0.162788367310411 
977	 0.162355746829163 
978	 0.160733038353274 
979	 0.164388937981904 
980	 0.165628782073904 
981	 0.163569939763687 
982	 0.163871018671651 
983	 0.164349791614247 
984	 0.164464253529335 
985	 0.16893348617292 
986	 0.171789649877212 
987	 0.167159575042161 
988	 0.165377829784932 
989	 0.167419499138571 
990	 0.171440488664309 
991	 0.168961969011156 
992	 0.161253837860557 
993	 0.162134674257396 
994	 0.166055134761301 
995	 0.169663884567325 
996	 0.171828384713738 
997	 0.171018861818839 
998	 0.166762284025582 
999	 0.167315941792655 
1000	 0.171126735786637 
1001	 0.17305108659687 
1002	 0.170227360499359 
1003	 0.16426356663984 
1004	 0.162579629737526 
1005	 0.167049434743239 
1006	 0.17585616940524 
1007	 0.176686763777222 
1008	 0.170980869989616 
1009	 0.162498664515065 
1010	 0.165775946389781 
1011	 0.172203299605958 
1012	 0.167604509069589 
1013	 0.16553227293228 
1014	 0.168325746895763 
1015	 0.174355545973551 
1016	 0.177591258761773 
1017	 0.175729797615826 
1018	 0.168052955692112 
1019	 0.165879978663457 
1020	 0.172899460383459 
1021	 0.16760241926992 
1022	 0.163616987375806 
1023	 0.17453762891269 
1024	 0.177116545686078 
1025	 0.172611828910918 
1026	 0.169548720955191 
1027	 0.176528081635971 
1028	 0.185862494573193 
1029	 0.166724906292659 
1030	 0.156008148528615 
1031	 0.163229243324931 
1032	 0.16208852112754 
1033	 0.160603400985127 
1034	 0.164452974283425 
1035	 0.17554520534653 
1036	 0.182587157791346 
1037	 0.175327444845003 
1038	 0.172787840689047 
1039	 0.173368011243397 
1040	 0.168647769376751 
1041	 0.166718720597472 
1042	 0.166626633874733 
1043	 0.159221083276288 
1044	 0.157221913503158 
1045	 0.164254232112505 
1046	 0.17650042188527 
1047	 0.173010512024403 
1048	 0.149974354672771 
1049	 0.16721410946654 
1050	 0.188667867065619 
1051	 0.178024349676438 
1052	 0.176373039810122 
1053	 0.178874757416135 
1054	 0.16906480536215 
1055	 0.161088474339447 
1056	 0.16374496707631 
1057	 0.191494549220831 
1058	 0.194093803644488 
1059	 0.16840268719019 
1060	 0.16687046184803 
1061	 0.17325824316221 
1062	 0.180083885924143 
1063	 0.188770751892058 
1064	 0.194533759074995 
1065	 0.192409011089404 
1066	 0.179299034762635 
1067	 0.157470070965601 
1068	 0.129894867678285 
1069	 0.12921232566253 
1070	 0.154478411256921 
1071	 0.184742300362999 
1072	 0.199299104651633 
1073	 0.193680083048949 
1074	 0.163825889072278 
1075	 0.160790671841198 
