Wavelength	SHSI00125.asd
325	 3.98850717465217E-02 
326	 3.94320982273118E-02 
327	 4.56417691689268E-02 
328	 4.53427477519327E-02 
329	 4.40373350386566E-02 
330	 4.39660492362028E-02 
331	 4.58776581817703E-02 
332	 4.86029902426792E-02 
333	 5.07567614652803E-02 
334	 0.04811393211664 
335	 4.18447678822638E-02 
336	 3.47754909058672E-02 
337	 0.03472025354922 
338	 4.12657367453505E-02 
339	 4.04592069653539E-02 
340	 0.037248546431584 
341	 3.65448585176554E-02 
342	 4.01877829206724E-02 
343	 0.045283361221302 
344	 4.62155823804307E-02 
345	 0.045079566663313 
346	 4.29271767205391E-02 
347	 4.15894514664776E-02 
348	 0.039524704796276 
349	 3.63872180662552E-02 
350	 0.039695604901494 
351	 4.40717273589099E-02 
352	 3.97739950336488E-02 
353	 3.86421294628536E-02 
354	 0.041496031783501 
355	 4.00307653527553E-02 
356	 3.87667976245368E-02 
357	 4.02205876935647E-02 
358	 4.10370880521148E-02 
359	 4.12705839591587E-02 
360	 4.16311130516847E-02 
361	 4.12223665727844E-02 
362	 3.97884448838576E-02 
363	 0.036666764104658 
364	 3.60852153151888E-02 
365	 3.95346589493309E-02 
366	 4.13638502165203E-02 
367	 4.05476933110203E-02 
368	 3.65733667854371E-02 
369	 3.72090445105213E-02 
370	 4.17359400817222E-02 
371	 4.16389992378225E-02 
372	 3.95461699366669E-02 
373	 3.72660079797456E-02 
374	 3.75313724734669E-02 
375	 3.82149108236681E-02 
376	 3.60217701568277E-02 
377	 3.58130916092039E-02 
378	 3.75316654905803E-02 
379	 3.67682226460529E-02 
380	 3.72656123046304E-02 
381	 4.00336790468615E-02 
382	 3.91310285509254E-02 
383	 3.69169601478568E-02 
384	 3.71421954069826E-02 
385	 3.59908735075332E-02 
386	 3.40361848507597E-02 
387	 3.58917367934959E-02 
388	 3.64557924249578E-02 
389	 3.43687137200224E-02 
390	 3.69516153741791E-02 
391	 3.99157505071153E-02 
392	 3.79190150132962E-02 
393	 0.036361495939967 
394	 3.59277350436431E-02 
395	 3.47503874870873E-02 
396	 3.48144738268349E-02 
397	 3.63701651488681E-02 
398	 3.61279875303295E-02 
399	 3.51250192386328E-02 
400	 3.47207921135749E-02 
401	 3.49713901341846E-02 
402	 0.035585956693312 
403	 3.59419603975981E-02 
404	 3.57910041361941E-02 
405	 3.51968944741085E-02 
406	 3.52000541518275E-02 
407	 3.56429931005302E-02 
408	 3.62017968162538E-02 
409	 3.58613423864031E-02 
410	 3.48420191130542E-02 
411	 3.43701961343032E-02 
412	 0.034386723373523 
413	 3.48281203412187E-02 
414	 3.54420978040324E-02 
415	 3.58586902626879E-02 
416	 3.56733470279879E-02 
417	 3.55323371979329E-02 
418	 3.55602231136482E-02 
419	 3.56857582861472E-02 
420	 3.54191994645367E-02 
421	 3.46286844656783E-02 
422	 3.43671605661536E-02 
423	 3.44822881234469E-02 
424	 3.45440414403432E-02 
425	 3.52847128491592E-02 
426	 3.62841778457872E-02 
427	 3.53609188856286E-02 
428	 3.48552439691027E-02 
429	 3.60955102430259E-02 
430	 3.66994063680518E-02 
431	 3.65157950145446E-02 
432	 3.58497511941759E-02 
433	 3.54145738486084E-02 
434	 3.53593443533308E-02 
435	 3.52360149733043E-02 
436	 3.52683813764032E-02 
437	 3.55224109034552E-02 
438	 3.51504370647063E-02 
439	 3.46286480639439E-02 
440	 3.50628164741283E-02 
441	 0.035342586118447 
442	 3.52466373470106E-02 
443	 3.53215102684537E-02 
444	 3.55941222169473E-02 
445	 3.60268494260459E-02 
446	 3.60918704747109E-02 
447	 3.59263188697311E-02 
448	 3.60225255242454E-02 
449	 3.62454636440568E-02 
450	 3.64648253441663E-02 
451	 3.62490691295877E-02 
452	 3.59285299246041E-02 
453	 3.58469541196529E-02 
454	 0.035684667497034 
455	 3.56172775614883E-02 
456	 3.63683147762906E-02 
457	 3.66955158408949E-02 
458	 0.036170906691258 
459	 3.56714513000047E-02 
460	 3.54240632517948E-02 
461	 0.035598171144054 
462	 3.63177738274882E-02 
463	 3.71320996669333E-02 
464	 3.66915058914533E-02 
465	 3.60615930723283E-02 
466	 3.58509208804062E-02 
467	 3.60293556935597E-02 
468	 3.63683929929859E-02 
469	 3.65260939350745E-02 
470	 3.66190800023708E-02 
471	 3.67086342510654E-02 
472	 3.69803872034541E-02 
473	 3.70093811098207E-02 
474	 3.66030919326911E-02 
475	 3.65852763054112E-02 
476	 3.66782609312738E-02 
477	 3.61303657584498E-02 
478	 3.64290232515095E-02 
479	 3.75172494522402E-02 
480	 0.037318509844447 
481	 0.036784318578841 
482	 3.67552268202814E-02 
483	 3.72137284761776E-02 
484	 3.77674567466708E-02 
485	 3.74378917298567E-02 
486	 3.73289114122708E-02 
487	 0.037674266741366 
488	 3.74492248449431E-02 
489	 3.69688451490702E-02 
490	 3.66668676565158E-02 
491	 0.037374094705941 
492	 3.84508241928618E-02 
493	 3.77834537155248E-02 
494	 3.69368374908711E-02 
495	 0.036670377346536 
496	 3.70613985576427E-02 
497	 3.76568815487416E-02 
498	 3.78680908422558E-02 
499	 0.037647802040088 
500	 3.72356624023554E-02 
501	 3.74607243561948E-02 
502	 3.79247862983041E-02 
503	 3.83127726751218E-02 
504	 3.83056581520084E-02 
505	 3.79365615420132E-02 
506	 3.72442500571678E-02 
507	 3.79372089876016E-02 
508	 3.97486565905907E-02 
509	 3.96109183610085E-02 
510	 3.88291200910611E-02 
511	 3.85543230410515E-02 
512	 0.038816178232348 
513	 3.92897530201318E-02 
514	 3.91543545676959E-02 
515	 3.90211620468906E-02 
516	 3.91512681193433E-02 
517	 3.97432114846702E-02 
518	 4.01636274583741E-02 
519	 3.97705129099507E-02 
520	 4.00322894409991E-02 
521	 4.06855525202489E-02 
522	 0.040077658346146 
523	 3.99144059122544E-02 
524	 4.08130537973797E-02 
525	 4.13672303566387E-02 
526	 4.13833495239346E-02 
527	 4.08020810818638E-02 
528	 4.06969577863262E-02 
529	 4.12549583702703E-02 
530	 4.20504601931063E-02 
531	 4.24505305746007E-02 
532	 4.21409102606909E-02 
533	 4.24133661005838E-02 
534	 4.29907995457718E-02 
535	 4.29356802071158E-02 
536	 4.29310042544689E-02 
537	 4.31231004046902E-02 
538	 4.32236245167508E-02 
539	 4.30417934868109E-02 
540	 4.24744126795427E-02 
541	 4.28031960830624E-02 
542	 4.36693091545417E-02 
543	 4.33908368714317E-02 
544	 0.043264676978406 
545	 0.043720339065103 
546	 4.38887827294101E-02 
547	 4.39047257396584E-02 
548	 4.40458639229623E-02 
549	 4.38838765867753E-02 
550	 4.36078459182945E-02 
551	 4.42107673898057E-02 
552	 4.47455763852495E-02 
553	 4.46388836863498E-02 
554	 4.44687585415965E-02 
555	 4.44850572965668E-02 
556	 4.50296172317628E-02 
557	 4.51924044129675E-02 
558	 4.48463000610309E-02 
559	 4.49498829283774E-02 
560	 4.50554415456428E-02 
561	 4.47627223549753E-02 
562	 4.49244912200643E-02 
563	 4.53602848692759E-02 
564	 4.51443164737172E-02 
565	 4.51876667853508E-02 
566	 4.56731839192759E-02 
567	 4.52708900686707E-02 
568	 4.48570865046317E-02 
569	 4.56790942850483E-02 
570	 4.59225580497546E-02 
571	 4.54419485822328E-02 
572	 4.53929729480321E-02 
573	 4.53999433104084E-02 
574	 4.52512427668576E-02 
575	 4.50691293212151E-02 
576	 4.49786995865468E-02 
577	 4.51858019708083E-02 
578	 4.52628724499201E-02 
579	 0.045261038578558 
580	 4.61810133521813E-02 
581	 4.65722193472499E-02 
582	 4.53227969449416E-02 
583	 4.55602303561207E-02 
584	 4.68228642545606E-02 
585	 4.64061959286494E-02 
586	 4.58797341707936E-02 
587	 4.58782234208645E-02 
588	 4.64547357554532E-02 
589	 4.68865229743001E-02 
590	 4.62238730564658E-02 
591	 4.59396352699468E-02 
592	 4.61465966900313E-02 
593	 4.58761939942426E-02 
594	 4.57608974169451E-02 
595	 4.61120979738867E-02 
596	 0.046305708682727 
597	 4.63379238421355E-02 
598	 4.63378969052597E-02 
599	 4.65936425000959E-02 
600	 4.70265911611182E-02 
601	 4.68646514061335E-02 
602	 4.65714251960165E-02 
603	 4.66067570804015E-02 
604	 4.70994440170002E-02 
605	 4.78137513330785E-02 
606	 4.82620800204695E-02 
607	 4.78173735449461E-02 
608	 4.65970862872504E-02 
609	 4.70193974564953E-02 
610	 4.81821647533225E-02 
611	 4.86589331689248E-02 
612	 4.83221050295019E-02 
613	 4.75312222639221E-02 
614	 4.76897158372817E-02 
615	 4.79301052786236E-02 
616	 4.77679913548713E-02 
617	 4.77947755002401E-02 
618	 4.79953400690498E-02 
619	 4.82209489429496E-02 
620	 4.83664243830266E-02 
621	 4.84259455779356E-02 
622	 0.048592681012048 
623	 4.86762068569618E-02 
624	 4.85152623380334E-02 
625	 4.83496175112066E-02 
626	 4.83769905922479E-02 
627	 4.89933701143386E-02 
628	 4.95446376612187E-02 
629	 4.97184553955817E-02 
630	 4.95245337737683E-02 
631	 4.93351686958911E-02 
632	 4.95989680721277E-02 
633	 4.99480601541048E-02 
634	 5.01504738862806E-02 
635	 4.97708073504163E-02 
636	 4.93915697642507E-02 
637	 4.94020166419948E-02 
638	 4.98925084540533E-02 
639	 5.03022314565433E-02 
640	 4.95640366814751E-02 
641	 4.95917272676405E-02 
642	 5.06591513252575E-02 
643	 5.12729725107434E-02 
644	 5.11009486366121E-02 
645	 5.00308337462736E-02 
646	 5.01723257735433E-02 
647	 5.11012771266166E-02 
648	 5.05468297694485E-02 
649	 4.98727200361816E-02 
650	 0.049656961752252 
651	 5.00069810482375E-02 
652	 5.02581780000994E-02 
653	 4.96300825521483E-02 
654	 4.99119004879333E-02 
655	 5.09195609732531E-02 
656	 5.03085633325532E-02 
657	 0.049784984929895 
658	 5.02402115233559E-02 
659	 5.00953952583307E-02 
660	 4.96836202121638E-02 
661	 4.98232794718742E-02 
662	 4.97092028036765E-02 
663	 4.93988890275871E-02 
664	 5.02023295831606E-02 
665	 5.05994874533453E-02 
666	 4.94392600093729E-02 
667	 4.91947754144024E-02 
668	 4.95795680732484E-02 
669	 4.86564290727512E-02 
670	 4.82872590699075E-02 
671	 4.90401377853837E-02 
672	 5.00451905388828E-02 
673	 5.06972876183337E-02 
674	 5.04290572033877E-02 
675	 5.03485580702467E-02 
676	 5.05211974349739E-02 
677	 5.01712069033459E-02 
678	 5.02907544802357E-02 
679	 5.12604285859967E-02 
680	 5.16595218576405E-02 
681	 5.17747761765562E-02 
682	 5.23450971186014E-02 
683	 0.052787683670724 
684	 5.31071054046854E-02 
685	 5.39807002307871E-02 
686	 5.49360017292636E-02 
687	 5.55876000545853E-02 
688	 5.69312282843648E-02 
689	 5.83700192755833E-02 
690	 0.058488399346815 
691	 5.89946277979741E-02 
692	 6.01817563523293E-02 
693	 6.03843408068448E-02 
694	 6.09635175049444E-02 
695	 6.32643228816995E-02 
696	 6.42396116739831E-02 
697	 0.064395938920285 
698	 6.70302736052958E-02 
699	 6.86682408382828E-02 
700	 6.81276180560213E-02 
701	 6.97302433467894E-02 
702	 7.21583716170525E-02 
703	 7.29795379354044E-02 
704	 7.36850261953132E-02 
705	 7.46058384087133E-02 
706	 7.56166297364786E-02 
707	 7.64631115814593E-02 
708	 7.70409672399024E-02 
709	 7.80142693605458E-02 
710	 7.91321080660004E-02 
711	 7.97544386445648E-02 
712	 8.04659960276646E-02 
713	 0.081349102823934 
714	 8.18747782246141E-02 
715	 8.26688880072727E-02 
716	 8.43578078840337E-02 
717	 8.56427937448164E-02 
718	 8.64849263427531E-02 
719	 8.77282603856384E-02 
720	 0.088700256809271 
721	 8.91181711782525E-02 
722	 8.89173227900956E-02 
723	 8.87640223449561E-02 
724	 8.93885060698482E-02 
725	 9.00617449792991E-02 
726	 9.07547469443951E-02 
727	 0.092150027597977 
728	 9.32771941010953E-02 
729	 9.37263487274642E-02 
730	 9.44918339678781E-02 
731	 9.50529413748314E-02 
732	 9.45854451797081E-02 
733	 9.45027000143795E-02 
734	 9.49926217010597E-02 
735	 9.54285437099241E-02 
736	 9.62155007544213E-02 
737	 9.74691142485907E-02 
738	 9.80547168474588E-02 
739	 9.80413836101388E-02 
740	 9.77987578311119E-02 
741	 9.82609877254256E-02 
742	 9.94559674116478E-02 
743	 0.100083742065782 
744	 0.100451297091081 
745	 0.100876840125042 
746	 0.101490667493073 
747	 0.102236825111727 
748	 0.102940731754345 
749	 0.103508447939473 
750	 0.103946781511364 
751	 0.104554974679113 
752	 0.105239316423914 
753	 0.105858021711846 
754	 0.105920205384992 
755	 0.105707772159428 
756	 0.106293546769389 
757	 0.106866886482772 
758	 0.107229974272146 
759	 0.108649621851648 
760	 0.111731412524892 
761	 0.11402340307369 
762	 0.115196412457059 
763	 0.115268553441124 
764	 0.114001132064889 
765	 0.113778458802172 
766	 0.114859440890123 
767	 0.114383516390723 
768	 0.113670371209707 
769	 0.11440840504672 
770	 0.114610480581691 
771	 0.114436140237076 
772	 0.116232286619073 
773	 0.117970990163229 
774	 0.118273912686792 
775	 0.117718331041475 
776	 0.117436267242491 
777	 0.119323609437519 
778	 0.120543737148067 
779	 0.120465414233453 
780	 0.120386157144546 
781	 0.120792664097669 
782	 0.121999382893315 
783	 0.12327719108109 
784	 0.124250471020748 
785	 0.124440800776578 
786	 0.124557847390026 
787	 0.124954078164221 
788	 0.125914926234387 
789	 0.126861684198108 
790	 0.127274955301734 
791	 0.128179487139579 
792	 0.129069035371703 
793	 0.128123373622368 
794	 0.12800678288132 
795	 0.129547304138065 
796	 0.131617559555256 
797	 0.132875636479946 
798	 0.132209530308328 
799	 0.132403765175515 
800	 0.133486023472759 
801	 0.133847105719582 
802	 0.134437265908682 
803	 0.135552745000669 
804	 0.136948714364367 
805	 0.138013631911246 
806	 0.138157023461414 
807	 0.138017807759926 
808	 0.138171681537171 
809	 0.13981586177153 
810	 0.141437231105035 
811	 0.142265556910335 
812	 0.142203755534421 
813	 0.142372953778787 
814	 0.144247757385872 
815	 0.145843163170428 
816	 0.146833418814171 
817	 0.148133640710183 
818	 0.149168006126033 
819	 0.149736761485482 
820	 0.150003161462237 
821	 0.150429322362702 
822	 0.151495038055181 
823	 0.152328305637936 
824	 0.152713550723304 
825	 0.152693651163921 
826	 0.15292710153191 
827	 0.153630342013713 
828	 0.153997612387834 
829	 0.154287530229112 
830	 0.154909366998283 
831	 0.156327011481725 
832	 0.158061488108507 
833	 0.158635478651612 
834	 0.158782487135976 
835	 0.158886419047353 
836	 0.159097481725572 
837	 0.159775918461335 
838	 0.161269750729277 
839	 0.163411571213321 
840	 0.165302215782754 
841	 0.164499627912335 
842	 0.16443335954238 
843	 0.166073238001309 
844	 0.16546758662641 
845	 0.164954310737795 
846	 0.167326761070097 
847	 0.168475476904715 
848	 0.168252602643417 
849	 0.168780088711896 
850	 0.169497523393344 
851	 0.170337681163496 
852	 0.17188495914201 
853	 0.173070410334683 
854	 0.172855016075333 
855	 0.173502612852701 
856	 0.174933565330252 
857	 0.175730653982394 
858	 0.17692383912899 
859	 0.178449655913414 
860	 0.178463858095291 
861	 0.177706859861981 
862	 0.177104599989513 
863	 0.178203712821484 
864	 0.180172699942261 
865	 0.180164553844105 
866	 0.181590497990089 
867	 0.18450089047519 
868	 0.183499638498458 
869	 0.183168955083933 
870	 0.186837988052039 
871	 0.18717267838987 
872	 0.185724078137275 
873	 0.187684152285054 
874	 0.189021951886179 
875	 0.189074104166944 
876	 0.190218292564585 
877	 0.191376826000501 
878	 0.191991754961662 
879	 0.194508514554596 
880	 0.197235971060376 
881	 0.196986467417169 
882	 0.196985129646443 
883	 0.198059781954454 
884	 0.199887255942843 
885	 0.201000526069683 
886	 0.200747537227147 
887	 0.2008266315875 
888	 0.201744868960923 
889	 0.203820969332116 
890	 0.203591021244349 
891	 0.20240151294378 
892	 0.207765175038217 
893	 0.210638295803868 
894	 0.207896838007062 
895	 0.209756753482428 
896	 0.213019551257788 
897	 0.212896924163383 
898	 0.212276606038054 
899	 0.213130882938361 
900	 0.219210946407676 
901	 0.220625242387306 
902	 0.215886188381777 
903	 0.213988992903877 
904	 0.21598899808175 
905	 0.22164925984192 
906	 0.222843353170818 
907	 0.222063360242041 
908	 0.226222852768675 
909	 0.226956031190119 
910	 0.223906164536973 
911	 0.225281969821799 
912	 0.226978323654061 
913	 0.226791754918692 
914	 0.226753296241393 
915	 0.228265952115765 
916	 0.232465166176482 
917	 0.230608818301092 
918	 0.225796366103794 
919	 0.231854380483281 
920	 0.235334074617548 
921	 0.232777745929524 
922	 0.231856252027161 
923	 0.231804548596756 
924	 0.231776158717282 
925	 0.233601740044625 
926	 0.235729116994394 
927	 0.233930942888594 
928	 0.235445726614384 
929	 0.2409987724587 
930	 0.239135055697377 
931	 0.239111445708967 
932	 0.248003411921135 
933	 0.255705463108422 
934	 0.257002058692397 
935	 0.247704403399609 
936	 0.24017983640846 
937	 0.239314217137955 
938	 0.24833015052898 
939	 0.247083878778824 
940	 0.236219996637101 
941	 0.251208328276031 
942	 0.260618212041443 
943	 0.244725020231725 
944	 0.241892886890704 
945	 0.246598054888992 
946	 0.241913993355062 
947	 0.239167918326086 
948	 0.243567524994265 
949	 0.263881518063762 
950	 0.270588487463294 
951	 0.256140928810564 
952	 0.248719833503848 
953	 0.244612307987497 
954	 0.240311724299147 
955	 0.249953966262618 
956	 0.264631646797717 
957	 0.265536382035985 
958	 0.264441081296805 
959	 0.262556645135708 
960	 0.252510630666921 
961	 0.24812992073141 
962	 0.253737182914921 
963	 0.254584779844731 
964	 0.25162742568129 
965	 0.247791897722179 
966	 0.254498797910232 
967	 0.262484232169458 
968	 0.249680648779677 
969	 0.253379193004299 
970	 0.270950938342893 
971	 0.253906141191283 
972	 0.239867851293272 
973	 0.247792084145623 
974	 0.252012687131318 
975	 0.253080608329878 
976	 0.25416980142403 
977	 0.254091490799375 
978	 0.253884368581612 
979	 0.255959171817014 
980	 0.257222052352402 
981	 0.25776141964341 
982	 0.262001964449521 
983	 0.262236594034972 
984	 0.255947856374847 
985	 0.253681859394167 
986	 0.253047790461853 
987	 0.251241943267563 
988	 0.262648003497697 
989	 0.275897556111956 
990	 0.263783545798395 
991	 0.262544614122071 
992	 0.276129415142317 
993	 0.281179485280048 
994	 0.275975772727514 
995	 0.263060827350736 
996	 0.265037657598243 
997	 0.27011595695888 
998	 0.266450181201679 
999	 0.271779965233336 
1000	 0.279183378129535 
1001	 0.272665722043457 
1002	 0.272972826998248 
1003	 0.277612991428651 
1004	 0.258685699188055 
1005	 0.248251524094008 
1006	 0.259250066233438 
1007	 0.284164442917257 
1008	 0.296794913550539 
1009	 0.279347330056336 
1010	 0.27215618269296 
1011	 0.274561071275399 
1012	 0.277172695636933 
1013	 0.279599572386088 
1014	 0.280939003601804 
1015	 0.280210259417563 
1016	 0.278546500068669 
1017	 0.279210696716016 
1018	 0.293994906092999 
1019	 0.29944838186679 
1020	 0.285446100335846 
1021	 0.280174257390973 
1022	 0.287555199103286 
1023	 0.305395757887819 
1024	 0.298058507697267 
1025	 0.275275978411035 
1026	 0.265024335179823 
1027	 0.278770362919911 
1028	 0.30452357305356 
1029	 0.29745444585275 
1030	 0.293108610113156 
1031	 0.298479564164817 
1032	 0.286060631834795 
1033	 0.281759604884436 
1034	 0.297618168087565 
1035	 0.295231945330525 
1036	 0.293640419360331 
1037	 0.314031140928178 
1038	 0.328319340312383 
1039	 0.321091129494419 
1040	 0.274281295442947 
1041	 0.276650410611835 
1042	 0.320564647759216 
1043	 0.315095525908793 
1044	 0.288965758067889 
1045	 0.260835090579273 
1046	 0.277499841111529 
1047	 0.28341275902449 
1048	 0.257333350784655 
1049	 0.285693014560748 
1050	 0.315311382822283 
1051	 0.295603435247426 
1052	 0.280959473857101 
1053	 0.284226342028445 
1054	 0.309866853003448 
1055	 0.293859624373407 
1056	 0.259729385606259 
1057	 0.300863683391201 
1058	 0.325140287615156 
1059	 0.313826054246462 
1060	 0.317903108050273 
1061	 0.317779156003172 
1062	 0.310863512805102 
1063	 0.334010331649799 
1064	 0.326307503735507 
1065	 0.254661245099906 
1066	 0.203459421833056 
1067	 0.207665812656227 
1068	 0.271579765762621 
1069	 0.287274051252324 
1070	 0.270773103643539 
1071	 0.280513039760581 
1072	 0.271975463427495 
1073	 0.244596786854362 
1074	 0.233109157725271 
1075	 0.270896673888566 
