Wavelength	SHSI00317.asd
325	 6.48637123711173E-02 
326	 5.92185299747506E-02 
327	 0.044273865302759 
328	 0.052521533874933 
329	 5.73181250731425E-02 
330	 5.20652001691639E-02 
331	 5.70957012120978E-02 
332	 6.31677794348049E-02 
333	 6.08659465105412E-02 
334	 5.72823477722127E-02 
335	 5.33351317554482E-02 
336	 4.64055705192473E-02 
337	 4.87272716675017E-02 
338	 5.94344464761172E-02 
339	 5.76088295241843E-02 
340	 5.18231896774465E-02 
341	 4.98119671395797E-02 
342	 0.047923832186009 
343	 4.71003551854809E-02 
344	 5.01202343520438E-02 
345	 5.09727071351688E-02 
346	 4.90829526691177E-02 
347	 4.87596251352422E-02 
348	 4.98693768059312E-02 
349	 0.051817094705172 
350	 5.13961394208312E-02 
351	 4.95840422755381E-02 
352	 4.84210829802646E-02 
353	 4.84058676033655E-02 
354	 4.96452955576116E-02 
355	 5.21049609742923E-02 
356	 5.30981199221806E-02 
357	 5.15634374612886E-02 
358	 5.24373414164053E-02 
359	 5.38100101626737E-02 
360	 5.20313060469538E-02 
361	 5.02869560850528E-02 
362	 4.95619031673546E-02 
363	 5.04186913311513E-02 
364	 5.02680674028549E-02 
365	 4.82290662489883E-02 
366	 4.81962324935138E-02 
367	 4.90280145820367E-02 
368	 4.87394741837004E-02 
369	 4.76915159449275E-02 
370	 4.65107273590812E-02 
371	 4.68421640534143E-02 
372	 4.79253143932493E-02 
373	 4.92925111293277E-02 
374	 5.10369265352958E-02 
375	 5.17086863731078E-02 
376	 4.95041449266306E-02 
377	 4.77875640640696E-02 
378	 0.047181373471863 
379	 4.66030892466905E-02 
380	 4.64727075551271E-02 
381	 4.66806789211964E-02 
382	 4.51210165145574E-02 
383	 4.43355801873371E-02 
384	 4.77492677751277E-02 
385	 4.81068384763864E-02 
386	 4.56517672235135E-02 
387	 4.70759151093978E-02 
388	 4.77331379478373E-02 
389	 4.58752484600919E-02 
390	 4.40649898859233E-02 
391	 4.36340137713571E-02 
392	 4.56943886312687E-02 
393	 4.67634488322903E-02 
394	 4.64733070399481E-02 
395	 4.64287508321364E-02 
396	 0.045178304201559 
397	 4.28344031870688E-02 
398	 4.30282213760389E-02 
399	 4.41631425133362E-02 
400	 4.43290887802237E-02 
401	 4.41556990738692E-02 
402	 4.39315586942348E-02 
403	 4.41082642715543E-02 
404	 4.43114945886724E-02 
405	 4.44052678023389E-02 
406	 4.45243222426752E-02 
407	 4.47367505596533E-02 
408	 4.51045293950781E-02 
409	 4.50819616598601E-02 
410	 4.46907800530476E-02 
411	 4.43418605084916E-02 
412	 4.40659222363553E-02 
413	 4.39003389921966E-02 
414	 4.38851586225567E-02 
415	 4.39609823668962E-02 
416	 4.40541624252972E-02 
417	 4.39226101020301E-02 
418	 4.36976296180591E-02 
419	 4.39835872194634E-02 
420	 4.42160304336388E-02 
421	 4.41232310234268E-02 
422	 0.044136624021185 
423	 4.41765838782842E-02 
424	 0.04406059446663 
425	 4.39118151208687E-02 
426	 4.38217592004404E-02 
427	 4.39551961881708E-02 
428	 4.42545472492292E-02 
429	 0.044628317071424 
430	 4.47728008972312E-02 
431	 0.044698400018758 
432	 4.45128192320596E-02 
433	 4.41866701424559E-02 
434	 4.37894352166027E-02 
435	 4.34844644144415E-02 
436	 4.32911372464495E-02 
437	 0.043253440216601 
438	 4.37208375427173E-02 
439	 4.42880301169764E-02 
440	 4.41330091816939E-02 
441	 4.41976654719196E-02 
442	 4.45425475439932E-02 
443	 4.41369476195779E-02 
444	 4.38449101962105E-02 
445	 4.42954476805609E-02 
446	 4.41351061851284E-02 
447	 4.36071229409451E-02 
448	 4.37387293335649E-02 
449	 4.39270121892512E-02 
450	 0.043990726167891 
451	 4.40078884269795E-02 
452	 4.41438621544978E-02 
453	 4.45261835439812E-02 
454	 4.44996559946353E-02 
455	 4.42056714543221E-02 
456	 4.44180835936359E-02 
457	 4.45365235567669E-02 
458	 4.43706190312073E-02 
459	 4.43106718408222E-02 
460	 4.42969191594786E-02 
461	 4.42249451493361E-02 
462	 4.42978496371503E-02 
463	 4.44277463010533E-02 
464	 4.41386252627838E-02 
465	 4.42379286626896E-02 
466	 4.49538514427939E-02 
467	 4.47392931852386E-02 
468	 4.41680472158784E-02 
469	 4.43274226915622E-02 
470	 4.43862906309141E-02 
471	 0.044257486940279 
472	 4.43670459081529E-02 
473	 4.45813281435592E-02 
474	 4.47753863147272E-02 
475	 4.46929856487016E-02 
476	 4.44991326816409E-02 
477	 4.45392613863185E-02 
478	 4.45778012350313E-02 
479	 4.45933304950574E-02 
480	 4.47814389652402E-02 
481	 4.49439082609304E-02 
482	 0.044933879226204 
483	 4.50013682883541E-02 
484	 4.51553092377994E-02 
485	 0.045366575441418 
486	 4.52070293979049E-02 
487	 4.46781839523609E-02 
488	 4.46787914025848E-02 
489	 4.49100003815777E-02 
490	 4.50028262751375E-02 
491	 4.52205424201936E-02 
492	 4.54060118110384E-02 
493	 4.49925244733271E-02 
494	 4.47398238570587E-02 
495	 4.49786142672641E-02 
496	 4.54998424781853E-02 
497	 4.58286494371673E-02 
498	 4.53991384014813E-02 
499	 4.53610993654662E-02 
500	 4.57909856550531E-02 
501	 4.59159936443336E-02 
502	 4.58865763224264E-02 
503	 0.045801218107378 
504	 4.57013917597848E-02 
505	 0.045698564589721 
506	 4.59465115830203E-02 
507	 0.046305131475082 
508	 4.66128932171909E-02 
509	 4.64275949970127E-02 
510	 4.63202926254087E-02 
511	 4.67012411595587E-02 
512	 4.67099049194454E-02 
513	 4.65030811382925E-02 
514	 4.67739396506608E-02 
515	 4.71163949828335E-02 
516	 0.047347641510418 
517	 4.72520341753816E-02 
518	 4.72990471495204E-02 
519	 4.79585927976819E-02 
520	 4.79995724941713E-02 
521	 4.75534205074144E-02 
522	 0.047632562464489 
523	 4.78952438520116E-02 
524	 4.81910070440041E-02 
525	 4.85404737069411E-02 
526	 4.87536329929985E-02 
527	 4.85727913095979E-02 
528	 4.84821704081157E-02 
529	 4.85798065400019E-02 
530	 4.86568543387242E-02 
531	 0.048918570947108 
532	 4.94261336028581E-02 
533	 4.94420052875134E-02 
534	 4.91882801769733E-02 
535	 4.93088760991762E-02 
536	 4.94573918942331E-02 
537	 4.95524370131207E-02 
538	 4.96823983439287E-02 
539	 4.98669015007323E-02 
540	 5.01043656879857E-02 
541	 5.00949211637261E-02 
542	 0.049925041227325 
543	 4.99696868515529E-02 
544	 0.050086713749542 
545	 5.02119124276986E-02 
546	 5.03054285371727E-02 
547	 5.03523887116768E-02 
548	 5.03404835510716E-02 
549	 5.05296576198983E-02 
550	 5.08702523689253E-02 
551	 5.09787278079212E-02 
552	 5.10022830677955E-02 
553	 5.10370834424726E-02 
554	 5.10788210986404E-02 
555	 5.11078775233012E-02 
556	 5.10803820366395E-02 
557	 5.10659552444501E-02 
558	 5.10840426665757E-02 
559	 5.11175507108064E-02 
560	 5.10943261237474E-02 
561	 5.09665191556746E-02 
562	 5.09576736320098E-02 
563	 5.11441944018007E-02 
564	 5.16789953257766E-02 
565	 5.18844657522298E-02 
566	 5.15422802742504E-02 
567	 5.12890359961858E-02 
568	 5.12240504892866E-02 
569	 5.13873132494581E-02 
570	 5.16284126757632E-02 
571	 5.17879729215451E-02 
572	 5.15134721465499E-02 
573	 5.12902057236817E-02 
574	 5.13844791155392E-02 
575	 5.13320174267357E-02 
576	 5.11648189890142E-02 
577	 5.10382663292541E-02 
578	 5.11479189607005E-02 
579	 5.14423596897852E-02 
580	 5.14051889741338E-02 
581	 5.12575447200481E-02 
582	 5.12130591885309E-02 
583	 5.11738260337552E-02 
584	 5.11749935899117E-02 
585	 5.13602512024422E-02 
586	 5.14621070182432E-02 
587	 5.13721955821338E-02 
588	 5.11746040137909E-02 
589	 5.10799281377982E-02 
590	 5.13422521102733E-02 
591	 5.14581126456069E-02 
592	 5.13194478166032E-02 
593	 5.10292255208931E-02 
594	 5.07302479326333E-02 
595	 5.05583775855134E-02 
596	 5.07780957037056E-02 
597	 5.11454850071008E-02 
598	 5.11858944038298E-02 
599	 5.11940429143792E-02 
600	 5.12390476512173E-02 
601	 5.12599570719585E-02 
602	 5.11959798640438E-02 
603	 5.10197667344533E-02 
604	 5.10589702710939E-02 
605	 5.12508422795632E-02 
606	 5.13388182793056E-02 
607	 5.11082364420835E-02 
608	 5.06009277092766E-02 
609	 5.06925243710059E-02 
610	 5.09837784403848E-02 
611	 5.08748905242978E-02 
612	 5.08831186214505E-02 
613	 5.09828337489696E-02 
614	 5.06519550051371E-02 
615	 5.05020628485454E-02 
616	 5.08019066302851E-02 
617	 5.04226048557079E-02 
618	 4.99037786433391E-02 
619	 5.04436577284435E-02 
620	 0.050899243159292 
621	 5.09305422084448E-02 
622	 5.06986068297332E-02 
623	 5.03719294824769E-02 
624	 5.01319868357279E-02 
625	 5.03447906243816E-02 
626	 0.050704524011187 
627	 5.01970402920772E-02 
628	 4.99346793158325E-02 
629	 5.02753962691208E-02 
630	 5.04994714333577E-02 
631	 0.0504899955503 
632	 5.01930266110539E-02 
633	 4.99135705370718E-02 
634	 4.98103793718362E-02 
635	 0.050102404908274 
636	 5.03214430419993E-02 
637	 5.02144193794592E-02 
638	 5.02156690304999E-02 
639	 5.03401244970516E-02 
640	 0.050535484635296 
641	 5.03994816682029E-02 
642	 4.99826073868058E-02 
643	 5.01268456905722E-02 
644	 5.02352279316531E-02 
645	 4.98095008741799E-02 
646	 4.97778685337124E-02 
647	 5.00809478897538E-02 
648	 0.050146804879302 
649	 0.049947392880511 
650	 4.95797213658807E-02 
651	 4.98123438981715E-02 
652	 5.00164746042921E-02 
653	 4.93865211514005E-02 
654	 4.93043444567437E-02 
655	 4.97728253710821E-02 
656	 4.95887471236941E-02 
657	 4.91388245666219E-02 
658	 4.87093124712066E-02 
659	 4.84195975541918E-02 
660	 4.81871437626948E-02 
661	 4.78429626162868E-02 
662	 4.76507262578525E-02 
663	 4.76124568536334E-02 
664	 0.047458720127094 
665	 4.70610791388368E-02 
666	 0.046389257538441 
667	 4.63410051211595E-02 
668	 4.66781023528617E-02 
669	 4.64475468635765E-02 
670	 4.60571896093395E-02 
671	 4.57236847135657E-02 
672	 4.58376152161736E-02 
673	 4.61392284101019E-02 
674	 4.62902170271483E-02 
675	 4.62607410849008E-02 
676	 4.61340368943219E-02 
677	 4.62020565208654E-02 
678	 4.63241818173036E-02 
679	 4.64030235741726E-02 
680	 0.046269384685565 
681	 4.61934710189661E-02 
682	 4.66331691862215E-02 
683	 4.69512669641793E-02 
684	 4.70452624584906E-02 
685	 4.73189789812689E-02 
686	 4.75918762051705E-02 
687	 4.77452184466302E-02 
688	 0.048386524808091 
689	 4.93548246395875E-02 
690	 5.02472291897616E-02 
691	 5.06818854459347E-02 
692	 5.06685587887796E-02 
693	 5.08871023899518E-02 
694	 5.13314982402947E-02 
695	 5.19170457638156E-02 
696	 5.23110189160378E-02 
697	 5.25870147452643E-02 
698	 5.31971515713706E-02 
699	 5.36901237436797E-02 
700	 5.38891311993223E-02 
701	 5.42285513265613E-02 
702	 5.46251270798869E-02 
703	 0.054899185554825 
704	 0.055206105511943 
705	 5.55425382183886E-02 
706	 5.57886547159807E-02 
707	 5.58700316113631E-02 
708	 5.57968081059321E-02 
709	 0.05610359792464 
710	 0.056559931429542 
711	 5.66173620128203E-02 
712	 5.64746836397596E-02 
713	 5.62987531785572E-02 
714	 5.65650874802741E-02 
715	 5.68057784094643E-02 
716	 5.66126381249304E-02 
717	 5.69160039655869E-02 
718	 5.75901386253359E-02 
719	 5.75082669856148E-02 
720	 5.72360406229603E-02 
721	 5.70438452445859E-02 
722	 5.69136333765835E-02 
723	 5.69517153255523E-02 
724	 5.72887787834503E-02 
725	 0.05720748605995 
726	 5.68729357597174E-02 
727	 5.73592233118525E-02 
728	 5.77590824534919E-02 
729	 5.76883402961867E-02 
730	 5.78980996100282E-02 
731	 5.82053680538033E-02 
732	 5.82563373364467E-02 
733	 5.82281723459681E-02 
734	 5.81569383579702E-02 
735	 5.79595168143341E-02 
736	 0.057976585301311 
737	 5.83719913644818E-02 
738	 5.84358135843631E-02 
739	 5.82248203593578E-02 
740	 5.80041580226493E-02 
741	 5.82339398849813E-02 
742	 5.88534581572938E-02 
743	 5.89544175565013E-02 
744	 0.058769338166852 
745	 5.85447318554738E-02 
746	 5.84281881469538E-02 
747	 5.84955811324735E-02 
748	 5.88715169410744E-02 
749	 5.90220816968327E-02 
750	 5.88682261623397E-02 
751	 5.92553325455232E-02 
752	 5.95317807822294E-02 
753	 5.89917887725151E-02 
754	 5.86481748002204E-02 
755	 5.86199652962004E-02 
756	 5.85945752867637E-02 
757	 5.85934973835983E-02 
758	 5.86309763070033E-02 
759	 5.88770489821303E-02 
760	 5.93169638573312E-02 
761	 5.93690067709365E-02 
762	 5.91110442791002E-02 
763	 5.87912320525922E-02 
764	 5.86445481682232E-02 
765	 0.058643796196434 
766	 5.87557100694522E-02 
767	 5.89247952378627E-02 
768	 5.91506916527055E-02 
769	 0.059460052548016 
770	 5.95590937514305E-02 
771	 5.94825418560215E-02 
772	 5.96362686244714E-02 
773	 5.98676491217066E-02 
774	 6.00603272508573E-02 
775	 6.02268907671767E-02 
776	 6.01721230248824E-02 
777	 5.95179106931039E-02 
778	 5.93395824932701E-02 
779	 5.97201235978984E-02 
780	 5.94306797478461E-02 
781	 0.059174689411406 
782	 5.94960239467112E-02 
783	 5.97699759309301E-02 
784	 5.98414379158838E-02 
785	 5.95716146808284E-02 
786	 5.96550468857602E-02 
787	 6.01430341981392E-02 
788	 0.060021515640386 
789	 0.059791045633508 
790	 5.99444026233955E-02 
791	 6.00572204665314E-02 
792	 6.00194202482702E-02 
793	 5.97247047982007E-02 
794	 5.95945515999657E-02 
795	 5.97153996537557E-02 
796	 5.95992829418992E-02 
797	 5.95305185859227E-02 
798	 5.97860068691218E-02 
799	 5.96737968860133E-02 
800	 5.93747340897702E-02 
801	 5.97946022265676E-02 
802	 5.99789799475245E-02 
803	 5.96702532991959E-02 
804	 5.96376239147041E-02 
805	 5.98130254796812E-02 
806	 6.00671940994845E-02 
807	 6.07351186873468E-02 
808	 6.13746294216306E-02 
809	 6.04737481614942E-02 
810	 6.00921032349473E-02 
811	 0.060866924450239 
812	 6.04808694152636E-02 
813	 5.98507006939996E-02 
814	 0.060397936443373 
815	 6.05405594889133E-02 
816	 6.01143732905799E-02 
817	 5.99179690272504E-02 
818	 5.98068922305884E-02 
819	 5.97563281147291E-02 
820	 5.97948515332948E-02 
821	 6.01148467647718E-02 
822	 6.09111733165569E-02 
823	 6.10893473596771E-02 
824	 6.06881432324152E-02 
825	 6.05646445516588E-02 
826	 6.06837706666402E-02 
827	 6.08955552764647E-02 
828	 6.01025170590132E-02 
829	 5.95628344881354E-02 
830	 0.060841987995947 
831	 6.14941217050519E-02 
832	 0.061187835087489 
833	 6.05924506762369E-02 
834	 6.04293966591416E-02 
835	 6.09569506562582E-02 
836	 6.14561618276066E-02 
837	 6.16404880558229E-02 
838	 6.12917195703977E-02 
839	 6.11140466121089E-02 
840	 6.11347501537758E-02 
841	 6.09509317145965E-02 
842	 6.06770409553032E-02 
843	 6.04233075214438E-02 
844	 6.04679090033759E-02 
845	 6.08822322202697E-02 
846	 0.061651468118882 
847	 0.061278186461386 
848	 6.02207510335552E-02 
849	 6.07556931672646E-02 
850	 6.11998386061638E-02 
851	 6.09950183007634E-02 
852	 6.10905185628017E-02 
853	 0.061355680530618 
854	 6.15617283744846E-02 
855	 0.061465113623387 
856	 6.12453049194684E-02 
857	 6.15105419580659E-02 
858	 6.15945930894749E-02 
859	 6.13234145031017E-02 
860	 6.10348826888133E-02 
861	 6.08736558191583E-02 
862	 6.09491960525247E-02 
863	 6.10607270658116E-02 
864	 6.11312667933119E-02 
865	 6.10198109978285E-02 
866	 6.14840576259318E-02 
867	 6.24404903500108E-02 
868	 6.23674675488156E-02 
869	 6.16314278454104E-02 
870	 6.07667534122666E-02 
871	 6.13308222655646E-02 
872	 6.25300688850235E-02 
873	 6.23527995539636E-02 
874	 6.22434035788295E-02 
875	 6.24349253016265E-02 
876	 6.21318969483887E-02 
877	 6.16677979057351E-02 
878	 6.13479725771583E-02 
879	 6.14183928894333E-02 
880	 6.19558605365899E-02 
881	 6.30622833211569E-02 
882	 6.21198455396116E-02 
883	 5.98285665864621E-02 
884	 6.14765620664172E-02 
885	 6.21702196848509E-02 
886	 5.98454664058428E-02 
887	 0.060632938440265 
888	 6.28406231559994E-02 
889	 6.33543342411474E-02 
890	 6.23114046386199E-02 
891	 6.07285159366582E-02 
892	 6.19906146989626E-02 
893	 6.25718668191328E-02 
894	 6.11692971233719E-02 
895	 6.07680056653016E-02 
896	 6.14501035337513E-02 
897	 6.28997332046831E-02 
898	 0.063604687173095 
899	 6.34094978440511E-02 
900	 6.30188933038281E-02 
901	 6.21601792187605E-02 
902	 6.11668586344767E-02 
903	 6.17086037794011E-02 
904	 6.17674122363517E-02 
905	 6.01508733697445E-02 
906	 6.13923460989339E-02 
907	 6.41011574962971E-02 
908	 6.47264305392439E-02 
909	 6.36886811575301E-02 
910	 6.16656655707301E-02 
911	 6.06816090320726E-02 
912	 6.18663083694602E-02 
913	 0.064945003120136 
914	 6.38278287659316E-02 
915	 0.061754471084871 
916	 6.32789167645837E-02 
917	 6.30151207902896E-02 
918	 6.11975834302181E-02 
919	 6.15646861254481E-02 
920	 6.11983179024962E-02 
921	 5.98693010779678E-02 
922	 6.17311754954662E-02 
923	 0.063385619382323 
924	 6.18666267500569E-02 
925	 6.15635475102407E-02 
926	 6.20791835539769E-02 
927	 0.060877397366377 
928	 5.93124853930198E-02 
929	 5.87299700166445E-02 
930	 6.34169860993146E-02 
931	 6.60640317863811E-02 
932	 6.10712219433706E-02 
933	 5.63760467519055E-02 
934	 5.43791284490891E-02 
935	 5.64712510995159E-02 
936	 5.68503710367245E-02 
937	 5.66340429865271E-02 
938	 6.33493117636836E-02 
939	 6.57134959619203E-02 
940	 6.22076043048006E-02 
941	 6.27471241950226E-02 
942	 6.43613502219175E-02 
943	 6.46065221491124E-02 
944	 6.36665514917067E-02 
945	 6.32754393179154E-02 
946	 6.60997188543821E-02 
947	 6.77229420024029E-02 
948	 6.64186914711156E-02 
949	 0.060394172161314 
950	 5.66026822789126E-02 
951	 5.81526602347989E-02 
952	 6.27431835834382E-02 
953	 6.58295152094708E-02 
954	 6.40052891489637E-02 
955	 6.25395620297618E-02 
956	 0.060735531938929 
957	 5.53423676425224E-02 
958	 5.62514885756296E-02 
959	 6.25172232958605E-02 
960	 6.30465965200228E-02 
961	 6.10225010815987E-02 
962	 5.86075405952948E-02 
963	 5.82898681330881E-02 
964	 5.96089746942103E-02 
965	 6.17030297001144E-02 
966	 6.27954700680126E-02 
967	 6.28321883312815E-02 
968	 6.21624573060449E-02 
969	 6.49497974997769E-02 
970	 6.94836218434432E-02 
971	 6.49765384728208E-02 
972	 6.22757049951275E-02 
973	 6.59086286012234E-02 
974	 6.22122530249345E-02 
975	 5.85700944757034E-02 
976	 6.38203124827942E-02 
977	 6.54837497300543E-02 
978	 6.26352288405918E-02 
979	 5.82328021269768E-02 
980	 5.96478420368834E-02 
981	 6.53014199286134E-02 
982	 5.98305550901819E-02 
983	 5.75007590337468E-02 
984	 6.45267250750305E-02 
985	 6.58805779884933E-02 
986	 6.44090091931326E-02 
987	 6.44867514817931E-02 
988	 6.42874637883771E-02 
989	 6.45117541491592E-02 
990	 6.73912130147591E-02 
991	 6.25605012334648E-02 
992	 5.28174428531282E-02 
993	 5.96107468706961E-02 
994	 6.67131877025979E-02 
995	 6.62526129885949E-02 
996	 6.44708456388041E-02 
997	 6.34610968561722E-02 
998	 6.46311670950829E-02 
999	 6.47351729794989E-02 
1000	 6.38619702341402E-02 
1001	 6.31754884113029E-02 
1002	 6.21404003306126E-02 
1003	 6.22258522213831E-02 
1004	 6.87241010197559E-02 
1005	 7.15374224463392E-02 
1006	 6.78746062900578E-02 
1007	 6.66995934980241E-02 
1008	 6.72130262930016E-02 
1009	 6.81868292123986E-02 
1010	 6.82203874614397E-02 
1011	 6.60299106246542E-02 
1012	 6.05853358994276E-02 
1013	 5.97573601854006E-02 
1014	 6.24817827237165E-02 
1015	 6.14731862402738E-02 
1016	 0.063312883528237 
1017	 6.75591765077998E-02 
1018	 6.45033322961611E-02 
1019	 0.061000513848182 
1020	 6.15645508940688E-02 
1021	 6.83762376403324E-02 
1022	 7.26258384111412E-02 
1023	 6.60824654487168E-02 
1024	 6.30913365045633E-02 
1025	 6.40632904751664E-02 
1026	 0.065563210963562 
1027	 6.63857009127264E-02 
1028	 6.51430829315743E-02 
1029	 5.78518571635601E-02 
1030	 6.00761363796598E-02 
1031	 7.35942629376746E-02 
1032	 7.98776608968637E-02 
1033	 7.59705378223394E-02 
1034	 6.42800190812391E-02 
1035	 7.40401294227545E-02 
1036	 8.27344381973646E-02 
1037	 6.65081340410928E-02 
1038	 6.09553277815239E-02 
1039	 6.51768710675644E-02 
1040	 6.62003143162961E-02 
1041	 7.16000750752448E-02 
1042	 7.94458556936898E-02 
1043	 7.99664765965746E-02 
1044	 7.53076022080323E-02 
1045	 6.79887185722883E-02 
1046	 6.64964822591094E-02 
1047	 6.89386333514187E-02 
1048	 7.34361464191725E-02 
1049	 7.81040380233827E-02 
1050	 7.83068270251551E-02 
1051	 7.09393121628928E-02 
1052	 6.55258040887406E-02 
1053	 0.062351320856186 
1054	 5.94178051289455E-02 
1055	 6.43493840113471E-02 
1056	 7.34545419449218E-02 
1057	 7.39988961579971E-02 
1058	 0.077918748969305 
1059	 8.40797818663976E-02 
1060	 7.44856330226654E-02 
1061	 7.39562948150763E-02 
1062	 8.62177804095952E-02 
1063	 6.67274108073997E-02 
1064	 4.98471432991708E-02 
1065	 6.10150431239702E-02 
1066	 6.80400130955901E-02 
1067	 7.39844856603661E-02 
1068	 8.26172332844608E-02 
1069	 6.13240531209742E-02 
1070	 3.57532499332313E-02 
1071	 5.12529023661558E-02 
1072	 7.46136647878154E-02 
1073	 8.80716113098468E-02 
1074	 7.07350037303536E-02 
1075	 5.60630243233261E-02 
