Wavelength	SHSI00028.asd
325	 5.35414098774233E-02 
326	 5.79772215713599E-02 
327	 4.90867621525045E-02 
328	 5.18234944574831E-02 
329	 5.53396647402855E-02 
330	 5.57621223439922E-02 
331	 5.36198260295025E-02 
332	 5.17969222437836E-02 
333	 5.28234878554386E-02 
334	 5.41389848886011E-02 
335	 5.53564285109525E-02 
336	 5.72856962605077E-02 
337	 5.62578247819949E-02 
338	 5.19724779583751E-02 
339	 4.81787049466746E-02 
340	 4.72766371811204E-02 
341	 5.05415825360341E-02 
342	 5.37138376289447E-02 
343	 5.46888077324915E-02 
344	 5.09336114097419E-02 
345	 4.92119760515189E-02 
346	 5.03280596015128E-02 
347	 4.88691270854383E-02 
348	 4.90415598429729E-02 
349	 5.28960509823292E-02 
350	 5.25090230673828E-02 
351	 0.050421318631216 
352	 5.23312246183674E-02 
353	 5.24934583060845E-02 
354	 0.050787192114074 
355	 5.19375879090165E-02 
356	 5.35322736855333E-02 
357	 0.054085282276658 
358	 5.42383030361984E-02 
359	 5.46045634465644E-02 
360	 5.60427281316429E-02 
361	 0.055373988945427 
362	 5.30352588983288E-02 
363	 5.33590496344697E-02 
364	 5.30410815914867E-02 
365	 5.07949476706777E-02 
366	 5.06565783520185E-02 
367	 5.10883908160167E-02 
368	 4.95154439481051E-02 
369	 5.01910977901311E-02 
370	 5.30705595387301E-02 
371	 5.51329672769738E-02 
372	 5.50032107860362E-02 
373	 0.052296743404281 
374	 5.02730213453052E-02 
375	 4.99475482920478E-02 
376	 5.19963950228295E-02 
377	 5.29892248621314E-02 
378	 5.24438701441277E-02 
379	 5.21165920719372E-02 
380	 5.14941010801631E-02 
381	 5.05273610774036E-02 
382	 5.02433121776968E-02 
383	 5.00960633525117E-02 
384	 4.92696673834973E-02 
385	 5.03838634628585E-02 
386	 5.24159542698948E-02 
387	 5.01386022907397E-02 
388	 4.93394826670225E-02 
389	 5.16527863495374E-02 
390	 4.98423843831956E-02 
391	 4.67652466981226E-02 
392	 4.64037881114557E-02 
393	 4.93758595738916E-02 
394	 5.30488943474023E-02 
395	 4.97492618986148E-02 
396	 4.71992486986454E-02 
397	 4.82737473079716E-02 
398	 4.89521431252671E-02 
399	 4.82821968031272E-02 
400	 4.58439868663539E-02 
401	 4.59863974731575E-02 
402	 4.79542646682107E-02 
403	 4.79956996137685E-02 
404	 4.78183881804505E-02 
405	 4.79733171301058E-02 
406	 4.74112367084406E-02 
407	 4.71025837995824E-02 
408	 0.048286031998768 
409	 4.75060147738116E-02 
410	 4.52624856593678E-02 
411	 0.045173488084653 
412	 4.56874458460878E-02 
413	 4.60318415863011E-02 
414	 4.63850365229287E-02 
415	 4.63301583512826E-02 
416	 4.53578786255626E-02 
417	 4.48850074028101E-02 
418	 4.49820378674467E-02 
419	 4.46166142309912E-02 
420	 4.46845574513896E-02 
421	 4.54631549349375E-02 
422	 0.045365980355645 
423	 4.47865743622254E-02 
424	 4.45449423713786E-02 
425	 4.47589224667906E-02 
426	 4.52259913983133E-02 
427	 4.50580613059482E-02 
428	 4.47897127853921E-02 
429	 4.47594111000864E-02 
430	 4.47058484046004E-02 
431	 4.45308011870392E-02 
432	 4.41180429105097E-02 
433	 4.39123951673856E-02 
434	 4.39688514567202E-02 
435	 4.40563099641302E-02 
436	 4.37902207468405E-02 
437	 4.30656203612319E-02 
438	 4.33464286592804E-02 
439	 4.41200743324538E-02 
440	 0.044090926680316 
441	 4.37846576209453E-02 
442	 4.34688482351651E-02 
443	 4.35601936503865E-02 
444	 4.40227767118096E-02 
445	 4.47202555488174E-02 
446	 0.044629074756167 
447	 4.41380072289857E-02 
448	 4.45219263250782E-02 
449	 4.48036985972515E-02 
450	 4.47118067951722E-02 
451	 4.44896227729822E-02 
452	 4.46950560991578E-02 
453	 4.57676263777504E-02 
454	 4.57862086913889E-02 
455	 4.50507090686538E-02 
456	 4.55096340186079E-02 
457	 4.58981358351095E-02 
458	 4.57887039488179E-02 
459	 4.58019257515657E-02 
460	 0.045877949535831 
461	 4.58877251835327E-02 
462	 4.56616726395243E-02 
463	 4.54828793850129E-02 
464	 4.63824336496878E-02 
465	 4.70260654639332E-02 
466	 0.046789199193988 
467	 4.66452309330185E-02 
468	 4.67903861984841E-02 
469	 4.73427718932767E-02 
470	 4.73200794818734E-02 
471	 4.68158656525799E-02 
472	 4.72285915752865E-02 
473	 4.73447543764429E-02 
474	 4.65623619766202E-02 
475	 4.66247695321879E-02 
476	 4.73821138130473E-02 
477	 4.82090621935479E-02 
478	 0.048290032630609 
479	 4.76281760695717E-02 
480	 4.73958174978666E-02 
481	 4.76308431981541E-02 
482	 0.048254029453767 
483	 4.82522039407269E-02 
484	 4.78736153577116E-02 
485	 4.82028557022008E-02 
486	 4.82325208521712E-02 
487	 4.77894554778206E-02 
488	 4.79510327127715E-02 
489	 4.82030006428431E-02 
490	 4.79926620702179E-02 
491	 4.83654684039086E-02 
492	 4.90559631057815E-02 
493	 4.87772024938697E-02 
494	 4.86769248766121E-02 
495	 4.92176524757278E-02 
496	 0.049968144684479 
497	 5.05128030199663E-02 
498	 5.03860157792723E-02 
499	 5.05959480824981E-02 
500	 5.11034363383801E-02 
501	 5.07637027423133E-02 
502	 5.07809870437185E-02 
503	 5.17702011793245E-02 
504	 5.24447419418361E-02 
505	 5.27908212515867E-02 
506	 5.30937037969413E-02 
507	 5.33072955503993E-02 
508	 0.053524927415114 
509	 5.40191635305086E-02 
510	 5.47931362364131E-02 
511	 5.57616304266709E-02 
512	 5.60139959087969E-02 
513	 5.59205697493414E-02 
514	 5.67335439436148E-02 
515	 5.74009322403603E-02 
516	 5.76324727886395E-02 
517	 5.79509585950225E-02 
518	 5.85002269939283E-02 
519	 5.93608687040789E-02 
520	 6.00428369151149E-02 
521	 6.04872819334611E-02 
522	 6.08004761210937E-02 
523	 6.14203327002597E-02 
524	 6.24242940366738E-02 
525	 6.27693266265202E-02 
526	 0.062927669229437 
527	 6.37107884140151E-02 
528	 6.44761586563238E-02 
529	 0.065123774137412 
530	 6.59215731332805E-02 
531	 6.67159054546945E-02 
532	 6.74443257997196E-02 
533	 6.85263967631865E-02 
534	 6.95974597641156E-02 
535	 0.069811366198706 
536	 7.02314010748478E-02 
537	 7.11167084504881E-02 
538	 0.071950866314932 
539	 0.072603855287258 
540	 7.29916575738647E-02 
541	 7.35221262006835E-02 
542	 0.074256527419703 
543	 7.51472746029625E-02 
544	 7.59161011181855E-02 
545	 7.64178710863536E-02 
546	 7.66255068765518E-02 
547	 7.68736387369826E-02 
548	 7.75825550569528E-02 
549	 7.82410584947187E-02 
550	 7.88429652303867E-02 
551	 7.99097303185401E-02 
552	 8.06386464580661E-02 
553	 8.06465612192398E-02 
554	 8.12912632719435E-02 
555	 8.23110030018172E-02 
556	 8.28714852985355E-02 
557	 8.33676033082155E-02 
558	 8.38682603024792E-02 
559	 8.42229770353217E-02 
560	 8.44235367537683E-02 
561	 8.44911220008272E-02 
562	 8.47276014141971E-02 
563	 8.50767728704962E-02 
564	 8.52125447309541E-02 
565	 8.54274305228607E-02 
566	 8.57679842861235E-02 
567	 8.57610821677507E-02 
568	 8.57164112100025E-02 
569	 8.60755589691952E-02 
570	 8.62997637902518E-02 
571	 8.62910676241596E-02 
572	 8.62052001982982E-02 
573	 0.08615034194603 
574	 8.61777542120141E-02 
575	 8.60271494437751E-02 
576	 8.59108353208729E-02 
577	 8.62798394908891E-02 
578	 8.66350617382962E-02 
579	 8.67678822638852E-02 
580	 0.086569767004956 
581	 8.63461047893743E-02 
582	 0.086390055994167 
583	 8.68661791995177E-02 
584	 0.087475168313594 
585	 8.74295441406022E-02 
586	 0.087135536550263 
587	 8.68306635865423E-02 
588	 0.086927045671781 
589	 8.71712214533811E-02 
590	 0.087169029909394 
591	 8.72538179004789E-02 
592	 8.74531903775301E-02 
593	 8.76344613018007E-02 
594	 8.77242181006476E-02 
595	 8.76640917249378E-02 
596	 8.73447038595828E-02 
597	 8.71238855488459E-02 
598	 8.76615182028881E-02 
599	 8.78257770607901E-02 
600	 8.75221816755482E-02 
601	 8.80658775568242E-02 
602	 8.84680785534101E-02 
603	 8.78896036824068E-02 
604	 0.087629984056984 
605	 8.76790700073032E-02 
606	 8.73370596522655E-02 
607	 8.72423904715279E-02 
608	 8.75263208055885E-02 
609	 8.74430804154057E-02 
610	 8.70215834768925E-02 
611	 8.63969115724782E-02 
612	 8.61057616569555E-02 
613	 8.61353082297408E-02 
614	 8.59653286436218E-02 
615	 8.55373056982787E-02 
616	 8.48722390367631E-02 
617	 8.45003518866488E-02 
618	 8.43314376620266E-02 
619	 8.40492895148949E-02 
620	 8.39291063659414E-02 
621	 0.083969118005832 
622	 8.38494983335725E-02 
623	 8.36763373338778E-02 
624	 8.35585409061173E-02 
625	 8.34764678195255E-02 
626	 8.34507763267402E-02 
627	 8.35878660687833E-02 
628	 0.083446541003827 
629	 8.29794989014011E-02 
630	 8.30774380247338E-02 
631	 8.33361018604883E-02 
632	 8.31645007258259E-02 
633	 8.31386371233647E-02 
634	 8.34398546148127E-02 
635	 0.084340748051192 
636	 8.45755798702864E-02 
637	 8.35930916958403E-02 
638	 8.35138491168303E-02 
639	 8.41303176654908E-02 
640	 8.45799191725156E-02 
641	 8.46823511962677E-02 
642	 8.44712927172223E-02 
643	 8.46119439252293E-02 
644	 8.46083231453244E-02 
645	 8.40532072080941E-02 
646	 8.38025488838631E-02 
647	 8.38557188356717E-02 
648	 0.083701317629197 
649	 8.39342492408924E-02 
650	 8.44713903855108E-02 
651	 8.36142354147761E-02 
652	 8.22626507766838E-02 
653	 8.16356062315138E-02 
654	 8.17161151023101E-02 
655	 8.20348616838544E-02 
656	 8.09477312025233E-02 
657	 0.079615106764285 
658	 7.87251318931328E-02 
659	 7.73436282563278E-02 
660	 0.075775085835736 
661	 7.46891024409669E-02 
662	 7.31972775958342E-02 
663	 7.13418806100066E-02 
664	 0.070369110733339 
665	 6.95623607626049E-02 
666	 6.83335289924918E-02 
667	 6.75734838819111E-02 
668	 6.69979509037712E-02 
669	 6.54526137983875E-02 
670	 6.44006596562806E-02 
671	 6.42664135263034E-02 
672	 0.064065488606119 
673	 0.063835359840159 
674	 6.37028359814117E-02 
675	 6.34011520622629E-02 
676	 6.30546310261666E-02 
677	 6.31891895890052E-02 
678	 6.34379832520428E-02 
679	 6.37038959907262E-02 
680	 6.47992084692634E-02 
681	 6.60973527366094E-02 
682	 6.64581305244401E-02 
683	 6.75051224350304E-02 
684	 6.93793192241303E-02 
685	 7.07292124950401E-02 
686	 7.24171842994693E-02 
687	 7.51697076598382E-02 
688	 7.80031402844156E-02 
689	 8.06157266280255E-02 
690	 8.33628193357224E-02 
691	 8.65886167717603E-02 
692	 9.03339013986576E-02 
693	 9.36962178067907E-02 
694	 9.73383246642125E-02 
695	 0.101701356153759 
696	 0.104544960598289 
697	 0.106473438638061 
698	 0.110397650335169 
699	 0.114214157808209 
700	 0.116997711075563 
701	 0.120070455639054 
702	 0.123100861632867 
703	 0.125489895079529 
704	 0.127869359186874 
705	 0.130310427641496 
706	 0.132305676415295 
707	 0.134355518566735 
708	 0.136746457900911 
709	 0.139072912952193 
710	 0.141165645576192 
711	 0.14283585344185 
712	 0.144319877563025 
713	 0.145752061199913 
714	 0.147417416612481 
715	 0.148738681575664 
716	 0.149241916408516 
717	 0.149682273301133 
718	 0.1505882668153 
719	 0.152831272423968 
720	 0.154432913238917 
721	 0.154901058672387 
722	 0.156141792214486 
723	 0.157543789737427 
724	 0.158235488254545 
725	 0.159118025294675 
726	 0.160175236280339 
727	 0.16088902133511 
728	 0.161700776281707 
729	 0.162774142636827 
730	 0.163638558836333 
731	 0.164335342462612 
732	 0.164995090675382 
733	 0.165689635854706 
734	 0.166443721538253 
735	 0.16721624686056 
736	 0.167936538457885 
737	 0.168525633382283 
738	 0.168943096108788 
739	 0.169435151458854 
740	 0.170478599694928 
741	 0.171181216800573 
742	 0.171420762014555 
743	 0.171955629840715 
744	 0.172592869466776 
745	 0.173148223916766 
746	 0.173612737046258 
747	 0.17404346709356 
748	 0.174664005115311 
749	 0.174811740138636 
750	 0.174518278529936 
751	 0.175294416436879 
752	 0.176336599302779 
753	 0.176691608874895 
754	 0.176652950832934 
755	 0.176511033865236 
756	 0.176968046824319 
757	 0.17717511924625 
758	 0.176796318913086 
759	 0.176458851956181 
760	 0.176461483395578 
761	 0.177516064250936 
762	 0.177686122533003 
763	 0.177194845830512 
764	 0.1777892680402 
765	 0.179101784145924 
766	 0.180591189110187 
767	 0.180983054666121 
768	 0.180966939604285 
769	 0.181326994097542 
770	 0.181875867823274 
771	 0.182514899547639 
772	 0.183073378508567 
773	 0.183192837147522 
774	 0.182808361603616 
775	 0.183581630393107 
776	 0.184786174403015 
777	 0.184693175080045 
778	 0.184713892309118 
779	 0.185142387950931 
780	 0.185369448951029 
781	 0.185513666530368 
782	 0.185704040087903 
783	 0.186161038909837 
784	 0.186708637270523 
785	 0.186911043083152 
786	 0.187034874547971 
787	 0.187158038496388 
788	 0.187204344289717 
789	 0.187307058723035 
790	 0.187575494014429 
791	 0.187766396860193 
792	 0.187851309837868 
793	 0.187859123174445 
794	 0.188014050321872 
795	 0.188313998299408 
796	 0.188272830405476 
797	 0.18812688781695 
798	 0.188153662617112 
799	 0.188474092228471 
800	 0.188886250230046 
801	 0.188756209569054 
802	 0.188655878696428 
803	 0.188860149304975 
804	 0.189476555731284 
805	 0.190207321850763 
806	 0.190717770241047 
807	 0.190713976657186 
808	 0.190652380179956 
809	 0.1921842714758 
810	 0.192820000508347 
811	 0.191762031634487 
812	 0.191710888858592 
813	 0.1921526372224 
814	 0.192110195794577 
815	 0.192294996762823 
816	 0.192839496434891 
817	 0.193533053918399 
818	 0.1946485011357 
819	 0.195916381571153 
820	 0.195458820721876 
821	 0.194762676829672 
822	 0.195687285885041 
823	 0.196635837534536 
824	 0.197140174673265 
825	 0.196997102967434 
826	 0.197119430913554 
827	 0.197754096393343 
828	 0.197545380323752 
829	 0.197507568573117 
830	 0.19893376249517 
831	 0.199279502892618 
832	 0.198679925349969 
833	 0.199277123236558 
834	 0.199411369843346 
835	 0.198706094140646 
836	 0.199273595313413 
837	 0.199762773105164 
838	 0.19857924210518 
839	 0.199122707666404 
840	 0.20095430749111 
841	 0.200739020984427 
842	 0.200529491402816 
843	 0.200916523432856 
844	 0.200128824415762 
845	 0.199289364178854 
846	 0.199758045669674 
847	 0.200663325768633 
848	 0.201281970084851 
849	 0.200055056451538 
850	 0.199333400546801 
851	 0.199883599064417 
852	 0.199808822281844 
853	 0.199416083607012 
854	 0.199192502183289 
855	 0.199084522884479 
856	 0.198928643606563 
857	 0.198167707882939 
858	 0.198291762965336 
859	 0.199384698618626 
860	 0.199247673989513 
861	 0.198047201116518 
862	 0.196283519609937 
863	 0.196891834166042 
864	 0.198883830370928 
865	 0.198476060233195 
866	 0.198547701285217 
867	 0.199731538552784 
868	 0.200334241892845 
869	 0.201051868324081 
870	 0.202349988390915 
871	 0.202539503079809 
872	 0.202170548102146 
873	 0.202835353562793 
874	 0.202869961057045 
875	 0.202172718969589 
876	 0.202146894553139 
877	 0.203305206574896 
878	 0.205709399337022 
879	 0.206936124908377 
880	 0.207461103808072 
881	 0.208667625836572 
882	 0.209730923453555 
883	 0.210498905085926 
884	 0.211070402281276 
885	 0.21226938375461 
886	 0.214149406021128 
887	 0.213754626643881 
888	 0.212694159101705 
889	 0.213492575058266 
890	 0.214545977067345 
891	 0.215465609384598 
892	 0.216318758119807 
893	 0.216582112365482 
894	 0.216111139319725 
895	 0.215564389569722 
896	 0.216377340413531 
897	 0.219889306839067 
898	 0.221390563260918 
899	 0.221247322694934 
900	 0.22348994437557 
901	 0.223564610403414 
902	 0.221115517730942 
903	 0.221001687473061 
904	 0.223016682580631 
905	 0.226558134456435 
906	 0.228975221254113 
907	 0.229412998695937 
908	 0.22730416421143 
909	 0.225429343486948 
910	 0.224889413429911 
911	 0.225745255453145 
912	 0.226732274427107 
913	 0.226935880657445 
914	 0.225738125520087 
915	 0.225780562881164 
916	 0.229988562629724 
917	 0.230904040814266 
918	 0.228500866939923 
919	 0.226866132655571 
920	 0.22689105825892 
921	 0.22878351635883 
922	 0.23131042084952 
923	 0.231193034783325 
924	 0.226248655554158 
925	 0.22626700896728 
926	 0.229254738104107 
927	 0.226750868761391 
928	 0.225247806593984 
929	 0.226224811033927 
930	 0.22538954967703 
931	 0.223687865539016 
932	 0.222163557925186 
933	 0.222229454791218 
934	 0.224543380338898 
935	 0.228955634744116 
936	 0.223996240315285 
937	 0.213636868865378 
938	 0.215393332155194 
939	 0.221534375665473 
940	 0.227364936448523 
941	 0.225124871158583 
942	 0.221136817283419 
943	 0.220276868959225 
944	 0.221538270049522 
945	 0.222159871249699 
946	 0.217994397267266 
947	 0.215357383095241 
948	 0.216955233868062 
949	 0.226571430857402 
950	 0.228831262433456 
951	 0.219815041603717 
952	 0.2178670512238 
953	 0.219793060655739 
954	 0.22110922847483 
955	 0.215007179368123 
956	 0.210735414075636 
957	 0.226628431818502 
958	 0.231404781856232 
959	 0.222067129033112 
960	 0.217744799606733 
961	 0.217022982284911 
962	 0.218034471062542 
963	 0.212965787608566 
964	 0.209208876858294 
965	 0.213877074366861 
966	 0.219031661971263 
967	 0.222840433140024 
968	 0.224717767745074 
969	 0.226393314885208 
970	 0.226909426683592 
971	 0.220000690116428 
972	 0.217084247335883 
973	 0.222887920552445 
974	 0.224683985741888 
975	 0.22448362629791 
976	 0.225783076852406 
977	 0.225830668272625 
978	 0.22605636387201 
979	 0.230604659095176 
980	 0.232255454071883 
981	 0.229637680716993 
982	 0.225977729641891 
983	 0.226079149272223 
984	 0.23105639442238 
985	 0.230933961506545 
986	 0.229154769201781 
987	 0.23013734815854 
988	 0.229121004813326 
989	 0.227867338036632 
990	 0.231513391698767 
991	 0.232341307635605 
992	 0.229637547421369 
993	 0.2293415430732 
994	 0.229680070604482 
995	 0.230203680224089 
996	 0.234404651175439 
997	 0.23424934854247 
998	 0.223388800818316 
999	 0.222799671727738 
1000	 0.230381214952357 
1001	 0.235950803166115 
1002	 0.235530386487337 
1003	 0.230963075194396 
1004	 0.234198245617728 
1005	 0.231119539197147 
1006	 0.219939799072093 
1007	 0.22074078569471 
1008	 0.232902379124118 
1009	 0.251083583920283 
1010	 0.249801227300936 
1011	 0.237119567486327 
1012	 0.229880239722169 
1013	 0.23271570343233 
1014	 0.239204711411171 
1015	 0.230203906479942 
1016	 0.226629758900572 
1017	 0.232708113911393 
1018	 0.235941877133441 
1019	 0.239648792615226 
1020	 0.244214527087601 
1021	 0.241852356497693 
1022	 0.239420680014014 
1023	 0.243728671273635 
1024	 0.247069580871016 
1025	 0.246074974479459 
1026	 0.237591507322959 
1027	 0.235900138517414 
1028	 0.241746237765455 
1029	 0.245544911976442 
1030	 0.247629190055804 
1031	 0.24638632591307 
1032	 0.235555335332138 
1033	 0.226378994399752 
1034	 0.228258420214524 
1035	 0.246016557353087 
1036	 0.261797541742076 
1037	 0.256629049049497 
1038	 0.24214487739442 
1039	 0.226280603319141 
1040	 0.217250100199466 
1041	 0.222681845167256 
1042	 0.236898058082618 
1043	 0.237286473539233 
1044	 0.242962810249809 
1045	 0.255060603928356 
1046	 0.25234152116613 
1047	 0.252717094824388 
1048	 0.262523789102565 
1049	 0.250261802305689 
1050	 0.2322000084303 
1051	 0.229739115505576 
1052	 0.237983622930041 
1053	 0.250691742195321 
1054	 0.257581343235115 
1055	 0.246338352916593 
1056	 0.226989053831159 
1057	 0.232478352128523 
1058	 0.229964712739975 
1059	 0.218123743933922 
1060	 0.230975105797845 
1061	 0.239058154789952 
1062	 0.231976809128688 
1063	 0.233629057598465 
1064	 0.234061241178787 
1065	 0.229615159409282 
1066	 0.255597387410513 
1067	 0.267843691709725 
1068	 0.222248301724067 
1069	 0.22084221481187 
1070	 0.24621852579628 
1071	 0.238000123926125 
1072	 0.238392553998444 
1073	 0.240482182989486 
1074	 0.206883537798919 
1075	 0.159065922128476 
