Wavelength	SHSI00282.asd
325	 9.75678036840585E-02 
326	 9.53439639875199E-02 
327	 7.91586463053126E-02 
328	 9.35477951408216E-02 
329	 9.42921456248279E-02 
330	 7.29736243934078E-02 
331	 7.68333454505601E-02 
332	 8.89194254017727E-02 
333	 9.06165033869717E-02 
334	 8.56291224716813E-02 
335	 7.99002614985884E-02 
336	 8.65435272587552E-02 
337	 8.66948145559036E-02 
338	 7.78194681953403E-02 
339	 7.54034440254511E-02 
340	 7.88081222185732E-02 
341	 0.085744969490512 
342	 0.084633975984267 
343	 8.11790199732273E-02 
344	 9.03584397360456E-02 
345	 9.18184425035816E-02 
346	 8.40137468647935E-02 
347	 8.16431586533512E-02 
348	 0.084297996774672 
349	 9.01015992586115E-02 
350	 8.94112233899199E-02 
351	 0.086505250822897 
352	 9.01664597808229E-02 
353	 0.091078235038302 
354	 8.85240691628235E-02 
355	 8.85608811937247E-02 
356	 8.87749025612232E-02 
357	 8.81116734414429E-02 
358	 9.11153585856384E-02 
359	 9.42428284287845E-02 
360	 9.17414509092204E-02 
361	 0.08801075863901 
362	 8.51503711095482E-02 
363	 8.56331450612456E-02 
364	 8.61845208272123E-02 
365	 8.54683204071347E-02 
366	 8.72049307490972E-02 
367	 9.02153301207503E-02 
368	 9.24468614044835E-02 
369	 9.23413012925823E-02 
370	 9.07801136344538E-02 
371	 9.21154749110291E-02 
372	 9.34894775595277E-02 
373	 9.33401442101511E-02 
374	 9.27815105879434E-02 
375	 9.14433213639287E-02 
376	 8.87557313133862E-02 
377	 8.78960466661212E-02 
378	 8.87733175901345E-02 
379	 8.83645782466638E-02 
380	 8.87009163697104E-02 
381	 9.03005983202149E-02 
382	 8.98520560772386E-02 
383	 8.80620772544027E-02 
384	 8.63308133030478E-02 
385	 8.55156478926886E-02 
386	 8.57010818876614E-02 
387	 8.64659580841759E-02 
388	 8.58148617530139E-02 
389	 8.34632028432771E-02 
390	 8.33118043871555E-02 
391	 8.47812907854365E-02 
392	 8.66788336945744E-02 
393	 8.57937169579919E-02 
394	 8.27921267537214E-02 
395	 8.18261873364525E-02 
396	 8.12753249991162E-02 
397	 8.03565641341736E-02 
398	 7.84198773699285E-02 
399	 7.72340437664363E-02 
400	 7.84323193649785E-02 
401	 7.90518741765416E-02 
402	 7.90416242441923E-02 
403	 7.99038037532907E-02 
404	 0.080096013085544 
405	 7.94190405208127E-02 
406	 8.08941908316391E-02 
407	 8.26269376463232E-02 
408	 8.20577901769563E-02 
409	 8.10634339138575E-02 
410	 8.03300315140278E-02 
411	 0.080519557482233 
412	 8.06066991561267E-02 
413	 8.01606834550594E-02 
414	 7.98483933810038E-02 
415	 7.96048553661582E-02 
416	 7.92583933658717E-02 
417	 7.94809252483776E-02 
418	 8.01741891922737E-02 
419	 8.06985846910977E-02 
420	 8.05140982569447E-02 
421	 7.95437874187775E-02 
422	 7.94587176211089E-02 
423	 7.99138481951685E-02 
424	 8.01195067364653E-02 
425	 0.080139557212875 
426	 8.00623566629159E-02 
427	 8.02626726297059E-02 
428	 8.03783170880404E-02 
429	 8.01906712302266E-02 
430	 8.00608720768912E-02 
431	 7.97876870180577E-02 
432	 7.89722537821455E-02 
433	 7.83069660755574E-02 
434	 7.79571439402036E-02 
435	 7.75934819265736E-02 
436	 7.79295385202136E-02 
437	 7.92259681731326E-02 
438	 7.93231037858293E-02 
439	 7.87090725267964E-02 
440	 7.88692474648146E-02 
441	 0.079055935099244 
442	 7.91186485984587E-02 
443	 7.92268389679481E-02 
444	 7.95542641965249E-02 
445	 8.01599630441322E-02 
446	 8.01063211460236E-02 
447	 7.96174778812345E-02 
448	 7.94770748955104E-02 
449	 7.97088844485028E-02 
450	 8.02726354411464E-02 
451	 8.07730578078032E-02 
452	 8.11863531496819E-02 
453	 8.15182531907424E-02 
454	 8.18956309016469E-02 
455	 8.21336681662517E-02 
456	 8.15942065742835E-02 
457	 8.14068679969856E-02 
458	 8.18972703218172E-02 
459	 8.18559488279127E-02 
460	 8.18149345720565E-02 
461	 0.082489199913479 
462	 8.26667810954833E-02 
463	 8.24226872109984E-02 
464	 8.29229732474034E-02 
465	 8.32005597674059E-02 
466	 8.28668267522258E-02 
467	 8.29179322853357E-02 
468	 8.32081619119641E-02 
469	 8.33716210910165E-02 
470	 0.08291277648321 
471	 8.21783094557033E-02 
472	 8.27852002439483E-02 
473	 8.37270324868442E-02 
474	 8.42597503439695E-02 
475	 8.40212155353379E-02 
476	 8.34278349726227E-02 
477	 8.32681330760614E-02 
478	 8.34378288636237E-02 
479	 8.38540992515705E-02 
480	 8.42544512744703E-02 
481	 8.44694700928998E-02 
482	 8.44323447764408E-02 
483	 8.49824748882969E-02 
484	 8.58021205033161E-02 
485	 8.58339939312391E-02 
486	 8.54314558785121E-02 
487	 8.47872352550225E-02 
488	 8.42629997014269E-02 
489	 8.37305855098325E-02 
490	 8.30862459977194E-02 
491	 8.36755451660994E-02 
492	 0.085032972703226 
493	 8.53307791839109E-02 
494	 8.51680263868993E-02 
495	 8.49309949533272E-02 
496	 8.54724878756564E-02 
497	 8.61909444450489E-02 
498	 8.62031664277545E-02 
499	 8.66668034270774E-02 
500	 8.74901613410077E-02 
501	 0.087381693640733 
502	 8.72955121763644E-02 
503	 8.77488033547786E-02 
504	 8.79801389036906E-02 
505	 8.80086930409084E-02 
506	 8.79855836287935E-02 
507	 8.84836408704332E-02 
508	 8.94547353936039E-02 
509	 8.99120001552971E-02 
510	 9.05125131786445E-02 
511	 9.17122949854187E-02 
512	 9.23161640703248E-02 
513	 9.24839490637065E-02 
514	 9.30457119701731E-02 
515	 9.36134072516127E-02 
516	 9.41117629704141E-02 
517	 9.48557975167311E-02 
518	 9.53822754378212E-02 
519	 9.52197017513069E-02 
520	 9.51554990446457E-02 
521	 9.54638357387259E-02 
522	 9.63770238601513E-02 
523	 9.73424986137606E-02 
524	 9.80947308115063E-02 
525	 9.88098056581709E-02 
526	 9.94763131718145E-02 
527	 0.100060311258941 
528	 0.10030397932354 
529	 0.100393606392684 
530	 0.101112516489657 
531	 0.10215110059 
532	 0.103188804056052 
533	 0.103325179524754 
534	 0.103072269752428 
535	 0.103672529199852 
536	 0.104391445355772 
537	 0.105065474429067 
538	 0.105988455883594 
539	 0.10692514766745 
540	 0.107610862265988 
541	 0.107632098824246 
542	 0.107402237644295 
543	 0.108184124369301 
544	 0.109068029612966 
545	 0.109656259095549 
546	 0.110021346233084 
547	 0.110361945085087 
548	 0.11092846354424 
549	 0.11128724867656 
550	 0.111448427963032 
551	 0.111799554964586 
552	 0.112241020925831 
553	 0.112728011921933 
554	 0.113469065005531 
555	 0.114141568400696 
556	 0.114083311794554 
557	 0.114326916073357 
558	 0.115029258535186 
559	 0.115252102549958 
560	 0.115309691547761 
561	 0.115527881262287 
562	 0.115795206468985 
563	 0.116124615614157 
564	 0.116635910676221 
565	 0.11689106443635 
566	 0.116798266787952 
567	 0.117025921179556 
568	 0.11746095014851 
569	 0.117877200979126 
570	 0.117679972512799 
571	 0.117081726227147 
572	 0.117316774832917 
573	 0.117672573374324 
574	 0.117735245473102 
575	 0.117872413034299 
576	 0.11805779187948 
577	 0.11813581589284 
578	 0.118610984891691 
579	 0.119328940893414 
580	 0.118906363002682 
581	 0.11848062586827 
582	 0.119043445770186 
583	 0.119398023203369 
584	 0.119506478761374 
585	 0.119879145571998 
586	 0.120121196494138 
587	 0.120064204592822 
588	 0.119714809304174 
589	 0.119365021907887 
590	 0.119394434373305 
591	 0.119461292134268 
592	 0.119518692527884 
593	 0.119725970544841 
594	 0.119863675794236 
595	 0.119830324498696 
596	 0.11985775322689 
597	 0.120183828068097 
598	 0.121236017832424 
599	 0.121424114958824 
600	 0.120643308626671 
601	 0.120852574065715 
602	 0.12117423639988 
603	 0.120850561429669 
604	 0.121190109822112 
605	 0.121987584881725 
606	 0.122218797276938 
607	 0.122060023705911 
608	 0.121657273312995 
609	 0.121677739105846 
610	 0.12171139712346 
611	 0.121173821507691 
612	 0.120898521313064 
613	 0.120907107406331 
614	 0.120557607133716 
615	 0.12019889824485 
616	 0.12001409732318 
617	 0.119654729073687 
618	 0.119238450599361 
619	 0.118986105898864 
620	 0.119398721906895 
621	 0.120263314245547 
622	 0.120013827588842 
623	 0.119516518688537 
624	 0.119583207526661 
625	 0.119654028309012 
626	 0.11965398252128 
627	 0.119579173434607 
628	 0.119833193905445 
629	 0.120443232437765 
630	 0.120554689873192 
631	 0.12034785607063 
632	 0.120149286998948 
633	 0.120010748813333 
634	 0.12004920723421 
635	 0.120573523044143 
636	 0.120861238837043 
637	 0.120587235575521 
638	 0.120927558301215 
639	 0.121564213080445 
640	 0.121685202268718 
641	 0.121411259552805 
642	 0.12095325054139 
643	 0.121016656322189 
644	 0.121451897454474 
645	 0.122034665978347 
646	 0.121837485651271 
647	 0.12113505908579 
648	 0.121125988973828 
649	 0.121317138589061 
650	 0.121395698349849 
651	 0.120586430537308 
652	 0.119903803938367 
653	 0.120594215112461 
654	 0.120791058035062 
655	 0.119994905413477 
656	 0.118250513302275 
657	 0.116730486789744 
658	 0.116120503705659 
659	 0.115242236030342 
660	 0.114423925214249 
661	 0.114498041692781 
662	 0.113840727510458 
663	 0.112349192000624 
664	 0.111861789630978 
665	 0.11108674979412 
666	 0.10906960962306 
667	 0.108346117343941 
668	 0.108500635404362 
669	 0.107394071643411 
670	 0.106365213525947 
671	 0.105880682448938 
672	 0.105862487841874 
673	 0.105669775887731 
674	 0.104619770905923 
675	 0.104540927020689 
676	 0.105322986060691 
677	 0.105272871978463 
678	 0.105313037351344 
679	 0.105904937961372 
680	 0.106594576498837 
681	 0.107537627893352 
682	 0.109074658686878 
683	 0.110500185002113 
684	 0.111755059353818 
685	 0.113595198082955 
686	 0.115711688144819 
687	 0.117800427170055 
688	 0.120171324842236 
689	 0.122685746932767 
690	 0.125403455789548 
691	 0.128504510073052 
692	 0.131980875221862 
693	 0.135326100234543 
694	 0.138405990628872 
695	 0.141024307361945 
696	 0.144413935545703 
697	 0.148188118343795 
698	 0.150718640044462 
699	 0.15328428736935 
700	 0.156394188174912 
701	 0.159466128664304 
702	 0.162234451773506 
703	 0.164460447705363 
704	 0.166831100587038 
705	 0.169365492965698 
706	 0.171320729783008 
707	 0.173357318341112 
708	 0.175832404117401 
709	 0.178048293377531 
710	 0.179908303624022 
711	 0.181385848817222 
712	 0.183053248005092 
713	 0.185026394542581 
714	 0.187002505524226 
715	 0.188445603693773 
716	 0.18900349870322 
717	 0.190403562355738 
718	 0.192583934785984 
719	 0.193667139156751 
720	 0.194540519788349 
721	 0.195499589236086 
722	 0.196396682325243 
723	 0.197704032523275 
724	 0.199885448562248 
725	 0.20131980253516 
726	 0.201860513045854 
727	 0.202746130113433 
728	 0.203591423833906 
729	 0.204346846176519 
730	 0.205879990474669 
731	 0.207355527749414 
732	 0.207539146496174 
733	 0.208211341427404 
734	 0.209568331129491 
735	 0.210769233215272 
736	 0.211831301327074 
737	 0.212724423588434 
738	 0.213534663558428 
739	 0.214303294868936 
740	 0.215062406103364 
741	 0.21585335042677 
742	 0.216621161695684 
743	 0.21705238125095 
744	 0.217568743660817 
745	 0.218492001184472 
746	 0.219051865235233 
747	 0.219440579984265 
748	 0.220520796215971 
749	 0.221175190979625 
750	 0.221247161600858 
751	 0.222227227034664 
752	 0.223380869316222 
753	 0.223840287754013 
754	 0.224234753738379 
755	 0.224687657167941 
756	 0.225412565999239 
757	 0.224807155887968 
758	 0.222485418890118 
759	 0.222360406183122 
760	 0.225158524710856 
761	 0.228795848268931 
762	 0.230131850726532 
763	 0.22979743014866 
764	 0.231594608902368 
765	 0.233186133404347 
766	 0.233766397746716 
767	 0.234061369885093 
768	 0.234306382783278 
769	 0.234673764029098 
770	 0.234829105486217 
771	 0.234932489729533 
772	 0.235797155586425 
773	 0.236879885495038 
774	 0.237788039378355 
775	 0.238547698793839 
776	 0.239138229858273 
777	 0.239549550000298 
778	 0.239928298567559 
779	 0.24036143580099 
780	 0.24088876407114 
781	 0.241668445519609 
782	 0.242747175702796 
783	 0.243312220273488 
784	 0.24354027146651 
785	 0.244126189372089 
786	 0.244474075730176 
787	 0.244523342079006 
788	 0.244798872234255 
789	 0.245519411194713 
790	 0.246777343079553 
791	 0.247427685301998 
792	 0.247691600810698 
793	 0.248722279760704 
794	 0.249483045744234 
795	 0.249723839627011 
796	 0.250110022110887 
797	 0.250629078064249 
798	 0.2512149906405 
799	 0.251544743112028 
800	 0.251926532874164 
801	 0.253458606821997 
802	 0.25443951757893 
803	 0.254370164420565 
804	 0.254661944989153 
805	 0.255178041617653 
806	 0.255659515250168 
807	 0.256177608939628 
808	 0.256680406940026 
809	 0.256953380899427 
810	 0.257552123563001 
811	 0.258442728581239 
812	 0.257680839351895 
813	 0.256957297299312 
814	 0.258663391529737 
815	 0.260378270650716 
816	 0.26169834994491 
817	 0.26354636402728 
818	 0.265091629179225 
819	 0.265890496358604 
820	 0.265774668196206 
821	 0.26547553396642 
822	 0.265857872910253 
823	 0.268043582357763 
824	 0.270700921729813 
825	 0.269637764130951 
826	 0.268413541894848 
827	 0.268507330670965 
828	 0.269070406409484 
829	 0.269925398660957 
830	 0.270905562223023 
831	 0.272454184115025 
832	 0.273990962335525 
833	 0.273624421950363 
834	 0.273731844849589 
835	 0.275125081972517 
836	 0.275935706455747 
837	 0.276552437327045 
838	 0.277557805806 
839	 0.277650024515584 
840	 0.277203408647077 
841	 0.277918561875391 
842	 0.279377679547262 
843	 0.280969570143273 
844	 0.280275369099514 
845	 0.279077153320634 
846	 0.279528153132831 
847	 0.279384189405051 
848	 0.278832328344445 
849	 0.279827665958896 
850	 0.280051990366638 
851	 0.279170160738018 
852	 0.281096072388039 
853	 0.283589332961666 
854	 0.284012800964766 
855	 0.284852204843062 
856	 0.285751888736059 
857	 0.284379332409086 
858	 0.284719588411984 
859	 0.287232422939129 
860	 0.286805876717194 
861	 0.285484155851254 
862	 0.285485102417809 
863	 0.286041498766803 
864	 0.287005820594757 
865	 0.288278794830301 
866	 0.289539040605064 
867	 0.290625955105783 
868	 0.291802171905482 
869	 0.292186365918124 
870	 0.291273564257499 
871	 0.291106882082723 
872	 0.291801665846166 
873	 0.292831732196906 
874	 0.294623303311928 
875	 0.296751655028456 
876	 0.297244257876125 
877	 0.297423523277628 
878	 0.298364384754594 
879	 0.300457264956324 
880	 0.3026424033878 
881	 0.303170384899637 
882	 0.303257927790457 
883	 0.303546750165667 
884	 0.305053957976406 
885	 0.30622461660929 
886	 0.3063119453933 
887	 0.306902709291035 
888	 0.307442984708406 
889	 0.307024480212223 
890	 0.30754042765012 
891	 0.308779248920094 
892	 0.30878782474622 
893	 0.307664218306426 
894	 0.306187363258235 
895	 0.308852163966408 
896	 0.312835809527259 
897	 0.314320084113009 
898	 0.315741920731895 
899	 0.317416578777341 
900	 0.319196733625391 
901	 0.319248564585085 
902	 0.317580161495517 
903	 0.317026636589423 
904	 0.316389087233552 
905	 0.315060531259819 
906	 0.316676893313556 
907	 0.320132866275873 
908	 0.322679037926116 
909	 0.319978410462114 
910	 0.314108709013133 
911	 0.318015607051003 
912	 0.323198452190363 
913	 0.324922349779957 
914	 0.327832830514738 
915	 0.329674300243172 
916	 0.327461941252944 
917	 0.326515950510325 
918	 0.326844948995246 
919	 0.324828363257597 
920	 0.324731610565068 
921	 0.326900841599974 
922	 0.325336574641054 
923	 0.323002938637378 
924	 0.322512758226193 
925	 0.32024997837206 
926	 0.316444558177989 
927	 0.312713661333318 
928	 0.312317649137344 
929	 0.315914280202392 
930	 0.319219027041227 
931	 0.321011799216256 
932	 0.320440446367339 
933	 0.322342259954074 
934	 0.325956988993519 
935	 0.328693039067369 
936	 0.323468725420076 
937	 0.314249424715857 
938	 0.314447097370337 
939	 0.314732911565613 
940	 0.314559109325077 
941	 0.325614202698885 
942	 0.330913000787547 
943	 0.319774205349791 
944	 0.315422438750795 
945	 0.317779585094823 
946	 0.321306360731947 
947	 0.322724890647775 
948	 0.320865623638492 
949	 0.316177120770671 
950	 0.31223420366058 
951	 0.311959193675525 
952	 0.321152920608413 
953	 0.328839462864056 
954	 0.325759402316246 
955	 0.318893249264253 
956	 0.314412879654814 
957	 0.320501386405098 
958	 0.328951909827377 
959	 0.333544349215658 
960	 0.321655815088541 
961	 0.316370615980197 
962	 0.326114565208165 
963	 0.330443020331353 
964	 0.328840687877332 
965	 0.323064991116876 
966	 0.324680627343302 
967	 0.329043185834863 
968	 0.322694200199565 
969	 0.321242122705373 
970	 0.325769571551531 
971	 0.323796446661022 
972	 0.321418872553263 
973	 0.322351295801521 
974	 0.327162712186635 
975	 0.332547376291486 
976	 0.334857074533887 
977	 0.336864356054969 
978	 0.337111381719014 
979	 0.331220124096563 
980	 0.329571671584031 
981	 0.333195644340543 
982	 0.332350690084632 
983	 0.33334078348913 
984	 0.33833425833949 
985	 0.339089848363408 
986	 0.337468127115119 
987	 0.336416996045282 
988	 0.337306613743102 
989	 0.339219882461518 
990	 0.339629116655063 
991	 0.341219082920276 
992	 0.343145233219202 
993	 0.339715859304626 
994	 0.336535578087155 
995	 0.336427813146762 
996	 0.337852843340728 
997	 0.337420287734113 
998	 0.332575827584744 
999	 0.331943128070177 
1000	 0.334106986305076 
1001	 0.333881156637275 
1002	 0.336185846693349 
1003	 0.340947901978977 
1004	 0.34343738752624 
1005	 0.351445931493211 
1006	 0.362163999096794 
1007	 0.346385746088916 
1008	 0.333181445841092 
1009	 0.343635826747281 
1010	 0.342189409644417 
1011	 0.339099616453628 
1012	 0.353683594841328 
1013	 0.353933877150436 
1014	 0.343386072677823 
1015	 0.346882428123448 
1016	 0.357223537631487 
1017	 0.367178795327715 
1018	 0.355368561861001 
1019	 0.347996565428606 
1020	 0.357415179443626 
1021	 0.361678641620731 
1022	 0.357860038293229 
1023	 0.346734634423923 
1024	 0.34676014527022 
1025	 0.351749900346824 
1026	 0.34625948946894 
1027	 0.35312278981688 
1028	 0.36707692363163 
1029	 0.355550255071984 
1030	 0.341930924688202 
1031	 0.336691622309201 
1032	 0.349547729256479 
1033	 0.355948100169607 
1034	 0.345440707266969 
1035	 0.362041815660404 
1036	 0.378015093850355 
1037	 0.361177472326968 
1038	 0.3527455691412 
1039	 0.352802892330141 
1040	 0.348925996973147 
1041	 0.345304891843118 
1042	 0.344970791339359 
1043	 0.354788962878019 
1044	 0.365059756041899 
1045	 0.371679767913731 
1046	 0.37835951345499 
1047	 0.369914726581954 
1048	 0.341218785051231 
1049	 0.316496757503237 
1050	 0.308851573284433 
1051	 0.326599598073137 
1052	 0.345963519622477 
1053	 0.355888980600469 
1054	 0.345272721461333 
1055	 0.351734169149221 
1056	 0.368530676281613 
1057	 0.357386309791589 
1058	 0.356916293576219 
1059	 0.366081106877686 
1060	 0.336190681020252 
1061	 0.323821833729494 
1062	 0.347453924949149 
1063	 0.345067641945671 
1064	 0.335502203051193 
1065	 0.335751864385211 
1066	 0.353012568268407 
1067	 0.354369865783776 
1068	 0.310265921645434 
1069	 0.32217287668962 
1070	 0.347422017507928 
1071	 0.286265622759075 
1072	 0.267143255020461 
1073	 0.305647859953049 
1074	 0.355831545752225 
1075	 0.354757749866507 
