Wavelength	SHSI00147.asd
325	 3.98825175888827E-02 
326	 4.34275662741073E-02 
327	 0.049500578053801 
328	 4.65191729532286E-02 
329	 4.46004757596884E-02 
330	 4.65894561365161E-02 
331	 4.72552698215029E-02 
332	 4.53098280412279E-02 
333	 4.02105707309927E-02 
334	 3.70568867956936E-02 
335	 3.72089636482153E-02 
336	 4.14831732629962E-02 
337	 4.62972121646634E-02 
338	 0.049045986408209 
339	 4.47258885245692E-02 
340	 4.03214251118737E-02 
341	 4.13212312123856E-02 
342	 0.04340683636228 
343	 4.45810254725366E-02 
344	 4.26784608699868E-02 
345	 4.00252173237098E-02 
346	 3.82436266601166E-02 
347	 4.01840431795938E-02 
348	 4.22309748555642E-02 
349	 4.19223062313221E-02 
350	 4.01657794167755E-02 
351	 3.90413824978977E-02 
352	 4.15150425007031E-02 
353	 4.38388685158792E-02 
354	 4.44654509184427E-02 
355	 4.14641307669761E-02 
356	 3.99866883304516E-02 
357	 4.25573200789515E-02 
358	 4.31209827240228E-02 
359	 4.23402655111774E-02 
360	 4.22886981673496E-02 
361	 4.24733611944128E-02 
362	 4.24055146417476E-02 
363	 4.06175914775858E-02 
364	 3.95998214661396E-02 
365	 4.03882036750203E-02 
366	 4.00523517044326E-02 
367	 3.94228383345033E-02 
368	 3.99685401548087E-02 
369	 4.10872126205305E-02 
370	 4.20620841003278E-02 
371	 4.11729826916456E-02 
372	 3.99133275808661E-02 
373	 3.92315055655937E-02 
374	 3.96357200758231E-02 
375	 4.00351503443162E-02 
376	 3.89197333096468E-02 
377	 3.88299617167947E-02 
378	 3.98078866256477E-02 
379	 4.00750396947176E-02 
380	 3.93648214313176E-02 
381	 3.80155900955443E-02 
382	 3.92753722932559E-02 
383	 4.06075968896928E-02 
384	 3.84711750495407E-02 
385	 3.65461626756743E-02 
386	 3.62094990555398E-02 
387	 3.85752479969101E-02 
388	 0.040434451890223 
389	 4.02669033730558E-02 
390	 3.93912801471892E-02 
391	 3.83428050302761E-02 
392	 3.75754659744655E-02 
393	 3.78381031671313E-02 
394	 3.86710262130858E-02 
395	 3.83578498134252E-02 
396	 3.80749636312431E-02 
397	 0.038149845410704 
398	 3.74002635917783E-02 
399	 3.68360317696594E-02 
400	 3.74870592144581E-02 
401	 3.79091315627464E-02 
402	 3.79557866322213E-02 
403	 3.80569702751016E-02 
404	 3.77493876803328E-02 
405	 3.70112458211318E-02 
406	 3.68041100157839E-02 
407	 3.69953947685542E-02 
408	 3.73070448170059E-02 
409	 3.72293342281228E-02 
410	 3.68939804003164E-02 
411	 3.71118213631169E-02 
412	 3.70771522992007E-02 
413	 3.65384350675741E-02 
414	 3.64520208683395E-02 
415	 3.65390968657657E-02 
416	 3.63239347362315E-02 
417	 3.64552056397919E-02 
418	 3.68299502160675E-02 
419	 3.66933315783412E-02 
420	 3.64905491586425E-02 
421	 0.036468276262695 
422	 3.65689578234101E-02 
423	 0.036617164622178 
424	 3.63672936651334E-02 
425	 3.63439645576674E-02 
426	 3.64810398561278E-02 
427	 3.60008619429429E-02 
428	 3.56770443264166E-02 
429	 3.59493864821924E-02 
430	 3.60223668501453E-02 
431	 3.58980791143695E-02 
432	 3.57523450222216E-02 
433	 3.58339510131576E-02 
434	 3.61078145487676E-02 
435	 3.62139071082902E-02 
436	 3.61033848885249E-02 
437	 0.035801879971338 
438	 3.57635814687918E-02 
439	 3.59653880690605E-02 
440	 3.62792217332662E-02 
441	 3.61933253233656E-02 
442	 3.57380639662424E-02 
443	 3.57575037662039E-02 
444	 3.60027446269727E-02 
445	 3.62172782540365E-02 
446	 3.61520001760795E-02 
447	 3.59299392893663E-02 
448	 0.035901162172043 
449	 0.036037579900449 
450	 3.62881300898545E-02 
451	 0.036446330780598 
452	 3.63999497682715E-02 
453	 3.60859803154487E-02 
454	 3.61185042698944E-02 
455	 3.64122985076534E-02 
456	 0.036356890918806 
457	 3.64017432345379E-02 
458	 3.66185280376682E-02 
459	 0.036336094301206 
460	 3.60404062667607E-02 
461	 3.63470069685618E-02 
462	 3.65044015408675E-02 
463	 0.036444999230052 
464	 3.65647230852222E-02 
465	 3.64576540425839E-02 
466	 3.60248166997659E-02 
467	 3.60751758021203E-02 
468	 3.63990735956119E-02 
469	 3.65558754932384E-02 
470	 3.65243533409669E-02 
471	 3.63963139424064E-02 
472	 3.65922086200893E-02 
473	 3.66130968840577E-02 
474	 3.62523842662177E-02 
475	 3.65923655198494E-02 
476	 3.72101844340448E-02 
477	 3.71285738284351E-02 
478	 3.70606609577315E-02 
479	 3.70927070255677E-02 
480	 3.66716627831387E-02 
481	 0.036398345053039 
482	 3.67261878906068E-02 
483	 3.69847316596574E-02 
484	 3.70011335561239E-02 
485	 3.66039183147261E-02 
486	 3.65617621422507E-02 
487	 3.70113844024006E-02 
488	 3.69941076313952E-02 
489	 3.66818211736947E-02 
490	 3.63499410273049E-02 
491	 3.64462219008267E-02 
492	 3.68450537125638E-02 
493	 3.69953989153785E-02 
494	 3.69152182178217E-02 
495	 0.036710166939686 
496	 3.70731644811156E-02 
497	 3.75399955142004E-02 
498	 3.74368709327544E-02 
499	 3.74795823900195E-02 
500	 3.76600366814405E-02 
501	 3.73146770420713E-02 
502	 3.70625025040398E-02 
503	 3.72761651214618E-02 
504	 3.77291477680223E-02 
505	 3.80590148513958E-02 
506	 3.77257563827284E-02 
507	 3.75608121214979E-02 
508	 3.77268178866863E-02 
509	 3.77805687951284E-02 
510	 3.79098511640831E-02 
511	 3.82426356320975E-02 
512	 3.83806863534926E-02 
513	 3.84321613946033E-02 
514	 3.88611202123668E-02 
515	 3.89995766200913E-02 
516	 3.87055516126017E-02 
517	 3.86253117561494E-02 
518	 3.87005795544838E-02 
519	 3.88065105231002E-02 
520	 3.87709896717667E-02 
521	 3.87699623499741E-02 
522	 3.94711698656251E-02 
523	 3.97601258655446E-02 
524	 3.93003757415437E-02 
525	 3.95360986967994E-02 
526	 4.01141801135952E-02 
527	 4.03285197839397E-02 
528	 4.02804257716497E-02 
529	 4.00994746056406E-02 
530	 4.01519392197282E-02 
531	 4.03296404503781E-02 
532	 4.05421557973351E-02 
533	 4.06783815119458E-02 
534	 0.040715595973074 
535	 4.06354752838194E-02 
536	 4.06900649330768E-02 
537	 4.08966705482909E-02 
538	 4.09071182146109E-02 
539	 4.08528264249347E-02 
540	 0.040878766487771 
541	 4.09730917435972E-02 
542	 4.11138733334849E-02 
543	 4.12735523990406E-02 
544	 4.12855837490715E-02 
545	 4.11338624381225E-02 
546	 4.11862881399409E-02 
547	 4.13696114453468E-02 
548	 4.15422204115348E-02 
549	 4.15170495413799E-02 
550	 4.13827837507869E-02 
551	 4.16086657991083E-02 
552	 0.041911599217463 
553	 4.20918427187052E-02 
554	 4.20995209518725E-02 
555	 4.20376880111686E-02 
556	 4.21126359672257E-02 
557	 4.21829229451977E-02 
558	 4.21985404884148E-02 
559	 4.21099400912767E-02 
560	 4.21284696097101E-02 
561	 4.24239422938313E-02 
562	 4.25835202613905E-02 
563	 4.25900048596482E-02 
564	 4.26248587461895E-02 
565	 4.26083762971209E-02 
566	 4.25570824063481E-02 
567	 4.27324708815568E-02 
568	 4.29015705623879E-02 
569	 4.27449809669545E-02 
570	 4.27869377765982E-02 
571	 4.29944023128421E-02 
572	 4.27691402577866E-02 
573	 4.26478720757163E-02 
574	 4.29049080513291E-02 
575	 4.29352855003849E-02 
576	 4.27815957165368E-02 
577	 4.26560930441701E-02 
578	 4.27511069401486E-02 
579	 4.30623829648982E-02 
580	 4.32663435752264E-02 
581	 4.32974741374928E-02 
582	 4.31337779086993E-02 
583	 4.30829300324982E-02 
584	 4.31804503273981E-02 
585	 4.33972430099091E-02 
586	 4.33525480436525E-02 
587	 4.30027015996065E-02 
588	 4.31629298325489E-02 
589	 4.35719776326552E-02 
590	 4.37793017388692E-02 
591	 4.36636509713741E-02 
592	 4.33578011963379E-02 
593	 4.33994961528108E-02 
594	 4.34429189744655E-02 
595	 4.33491209019064E-02 
596	 4.37398125894038E-02 
597	 4.41898099293548E-02 
598	 4.38213372446703E-02 
599	 0.043524240609098 
600	 4.35474526331841E-02 
601	 0.043682797815023 
602	 0.043737438891934 
603	 4.35751813024183E-02 
604	 4.36550155456688E-02 
605	 4.39361858019079E-02 
606	 4.41130524179865E-02 
607	 4.42500242356278E-02 
608	 4.43455086242241E-02 
609	 4.43308397179939E-02 
610	 4.42759474475711E-02 
611	 4.42746412058763E-02 
612	 4.43576450315572E-02 
613	 4.44920694315383E-02 
614	 4.46036929123621E-02 
615	 4.43882151960621E-02 
616	 4.37866729421828E-02 
617	 4.39534137627186E-02 
618	 0.044395206135359 
619	 4.39579494272977E-02 
620	 4.38140805555186E-02 
621	 4.41774513724888E-02 
622	 4.44087062396893E-02 
623	 4.45006032446355E-02 
624	 4.44715184239038E-02 
625	 4.44608503702898E-02 
626	 4.44820348882479E-02 
627	 4.45059230057176E-02 
628	 4.43787305379466E-02 
629	 4.41272374049983E-02 
630	 4.43083192080505E-02 
631	 4.45664172381518E-02 
632	 4.44099836972986E-02 
633	 4.43948837389559E-02 
634	 4.45839213038881E-02 
635	 4.47533263817069E-02 
636	 4.48269387409688E-02 
637	 4.47644138045913E-02 
638	 0.044658462359119 
639	 4.46513266615813E-02 
640	 4.49791811571834E-02 
641	 4.51251172781367E-02 
642	 4.50093398134044E-02 
643	 4.51117725551869E-02 
644	 4.51323838743673E-02 
645	 4.48274757088738E-02 
646	 4.47409202423826E-02 
647	 4.48810276778829E-02 
648	 4.49946472323433E-02 
649	 4.50672161876542E-02 
650	 0.045092030286725 
651	 4.51790626176754E-02 
652	 4.52346294759928E-02 
653	 4.51402192328991E-02 
654	 4.50537252826689E-02 
655	 4.50489858781832E-02 
656	 4.52869680745325E-02 
657	 0.045257497417566 
658	 4.47717510627795E-02 
659	 4.47346599835523E-02 
660	 4.49440582940221E-02 
661	 4.49213562571808E-02 
662	 4.48585809272264E-02 
663	 4.47373837921278E-02 
664	 4.43089661884062E-02 
665	 0.043861267647394 
666	 4.36574036354344E-02 
667	 4.37920103523604E-02 
668	 4.40658685787722E-02 
669	 4.39935849483132E-02 
670	 4.37765222042778E-02 
671	 4.35221088746882E-02 
672	 4.34151595229779E-02 
673	 4.34612068134626E-02 
674	 4.36348428612086E-02 
675	 4.36379118844362E-02 
676	 4.35222375139845E-02 
677	 4.36801379888992E-02 
678	 4.38622174053883E-02 
679	 4.39429585323056E-02 
680	 4.39840980154931E-02 
681	 4.42109539570347E-02 
682	 4.49848243020189E-02 
683	 4.53190380741425E-02 
684	 4.51796362737176E-02 
685	 4.56797982829979E-02 
686	 4.63216571759301E-02 
687	 0.046660326440678 
688	 0.047043104904754 
689	 4.75477116238052E-02 
690	 4.82608607260391E-02 
691	 4.91355363132921E-02 
692	 5.00626133407425E-02 
693	 0.050564443600015 
694	 5.10071198036408E-02 
695	 5.17658440317224E-02 
696	 5.25538682113577E-02 
697	 5.32859201259008E-02 
698	 5.39336173275447E-02 
699	 5.45092618633455E-02 
700	 5.50332515935669E-02 
701	 5.56275088445981E-02 
702	 5.63517343042315E-02 
703	 5.72630435954806E-02 
704	 5.79240150088589E-02 
705	 5.82515263765071E-02 
706	 5.83265779609451E-02 
707	 5.84948469429471E-02 
708	 0.058979488201811 
709	 5.95601318688224E-02 
710	 6.01441455074495E-02 
711	 6.06409792197733E-02 
712	 6.10232084194037E-02 
713	 6.13643028611568E-02 
714	 6.20977723305358E-02 
715	 0.062621095375085 
716	 6.24133548356146E-02 
717	 6.24906381066507E-02 
718	 6.30788060555472E-02 
719	 6.40122236952672E-02 
720	 6.46274608073664E-02 
721	 0.064722285921954 
722	 6.48176031339235E-02 
723	 6.50421367374262E-02 
724	 6.54877491922278E-02 
725	 6.54774234420641E-02 
726	 0.06529346380423 
727	 6.63860491035633E-02 
728	 6.71300357309127E-02 
729	 6.68435739955973E-02 
730	 6.69989072681568E-02 
731	 6.74221887253984E-02 
732	 6.76372211026134E-02 
733	 6.79772561675752E-02 
734	 6.84342657871286E-02 
735	 6.87211570780407E-02 
736	 0.069055935194385 
737	 0.069534360889495 
738	 6.97409675303001E-02 
739	 6.98114443647428E-02 
740	 7.00916466672552E-02 
741	 7.05089330016212E-02 
742	 7.09388998320009E-02 
743	 7.09340634968364E-02 
744	 7.09498089292418E-02 
745	 7.13788779177792E-02 
746	 7.20357271072054E-02 
747	 7.26044792411813E-02 
748	 7.24063547436486E-02 
749	 7.23347352784709E-02 
750	 7.26680719469395E-02 
751	 7.29141035566465E-02 
752	 7.31847662154809E-02 
753	 7.36191515648273E-02 
754	 7.39174149457066E-02 
755	 7.41124306697076E-02 
756	 0.07451456799048 
757	 7.47779826857757E-02 
758	 7.47463773506269E-02 
759	 7.43598699069105E-02 
760	 7.38970378389485E-02 
761	 7.46592513570826E-02 
762	 7.51071077380903E-02 
763	 7.50577614809693E-02 
764	 7.53195791433123E-02 
765	 7.60149267451581E-02 
766	 7.70001533941361E-02 
767	 7.77172013736523E-02 
768	 7.81164434911446E-02 
769	 7.81337779946858E-02 
770	 0.078254303553805 
771	 7.85312902842101E-02 
772	 7.86193214403643E-02 
773	 0.078845060341989 
774	 7.93742524460865E-02 
775	 7.96387703506466E-02 
776	 0.079753725851995 
777	 8.00757870729806E-02 
778	 8.04576993499918E-02 
779	 8.08015831215895E-02 
780	 0.080851163096796 
781	 0.081015831160183 
782	 8.15899837349575E-02 
783	 8.20415034679969E-02 
784	 8.23188811967632E-02 
785	 8.24864318665028E-02 
786	 8.28699260802299E-02 
787	 8.34527655800827E-02 
788	 8.35693409504709E-02 
789	 0.083498994483834 
790	 8.35522413412804E-02 
791	 8.38549726974298E-02 
792	 8.42982707355784E-02 
793	 8.45284451650571E-02 
794	 8.48698200652766E-02 
795	 8.53678045806597E-02 
796	 8.56958862971866E-02 
797	 8.58329090627298E-02 
798	 8.58227807394502E-02 
799	 8.64229291079593E-02 
800	 8.73028533737668E-02 
801	 8.71469003091133E-02 
802	 8.69947644887408E-02 
803	 8.72174168270376E-02 
804	 8.73859585514329E-02 
805	 8.77705766821787E-02 
806	 8.86517353755106E-02 
807	 8.92398655840008E-02 
808	 8.95009435717798E-02 
809	 8.98346852053285E-02 
810	 9.02799344761407E-02 
811	 9.07712571456132E-02 
812	 9.06134724466612E-02 
813	 9.06009317495925E-02 
814	 9.17868145254222E-02 
815	 9.17842506120978E-02 
816	 9.07317290088774E-02 
817	 9.10180175766451E-02 
818	 9.19210803163348E-02 
819	 9.29282435858658E-02 
820	 9.30985809224484E-02 
821	 9.30259304619759E-02 
822	 9.34789277492911E-02 
823	 9.37837827787005E-02 
824	 9.39722369213169E-02 
825	 9.45606135838609E-02 
826	 9.51965988430871E-02 
827	 9.56910373194509E-02 
828	 9.57743943770237E-02 
829	 9.57701129068742E-02 
830	 9.61007440116806E-02 
831	 9.66716194147134E-02 
832	 9.73017102006974E-02 
833	 9.75867050396705E-02 
834	 9.76641597645802E-02 
835	 9.77244563344762E-02 
836	 9.85272146500266E-02 
837	 9.92021333683671E-02 
838	 9.87558237367973E-02 
839	 9.88282686995956E-02 
840	 9.95526983981068E-02 
841	 0.100329340581678 
842	 0.100672915012795 
843	 0.100482797680362 
844	 0.100742728387775 
845	 0.101073792051371 
846	 0.101004885126745 
847	 0.10177771182846 
848	 0.103072084814329 
849	 0.103292602146741 
850	 0.103202133252882 
851	 0.103208067477958 
852	 0.103885966411115 
853	 0.104343133182106 
854	 0.103674883541615 
855	 0.103692705832932 
856	 0.104369403472199 
857	 0.104710640192703 
858	 0.10497938976929 
859	 0.10525196435832 
860	 0.105639880909644 
861	 0.105894675876342 
862	 0.10581552298965 
863	 0.10602580118069 
864	 0.106542405388964 
865	 0.107134338265517 
866	 0.107501529996894 
867	 0.107655850846735 
868	 0.108268788975754 
869	 0.108907047580918 
870	 0.109215007032492 
871	 0.109527561470358 
872	 0.109880427834788 
873	 0.110215017231661 
874	 0.110847985214711 
875	 0.111598141086885 
876	 0.111280246871646 
877	 0.111297030152726 
878	 0.112558023385176 
879	 0.113781953718365 
880	 0.114602946132098 
881	 0.114778715733347 
882	 0.114503959324607 
883	 0.114200109006415 
884	 0.114994038263242 
885	 0.115846220376467 
886	 0.116182224496825 
887	 0.116471541014189 
888	 0.116943676906931 
889	 0.117812267670231 
890	 0.117572897372144 
891	 0.116700973462087 
892	 0.117767507781691 
893	 0.11950946078924 
894	 0.120968762325682 
895	 0.120227310364192 
896	 0.118781794392997 
897	 0.118648869149616 
898	 0.119298951335831 
899	 0.120521694040426 
900	 0.122055840435242 
901	 0.123072691574637 
902	 0.123340766534602 
903	 0.123419836779267 
904	 0.123509432388692 
905	 0.123699505768688 
906	 0.12331004079222 
907	 0.122890051368491 
908	 0.123537276798538 
909	 0.125074303176335 
910	 0.126700736079228 
911	 0.125647836395675 
912	 0.125010319922512 
913	 0.126321984027424 
914	 0.126623060599538 
915	 0.126876943835362 
916	 0.12851931840197 
917	 0.128970527471959 
918	 0.12831445303274 
919	 0.128169431154605 
920	 0.128556954342579 
921	 0.129230117914888 
922	 0.128634768925544 
923	 0.127910196451837 
924	 0.128193906687302 
925	 0.129491409763561 
926	 0.131315827250156 
927	 0.132731994621178 
928	 0.130682576711665 
929	 0.125680134787745 
930	 0.126904359897649 
931	 0.128456909399037 
932	 0.125989825626982 
933	 0.126000980703009 
934	 0.12753511934987 
935	 0.127847429172338 
936	 0.1306784288264 
937	 0.134178795923213 
938	 0.131661782915181 
939	 0.128920233257664 
940	 0.128113013817073 
941	 0.129509998747281 
942	 0.130746235566067 
943	 0.130127797205177 
944	 0.129052648777471 
945	 0.127894834937595 
946	 0.126939226244013 
947	 0.125109400675781 
948	 0.12388971380314 
949	 0.129306051798385 
950	 0.130449504109326 
951	 0.124949345239506 
952	 0.127361106764449 
953	 0.131154731887944 
954	 0.1299341839237 
955	 0.129764874959288 
956	 0.130015627320494 
957	 0.127756084043555 
958	 0.128354667713192 
959	 0.131365529205783 
960	 0.130871072907523 
961	 0.128463846032012 
962	 0.126159418601512 
963	 0.129917780876261 
964	 0.134716952810149 
965	 0.135496751583369 
966	 0.137309389533297 
967	 0.137786249404214 
968	 0.130167963627201 
969	 0.130345341791497 
970	 0.138197897535283 
971	 0.135794389029301 
972	 0.134205781274237 
973	 0.138229569886519 
974	 0.136102925572882 
975	 0.134474976620794 
976	 0.141079315106441 
977	 0.141263457805398 
978	 0.136496056869977 
979	 0.136032984411013 
980	 0.134911701556629 
981	 0.133498051388505 
982	 0.138221722404891 
983	 0.140921754814054 
984	 0.138593640136225 
985	 0.142611350150936 
986	 0.147106719078706 
987	 0.145194832916861 
988	 0.14168483145003 
989	 0.139988642733385 
990	 0.145114296815566 
991	 0.146454127780936 
992	 0.143321008033282 
993	 0.14536161611699 
994	 0.147141804417647 
995	 0.145943901718114 
996	 0.142867291353229 
997	 0.142544497043794 
998	 0.148327563579204 
999	 0.148360398533064 
1000	 0.145620818266295 
1001	 0.148923592560084 
1002	 0.149265137490598 
1003	 0.146719864702227 
1004	 0.148979255753916 
1005	 0.151500695830955 
1006	 0.152043929934423 
1007	 0.14949401118943 
1008	 0.147654004330396 
1009	 0.149196842588401 
1010	 0.149608951415448 
1011	 0.149479720938818 
1012	 0.150279234837027 
1013	 0.146257430344822 
1014	 0.141398858283483 
1015	 0.148959529392337 
1016	 0.149117977320108 
1017	 0.140037730937287 
1018	 0.140438470486595 
1019	 0.147102313736557 
1020	 0.155708861618986 
1021	 0.1535353641408 
1022	 0.150750159049385 
1023	 0.157050718938259 
1024	 0.153824493603412 
1025	 0.148315777822745 
1026	 0.157201372375293 
1027	 0.161044685918106 
1028	 0.156987421591362 
1029	 0.149855607248061 
1030	 0.153000209099748 
1031	 0.16511814138826 
1032	 0.157445470262583 
1033	 0.151934454815219 
1034	 0.159688152028168 
1035	 0.151692723043302 
1036	 0.144643692072227 
1037	 0.157662520909451 
1038	 0.164373369957633 
1039	 0.167940068891125 
1040	 0.180715316368733 
1041	 0.17174793267597 
1042	 0.146496484106274 
1043	 0.144672472974274 
1044	 0.152385122703341 
1045	 0.160360560324671 
1046	 0.147998309588454 
1047	 0.148128095562397 
1048	 0.173291694776712 
1049	 0.167184716158088 
1050	 0.155788967890653 
1051	 0.166074003242218 
1052	 0.161458735811606 
1053	 0.149767704993914 
1054	 0.151439307189784 
1055	 0.168802349600799 
1056	 0.183208102927758 
1057	 0.150358375596838 
1058	 0.124646179644494 
1059	 0.123530774729139 
1060	 0.144912351132144 
1061	 0.164737324411928 
1062	 0.170762022588269 
1063	 0.174080532827775 
1064	 0.162621907536721 
1065	 0.134567933746064 
1066	 0.141880925349567 
1067	 0.163418813371817 
1068	 0.169158616523029 
1069	 0.168399792306541 
1070	 0.157663005725747 
1071	 0.131678484626927 
1072	 0.129687140556706 
1073	 0.147064183366646 
1074	 0.147805308601995 
1075	 0.134402485396162 
