Wavelength	SHSI00226.asd
325	 9.55084340657188E-02 
326	 9.02790267640144E-02 
327	 0.076198692116503 
328	 8.92430058861182E-02 
329	 9.53572850257397E-02 
330	 8.50353230774931E-02 
331	 0.080208806945088 
332	 8.09625313575015E-02 
333	 8.52773024157312E-02 
334	 8.36956147085089E-02 
335	 8.04885179051102E-02 
336	 9.08326198521127E-02 
337	 9.37378194560782E-02 
338	 8.57653847489616E-02 
339	 8.15252916090109E-02 
340	 0.083201521499806 
341	 9.05827523644486E-02 
342	 8.94787876633219E-02 
343	 8.48826867694393E-02 
344	 9.06014834838216E-02 
345	 9.39029013977705E-02 
346	 9.26708232942366E-02 
347	 9.18094946310229E-02 
348	 9.35517545841619E-02 
349	 0.098224546443338 
350	 9.70103185195074E-02 
351	 9.36454983925664E-02 
352	 9.57255514991298E-02 
353	 9.58506721664144E-02 
354	 9.39005491098078E-02 
355	 9.62219485944298E-02 
356	 9.87535502024444E-02 
357	 9.89683831874186E-02 
358	 9.84166203794102E-02 
359	 9.75408943970508E-02 
360	 9.66425764335307E-02 
361	 9.71307528833595E-02 
362	 0.098682636636277 
363	 9.92369501260213E-02 
364	 9.91770758924751E-02 
365	 9.87417353526696E-02 
366	 9.76281463116714E-02 
367	 9.78252646131875E-02 
368	 0.101976941204219 
369	 0.104204300594606 
370	 0.103611608148247 
371	 0.101896765091141 
372	 0.102895207680408 
373	 0.107439088079504 
374	 0.105549578082494 
375	 0.100630552608834 
376	 9.87637863133163E-02 
377	 9.91987523714466E-02 
378	 0.100962944651275 
379	 0.101311385952517 
380	 0.10120575116825 
381	 0.101130014433492 
382	 0.101416092083874 
383	 0.100881050734282 
384	 9.80196822444377E-02 
385	 9.71731717590251E-02 
386	 0.09839469005641 
387	 9.87077251007951E-02 
388	 0.09756746228167 
389	 9.55401263509389E-02 
390	 9.74627537237281E-02 
391	 0.10128170509267 
392	 0.104011228389086 
393	 0.103977701733759 
394	 0.101236000293018 
395	 9.70361673800451E-02 
396	 9.48623440125181E-02 
397	 9.54977464651502E-02 
398	 9.49861839528195E-02 
399	 9.42208403240351E-02 
400	 9.43943610632454E-02 
401	 0.094863357873033 
402	 9.57419355910986E-02 
403	 0.097900870744536 
404	 0.099039189171537 
405	 9.84716572672178E-02 
406	 9.86008787293504E-02 
407	 9.88606537168571E-02 
408	 9.83021321584486E-02 
409	 9.80326492895688E-02 
410	 9.81550517729376E-02 
411	 9.81925590959304E-02 
412	 9.84482519971175E-02 
413	 9.88727060065824E-02 
414	 9.81725254024134E-02 
415	 9.76524492448413E-02 
416	 9.91054782355512E-02 
417	 9.94884101294557E-02 
418	 9.88363549099577E-02 
419	 9.97258568370106E-02 
420	 0.100093253025655 
421	 9.91368301879927E-02 
422	 9.94975321369072E-02 
423	 0.100505797190635 
424	 0.100783681709836 
425	 0.100484835713249 
426	 0.100145369183556 
427	 0.101717611111267 
428	 0.102822482176988 
429	 0.101997722114609 
430	 0.10111585615934 
431	 0.100511506139283 
432	 0.10028470217523 
433	 9.98376457294521E-02 
434	 9.92518392059944E-02 
435	 9.93133599944432E-02 
436	 9.99323737643601E-02 
437	 0.10095770445622 
438	 0.101804407899158 
439	 0.102209984536866 
440	 0.101866496120621 
441	 0.101743379139806 
442	 0.102091915647679 
443	 0.102443090537183 
444	 0.10297774390654 
445	 0.103788126853165 
446	 0.104116721877586 
447	 0.104052387858862 
448	 0.103991165552083 
449	 0.104508010890612 
450	 0.105588035179844 
451	 0.105907548077943 
452	 0.1063624302657 
453	 0.107831449949127 
454	 0.108523404758992 
455	 0.108422542015256 
456	 0.108494801834756 
457	 0.108602548197249 
458	 0.108746714105011 
459	 0.108919651292183 
460	 0.10934357807774 
461	 0.110239173387868 
462	 0.109767704245143 
463	 0.108557410996662 
464	 0.109917642102756 
465	 0.111052700506056 
466	 0.110721695941902 
467	 0.111238648187038 
468	 0.111942197425137 
469	 0.111534697926948 
470	 0.110839272848548 
471	 0.11046278164612 
472	 0.111615611829733 
473	 0.112961352335785 
474	 0.113539457731481 
475	 0.113077861752773 
476	 0.112452424943137 
477	 0.113262722089169 
478	 0.113625939524457 
479	 0.113271734774753 
480	 0.113411186766269 
481	 0.114004167064203 
482	 0.114970167625637 
483	 0.116026652972894 
484	 0.116921529220178 
485	 0.11731466858347 
486	 0.117030020142766 
487	 0.116228656602207 
488	 0.116063721987944 
489	 0.115877445640353 
490	 0.115012949199617 
491	 0.115403397253563 
492	 0.116613118199129 
493	 0.116469760279499 
494	 0.116314700124726 
495	 0.116702589285279 
496	 0.117261730647767 
497	 0.118069490014767 
498	 0.119263613435264 
499	 0.119913843537954 
500	 0.120056252603204 
501	 0.120740451751778 
502	 0.121266275372661 
503	 0.121242864360569 
504	 0.121012705459291 
505	 0.121048593232505 
506	 0.122019551056728 
507	 0.123076328317113 
508	 0.123987075033258 
509	 0.124922271882295 
510	 0.125971886846047 
511	 0.127160426525124 
512	 0.127862984066729 
513	 0.128478174678169 
514	 0.130228858879939 
515	 0.131729080582798 
516	 0.132478607174115 
517	 0.132900666145368 
518	 0.133130054248272 
519	 0.133301292336911 
520	 0.133604450851894 
521	 0.134242523574503 
522	 0.135661204931131 
523	 0.136905044991297 
524	 0.137637074928854 
525	 0.138912325768602 
526	 0.140210867436427 
527	 0.140649204770089 
528	 0.14095612165449 
529	 0.141455933385182 
530	 0.142489922283332 
531	 0.143766231938052 
532	 0.14500322429426 
533	 0.145591463146147 
534	 0.145828792756665 
535	 0.146468384081662 
536	 0.147131329768195 
537	 0.147828637818697 
538	 0.149104757202108 
539	 0.150281371667775 
540	 0.150711775994581 
541	 0.15117914844161 
542	 0.15178912896003 
543	 0.15230926129226 
544	 0.153218669319461 
545	 0.154528709278063 
546	 0.155035728272261 
547	 0.155196150463318 
548	 0.15574466287907 
549	 0.156446620963118 
550	 0.157206558584306 
551	 0.157876328192609 
552	 0.158424892043605 
553	 0.158894206575282 
554	 0.159808656199184 
555	 0.160956702579484 
556	 0.161861603180294 
557	 0.162333809377925 
558	 0.162350825740813 
559	 0.162173839579096 
560	 0.162284089287062 
561	 0.163074553949267 
562	 0.163943651063041 
563	 0.164722715671286 
564	 0.165402839640958 
565	 0.165681909592582 
566	 0.165551881249269 
567	 0.165747959365596 
568	 0.166257254989667 
569	 0.16696251772387 
570	 0.167282265434122 
571	 0.167210735258969 
572	 0.167303766346597 
573	 0.167476013140255 
574	 0.167696484980894 
575	 0.168061393203833 
576	 0.168439649599632 
577	 0.168554366447383 
578	 0.168951424549382 
579	 0.169618297387769 
580	 0.169663322645605 
581	 0.169857386961551 
582	 0.170815982317715 
583	 0.171016434292957 
584	 0.170702573358949 
585	 0.171169873562387 
586	 0.171961170388046 
587	 0.172788115010218 
588	 0.1729269496326 
589	 0.172827688785668 
590	 0.1731660522565 
591	 0.17327254145146 
592	 0.173143629963858 
593	 0.173216607032872 
594	 0.17350913144895 
595	 0.173973893787424 
596	 0.174060354561804 
597	 0.174081924795621 
598	 0.174754673718046 
599	 0.17498026245869 
600	 0.174733677232357 
601	 0.175540961348065 
602	 0.176135965653867 
603	 0.17548099869007 
604	 0.17553028625617 
605	 0.176316431609581 
606	 0.177067699412729 
607	 0.177525868008852 
608	 0.177508671404729 
609	 0.177009661757296 
610	 0.176523639494323 
611	 0.176648925972426 
612	 0.176955631571213 
613	 0.177143295240222 
614	 0.176594278883069 
615	 0.176155238603579 
616	 0.176265770840624 
617	 0.175853705915226 
618	 0.175300144206218 
619	 0.175483106247645 
620	 0.175862202886794 
621	 0.176217064186319 
622	 0.176405783726142 
623	 0.176327619624252 
624	 0.175955204773004 
625	 0.176089442935268 
626	 0.176604183078444 
627	 0.176648885904563 
628	 0.177302274629681 
629	 0.178666704989397 
630	 0.178810614084114 
631	 0.178322293498762 
632	 0.178149237540698 
633	 0.17834694739487 
634	 0.178846952689632 
635	 0.179326895196359 
636	 0.179524347127844 
637	 0.17937697028378 
638	 0.179818226862432 
639	 0.180503433006989 
640	 0.180581691596243 
641	 0.180867491465104 
642	 0.181367743561159 
643	 0.181048720970846 
644	 0.180593350985385 
645	 0.180637519206259 
646	 0.181026868292288 
647	 0.181533003816763 
648	 0.181687081354739 
649	 0.181531457743686 
650	 0.181119449796731 
651	 0.180680062074954 
652	 0.18042723787146 
653	 0.180568364383104 
654	 0.180555521820778 
655	 0.180135373970051 
656	 0.17917508747694 
657	 0.177558939350931 
658	 0.175581539123445 
659	 0.174990331268015 
660	 0.174893578716753 
661	 0.17361033705436 
662	 0.172218054649827 
663	 0.1709629171094 
664	 0.169606160051249 
665	 0.168217598114157 
666	 0.166871178519599 
667	 0.16570109912512 
668	 0.164763508409623 
669	 0.164174081731338 
670	 0.163312834680536 
671	 0.16214134067729 
672	 0.161876914770999 
673	 0.16197283510196 
674	 0.161704440820492 
675	 0.16194757677727 
676	 0.162583973403646 
677	 0.162656384708501 
678	 0.162901703178497 
679	 0.163733057758341 
680	 0.165020017039228 
681	 0.166493109514029 
682	 0.167735091670568 
683	 0.169875730678129 
684	 0.172875416363173 
685	 0.175331994630738 
686	 0.178218761317657 
687	 0.182293007087964 
688	 0.186159024698763 
689	 0.189586118104835 
690	 0.193493226751287 
691	 0.197833896949002 
692	 0.202639027820833 
693	 0.207587130178586 
694	 0.212637913175043 
695	 0.217527649937958 
696	 0.221895528408184 
697	 0.226107541960058 
698	 0.231689177975453 
699	 0.236350768842141 
700	 0.239226296078746 
701	 0.243254007051812 
702	 0.247617841310368 
703	 0.250780671983826 
704	 0.25437254890621 
705	 0.25836893305494 
706	 0.261139731070027 
707	 0.263842988647687 
708	 0.267108749104753 
709	 0.269631713129267 
710	 0.27171859311497 
711	 0.274249244927832 
712	 0.276576333898353 
713	 0.278632086175739 
714	 0.280972725178891 
715	 0.283457177195919 
716	 0.286042439708056 
717	 0.288115883701763 
718	 0.289928223844537 
719	 0.292620538160001 
720	 0.294285025475896 
721	 0.294727217232173 
722	 0.296568084765489 
723	 0.298944389947249 
724	 0.300641332941033 
725	 0.301887651379731 
726	 0.302847810849461 
727	 0.304245686941191 
728	 0.305611653461513 
729	 0.306815554682947 
730	 0.308697560415796 
731	 0.310486964887533 
732	 0.311052493096051 
733	 0.311764142877744 
734	 0.31288906184026 
735	 0.314133869132983 
736	 0.315126337476933 
737	 0.315686640827804 
738	 0.317020282070449 
739	 0.318523181991444 
740	 0.318708491068651 
741	 0.319376111514187 
742	 0.320841863897562 
743	 0.321972870586829 
744	 0.322807345902685 
745	 0.323436081689825 
746	 0.324096849299258 
747	 0.324891937083861 
748	 0.325893643314648 
749	 0.327193807755411 
750	 0.328689069834538 
751	 0.329746574579937 
752	 0.330604214064842 
753	 0.331555484443781 
754	 0.332165227482722 
755	 0.332625308676605 
756	 0.334001945974715 
757	 0.333639953778365 
758	 0.330875415813552 
759	 0.331542484865136 
760	 0.336808457681587 
761	 0.342506288856523 
762	 0.344718725892565 
763	 0.344310868105411 
764	 0.346101728119482 
765	 0.347271187518078 
766	 0.347038269093517 
767	 0.346618271733024 
768	 0.346445150692431 
769	 0.346913150827195 
770	 0.347360976562551 
771	 0.347798346049233 
772	 0.348868607136841 
773	 0.350040271371626 
774	 0.35096476343522 
775	 0.351917978660689 
776	 0.35294152604259 
777	 0.354076519260296 
778	 0.355076143520003 
779	 0.355900061434374 
780	 0.356793879326746 
781	 0.35754459410835 
782	 0.357996935674106 
783	 0.358288703868557 
784	 0.358858305613743 
785	 0.360643641687855 
786	 0.361617228845565 
787	 0.361530659817393 
788	 0.362773759887033 
789	 0.364315182753001 
790	 0.365093236721135 
791	 0.365674785966422 
792	 0.366306654372685 
793	 0.367351090347794 
794	 0.368351473376615 
795	 0.369180782662653 
796	 0.370176135699977 
797	 0.370879858497124 
798	 0.370900987061844 
799	 0.371582061163346 
800	 0.372886830542691 
801	 0.373935564785816 
802	 0.375039284664281 
803	 0.376163102975353 
804	 0.376750727313691 
805	 0.376955044073302 
806	 0.377049345982037 
807	 0.378235343113371 
808	 0.380094154826225 
809	 0.380688384192835 
810	 0.381166276314165 
811	 0.381892221067663 
812	 0.381918873928669 
813	 0.382141376729778 
814	 0.383811140015731 
815	 0.386312887597401 
816	 0.389115273946371 
817	 0.391379935724351 
818	 0.392748810667952 
819	 0.392978227284213 
820	 0.391496488658404 
821	 0.390557646378226 
822	 0.392746457902017 
823	 0.395981652009139 
824	 0.398404950046478 
825	 0.396675465614562 
826	 0.39543722299408 
827	 0.396593078213537 
828	 0.398539119757575 
829	 0.400039540514121 
830	 0.399853256852763 
831	 0.401493340954223 
832	 0.404471748875235 
833	 0.405323404243272 
834	 0.405036783375654 
835	 0.404238134672601 
836	 0.403937379644885 
837	 0.404440304240905 
838	 0.40591367046358 
839	 0.407557223440257 
840	 0.408691143968381 
841	 0.407889107595287 
842	 0.408114950036004 
843	 0.410116845806482 
844	 0.410024420154253 
845	 0.409197418424344 
846	 0.409490189923999 
847	 0.409907897702588 
848	 0.410232138216056 
849	 0.410343446269318 
850	 0.410439721255198 
851	 0.410865816982638 
852	 0.412793501072699 
853	 0.415301904659098 
854	 0.417246101069238 
855	 0.418384141427276 
856	 0.418446531029762 
857	 0.416822249706183 
858	 0.416074761209255 
859	 0.416908357161144 
860	 0.417598024008241 
861	 0.417828196662704 
862	 0.417509889720442 
863	 0.418492619245476 
864	 0.420343703131677 
865	 0.421216476063579 
866	 0.422018602119944 
867	 0.423088464424381 
868	 0.424780134626459 
869	 0.426019701663075 
870	 0.4260110881574 
871	 0.425622779920898 
872	 0.425673768980785 
873	 0.427397510312477 
874	 0.428926595619441 
875	 0.429965399685978 
876	 0.43195286604618 
877	 0.433761993581922 
878	 0.43478273763498 
879	 0.436978680855214 
880	 0.439269503299973 
881	 0.439534619048556 
882	 0.439713057260687 
883	 0.440444629423489 
884	 0.441836223279946 
885	 0.443735540476595 
886	 0.445731305046121 
887	 0.445967926471492 
888	 0.445562051586024 
889	 0.446236946586947 
890	 0.446377955723282 
891	 0.446025321106081 
892	 0.446350344000081 
893	 0.446998997922625 
894	 0.447947811448672 
895	 0.449732861635232 
896	 0.452092306109997 
897	 0.454632776779273 
898	 0.457721161050368 
899	 0.461165567406346 
900	 0.464715115690211 
901	 0.465928307221495 
902	 0.464446714137928 
903	 0.462550185704195 
904	 0.461117960616871 
905	 0.46095141743304 
906	 0.46315709724603 
907	 0.466372507878875 
908	 0.467973971543636 
909	 0.467460003310641 
910	 0.465994686871633 
911	 0.468915307386376 
912	 0.470519396927922 
913	 0.468594769443468 
914	 0.47194604483467 
915	 0.476204776545539 
916	 0.475184080883966 
917	 0.476605093562209 
918	 0.479169153463434 
919	 0.47471338159572 
920	 0.472647848414201 
921	 0.474908314638594 
922	 0.473190839619853 
923	 0.470833247351904 
924	 0.470758975291711 
925	 0.467936071871459 
926	 0.46359402373969 
927	 0.46214438619049 
928	 0.461862775104854 
929	 0.462966682675349 
930	 0.468889678133496 
931	 0.472550709350408 
932	 0.469215504133537 
933	 0.476130974189836 
934	 0.48791892380015 
935	 0.492613058247604 
936	 0.494905694145171 
937	 0.492326067425324 
938	 0.475848219137123 
939	 0.467499120679506 
940	 0.471428721152032 
941	 0.472663619073793 
942	 0.472329158925457 
943	 0.471624160015718 
944	 0.469851621854052 
945	 0.472699323075317 
946	 0.489026271472555 
947	 0.496320156993169 
948	 0.491199469670425 
949	 0.485157728749192 
950	 0.477284493813804 
951	 0.469898633604275 
952	 0.47460028826489 
953	 0.481223559402943 
954	 0.480398964614693 
955	 0.477727672318934 
956	 0.47689487112154 
957	 0.482913937924197 
958	 0.484569826668349 
959	 0.481386572803428 
960	 0.482100216653212 
961	 0.485159258451689 
962	 0.488102639731783 
963	 0.482720183661521 
964	 0.476960762034404 
965	 0.478657930402289 
966	 0.48260660056215 
967	 0.483740820127785 
968	 0.473777007176092 
969	 0.471909285897802 
970	 0.479146323120101 
971	 0.477834551487503 
972	 0.476247438097417 
973	 0.479264150740178 
974	 0.48748233518359 
975	 0.49338053250039 
976	 0.489260145711043 
977	 0.486810040452683 
978	 0.486375503378308 
979	 0.483155414595553 
980	 0.483464312900744 
981	 0.487295518187655 
982	 0.487596944157297 
983	 0.48735146843162 
984	 0.487901272973441 
985	 0.486254694538621 
986	 0.487047291149438 
987	 0.494633003912439 
988	 0.496940478014588 
989	 0.493648167359647 
990	 0.48857656664756 
991	 0.489360108959967 
992	 0.495252732676529 
993	 0.494989122467259 
994	 0.489766081493071 
995	 0.482540130058456 
996	 0.486921507147153 
997	 0.489806003907662 
998	 0.47913135096312 
999	 0.479978321578739 
1000	 0.4885948067393 
1001	 0.491157394892361 
1002	 0.496149332915574 
1003	 0.5023938428232 
1004	 0.499792018944201 
1005	 0.501826376044167 
1006	 0.509470904068595 
1007	 0.497865420606427 
1008	 0.488329388968225 
1009	 0.49602173978306 
1010	 0.491945106199708 
1011	 0.485754340056361 
1012	 0.495558149063278 
1013	 0.502844917267543 
1014	 0.503770558290286 
1015	 0.498709374756759 
1016	 0.492331056165819 
1017	 0.488295360380817 
1018	 0.492534526374055 
1019	 0.500538175112329 
1020	 0.507824846509937 
1021	 0.506121513143211 
1022	 0.499734629967583 
1023	 0.495180251716481 
1024	 0.50589398266511 
1025	 0.516726765016278 
1026	 0.500071783637557 
1027	 0.486864839423226 
1028	 0.485247824343504 
1029	 0.494293634656245 
1030	 0.496476797469885 
1031	 0.490979276288217 
1032	 0.507435836584219 
1033	 0.519234462011137 
1034	 0.510957832320012 
1035	 0.504100848600806 
1036	 0.500010910074109 
1037	 0.49827222965576 
1038	 0.497694235605627 
1039	 0.496766973726332 
1040	 0.493552993025196 
1041	 0.501486660002665 
1042	 0.51296615390931 
1043	 0.494540347707494 
1044	 0.488503520708374 
1045	 0.503363143708349 
1046	 0.506379804309387 
1047	 0.496283194411454 
1048	 0.477837730434962 
1049	 0.481519966906523 
1050	 0.494473734711454 
1051	 0.49958707421106 
1052	 0.49608161685271 
1053	 0.493314732199373 
1054	 0.50501214581369 
1055	 0.494813016973367 
1056	 0.47031342984346 
1057	 0.46933640363251 
1058	 0.479457250708499 
1059	 0.48950915458131 
1060	 0.472633634820619 
1061	 0.469747589263872 
1062	 0.493091109727874 
1063	 0.494029357564156 
1064	 0.483657064980087 
1065	 0.471794063152915 
1066	 0.458678194356687 
1067	 0.441667130517862 
1068	 0.417312951363413 
1069	 0.423778194542245 
1070	 0.461122515552639 
1071	 0.522158269154673 
1072	 0.527110619078842 
1073	 0.487792575246758 
1074	 0.488514772436909 
1075	 0.484915577144568 
