Wavelength	SHSI00371.asd
325	 5.87614768847717E-02 
326	 6.60361166656076E-02 
327	 6.86833995691389E-02 
328	 6.80353812408695E-02 
329	 0.069992875083215 
330	 7.49010738465923E-02 
331	 7.29614409952993E-02 
332	 6.82635500458958E-02 
333	 6.54773833169728E-02 
334	 6.76832138770853E-02 
335	 7.06566944543684E-02 
336	 6.25041284190816E-02 
337	 6.08033983212172E-02 
338	 6.76997126069602E-02 
339	 6.70859349665679E-02 
340	 6.44907486580513E-02 
341	 0.064636598127392 
342	 6.05536339396678E-02 
343	 5.63635258971323E-02 
344	 6.14228028635227E-02 
345	 6.59112706883408E-02 
346	 6.74399710522902E-02 
347	 6.86427344396534E-02 
348	 6.80764511165981E-02 
349	 0.065404225836505 
350	 6.63587411059969E-02 
351	 6.76551940067119E-02 
352	 6.28931716254295E-02 
353	 6.13497751197545E-02 
354	 6.41716980984703E-02 
355	 6.66542609945858E-02 
356	 6.82626965275163E-02 
357	 6.86021191736216E-02 
358	 6.70868846410339E-02 
359	 6.50476191620153E-02 
360	 6.44302849647142E-02 
361	 6.37436547952168E-02 
362	 6.29819419753927E-02 
363	 6.32072533951269E-02 
364	 0.063753196949181 
365	 0.064129347054623 
366	 6.38777834628122E-02 
367	 6.31570758596164E-02 
368	 6.22277304937917E-02 
369	 6.22604005214168E-02 
370	 6.31649798298753E-02 
371	 6.36271204616591E-02 
372	 6.42850837143637E-02 
373	 6.51838104348667E-02 
374	 6.45260053612741E-02 
375	 6.31177892759583E-02 
376	 0.062296542227369 
377	 6.11825897653799E-02 
378	 6.04129910977733E-02 
379	 6.26128219495744E-02 
380	 6.42845418862776E-02 
381	 6.38220125650964E-02 
382	 0.06358157726361 
383	 6.32065305889881E-02 
384	 6.19640467041161E-02 
385	 6.20838750709229E-02 
386	 6.32223031428037E-02 
387	 6.26646189695463E-02 
388	 6.18615930741762E-02 
389	 6.15878129282862E-02 
390	 6.23528718230895E-02 
391	 6.29010029077269E-02 
392	 6.18040211319628E-02 
393	 6.14190425735845E-02 
394	 6.19960986778918E-02 
395	 0.063160306990859 
396	 6.19948397208185E-02 
397	 5.81402798421403E-02 
398	 5.65073789486063E-02 
399	 5.62711294699184E-02 
400	 5.60506779970374E-02 
401	 5.72952892587276E-02 
402	 5.91791297950518E-02 
403	 5.94396955603074E-02 
404	 5.90324402860995E-02 
405	 5.85260637474995E-02 
406	 5.88165963758565E-02 
407	 5.94245100451129E-02 
408	 0.059652091735193 
409	 5.94588842137722E-02 
410	 5.89781922794781E-02 
411	 5.85521222564564E-02 
412	 5.84903774902457E-02 
413	 5.88567332908308E-02 
414	 5.90490662887749E-02 
415	 0.05904080257352 
416	 0.058886436394575 
417	 5.91383121380599E-02 
418	 5.95767036381371E-02 
419	 5.90691492720453E-02 
420	 0.058637746524779 
421	 0.058824746818876 
422	 5.92276520469678E-02 
423	 5.95841978772853E-02 
424	 5.96020662695107E-02 
425	 5.95474404627106E-02 
426	 5.96474962296196E-02 
427	 6.04919359134807E-02 
428	 6.10481879666315E-02 
429	 6.06764873891202E-02 
430	 6.01287133626773E-02 
431	 0.059572426500433 
432	 5.90892521457311E-02 
433	 5.87462553481491E-02 
434	 5.85833997757488E-02 
435	 5.85383001498401E-02 
436	 5.89946855976986E-02 
437	 6.00481756187122E-02 
438	 6.02356384194939E-02 
439	 5.98097000834203E-02 
440	 5.96065612673588E-02 
441	 5.96243965873444E-02 
442	 5.98382125665835E-02 
443	 5.99970107685575E-02 
444	 6.00818422268736E-02 
445	 6.00847860920869E-02 
446	 5.99614505474276E-02 
447	 5.98797709096363E-02 
448	 0.060232432985536 
449	 6.04702364645572E-02 
450	 6.04682544250457E-02 
451	 6.06240646810314E-02 
452	 6.08585928339123E-02 
453	 0.061061216658184 
454	 6.10464603408764E-02 
455	 6.08797692700129E-02 
456	 6.08468696977175E-02 
457	 6.08005998978715E-02 
458	 6.07250390980347E-02 
459	 6.08330387570929E-02 
460	 6.09843720966593E-02 
461	 6.10010522686394E-02 
462	 6.11989708284804E-02 
463	 6.14992128803187E-02 
464	 6.14304593013075E-02 
465	 6.14529444406226E-02 
466	 6.17390596138732E-02 
467	 6.17245572460398E-02 
468	 6.15359544080517E-02 
469	 0.0614471528245 
470	 6.14920376750223E-02 
471	 6.16100441758672E-02 
472	 6.15427074381466E-02 
473	 6.14097463807629E-02 
474	 6.13073890413999E-02 
475	 6.13288625897793E-02 
476	 6.14454082735979E-02 
477	 6.16082847149962E-02 
478	 6.14201348969112E-02 
479	 6.09766627112802E-02 
480	 6.11675173014112E-02 
481	 6.14859225646796E-02 
482	 6.15271777356932E-02 
483	 6.17723025730536E-02 
484	 6.21316699194403E-02 
485	 6.22648071423329E-02 
486	 6.20092584501378E-02 
487	 6.15001290636754E-02 
488	 6.18179520227069E-02 
489	 6.21447046853316E-02 
490	 0.061634250551245 
491	 6.13662600198917E-02 
492	 6.14457321879246E-02 
493	 6.15583362870231E-02 
494	 6.17165947719269E-02 
495	 6.18734900740867E-02 
496	 6.17881790478004E-02 
497	 6.17960571491597E-02 
498	 6.23502853714203E-02 
499	 6.25278672060856E-02 
500	 6.23109095586035E-02 
501	 6.24631293710925E-02 
502	 6.26960460788123E-02 
503	 6.28381700693189E-02 
504	 6.29620297060656E-02 
505	 6.31205707983534E-02 
506	 6.34077217870141E-02 
507	 6.34374300269399E-02 
508	 6.32757599305161E-02 
509	 6.36078516911168E-02 
510	 6.41533499441611E-02 
511	 6.46527599272523E-02 
512	 6.49924712941983E-02 
513	 6.52071603036975E-02 
514	 6.54390713634054E-02 
515	 6.56807011048679E-02 
516	 6.58922640873508E-02 
517	 6.58069361876923E-02 
518	 6.58258228155947E-02 
519	 6.63596890723077E-02 
520	 6.65213713430984E-02 
521	 6.64131525918772E-02 
522	 6.67607981028248E-02 
523	 6.73992310923821E-02 
524	 6.81991338152766E-02 
525	 6.88268023158356E-02 
526	 0.069174467048469 
527	 6.91587351584241E-02 
528	 0.068986682638804 
529	 6.88956705405199E-02 
530	 6.93843970849596E-02 
531	 6.99675905735168E-02 
532	 7.03101956198693E-02 
533	 7.04931202705911E-02 
534	 7.06606799213656E-02 
535	 7.10949985868085E-02 
536	 7.13376450757185E-02 
537	 7.13838413210227E-02 
538	 7.19671764771222E-02 
539	 0.072452001128024 
540	 0.072230131634252 
541	 0.072161890809661 
542	 7.23815734549252E-02 
543	 7.27993196543366E-02 
544	 0.072965470931872 
545	 7.28107267208947E-02 
546	 7.32918556951333E-02 
547	 7.38128710207085E-02 
548	 7.34986033662526E-02 
549	 0.073414831395491 
550	 7.36861631619311E-02 
551	 7.37496412588704E-02 
552	 7.38979942096151E-02 
553	 7.42628542493101E-02 
554	 7.43356324284859E-02 
555	 7.43000938891807E-02 
556	 7.46517147401474E-02 
557	 7.47501190943268E-02 
558	 7.45150485447946E-02 
559	 7.45208171801063E-02 
560	 7.48033821671881E-02 
561	 7.53206376624883E-02 
562	 7.54090925079546E-02 
563	 7.51058588731521E-02 
564	 7.47945895377982E-02 
565	 7.48028447210461E-02 
566	 7.51912658080157E-02 
567	 7.52693364602515E-02 
568	 7.51316863471121E-02 
569	 7.49871671174915E-02 
570	 7.49326173537456E-02 
571	 7.49334062913236E-02 
572	 7.47207179847374E-02 
573	 0.074630089443523 
574	 7.48133412729274E-02 
575	 7.47532209905548E-02 
576	 7.44738484914598E-02 
577	 7.41365707047108E-02 
578	 7.39985761772223E-02 
579	 7.41026274668148E-02 
580	 0.074166357072149 
581	 7.42224894627264E-02 
582	 7.42953188435676E-02 
583	 7.41941822506913E-02 
584	 0.074003120156233 
585	 7.40427617912182E-02 
586	 7.39649994279486E-02 
587	 7.36903921534615E-02 
588	 7.36119404270179E-02 
589	 7.37320360075754E-02 
590	 7.39938861882688E-02 
591	 7.38688153283169E-02 
592	 7.34362942198658E-02 
593	 7.33996413295533E-02 
594	 7.33242373285353E-02 
595	 7.30387619841366E-02 
596	 7.33086159695985E-02 
597	 7.37414260799056E-02 
598	 7.34877172459136E-02 
599	 7.32139716331926E-02 
600	 7.31052311228342E-02 
601	 7.29988312649108E-02 
602	 7.30170016118391E-02 
603	 7.32303205472859E-02 
604	 7.30555657550763E-02 
605	 0.072737539246428 
606	 7.32247679156191E-02 
607	 7.34683584508107E-02 
608	 7.31175394961304E-02 
609	 7.28188439471354E-02 
610	 7.26893219115013E-02 
611	 0.072791754459599 
612	 7.22849336110585E-02 
613	 7.14488145426119E-02 
614	 7.19456312442178E-02 
615	 7.24035145864565E-02 
616	 7.20545329214222E-02 
617	 7.19879592600036E-02 
618	 7.21129451668461E-02 
619	 7.20189215355399E-02 
620	 7.19588353646315E-02 
621	 7.19422435958327E-02 
622	 7.17089225345303E-02 
623	 7.14420582990701E-02 
624	 0.07131802984756 
625	 7.12953841341101E-02 
626	 7.13372179089053E-02 
627	 7.14112089182403E-02 
628	 7.12326617205253E-02 
629	 7.08309210823145E-02 
630	 7.11318765773739E-02 
631	 7.16051439486373E-02 
632	 7.15050070773927E-02 
633	 7.14839822011513E-02 
634	 7.15145890567464E-02 
635	 7.09399619879169E-02 
636	 7.06327858856961E-02 
637	 0.071046767882567 
638	 7.13342201111928E-02 
639	 7.13280282709709E-02 
640	 7.09422366756141E-02 
641	 7.06072117964787E-02 
642	 7.04584801281899E-02 
643	 7.03275274860147E-02 
644	 0.070236720242781 
645	 7.01935364855668E-02 
646	 6.99830978130372E-02 
647	 6.96847238521365E-02 
648	 6.96384742536566E-02 
649	 6.94600263080533E-02 
650	 6.90810767971419E-02 
651	 6.90242901041506E-02 
652	 6.90302371966095E-02 
653	 6.87447244190628E-02 
654	 6.87540582178844E-02 
655	 6.89841789161875E-02 
656	 6.87074075822647E-02 
657	 6.82057582482465E-02 
658	 6.77220156528585E-02 
659	 6.74665326705982E-02 
660	 6.72845871618481E-02 
661	 6.68860381393324E-02 
662	 6.66631887085661E-02 
663	 6.65443767844852E-02 
664	 0.065713234519499 
665	 0.065017493325145 
666	 0.065136762997386 
667	 0.065166951235774 
668	 6.49681311680677E-02 
669	 6.45860959769431E-02 
670	 6.43503979227714E-02 
671	 6.43282770814948E-02 
672	 6.40699546131898E-02 
673	 6.37350207100705E-02 
674	 6.35478318184572E-02 
675	 6.36539670119082E-02 
676	 0.063984116867435 
677	 6.42244163315467E-02 
678	 6.44741296336753E-02 
679	 0.064736305468714 
680	 6.47112585240653E-02 
681	 6.45722055326209E-02 
682	 6.46045409617535E-02 
683	 6.53806990001364E-02 
684	 6.66559124933793E-02 
685	 6.67973625464054E-02 
686	 6.68664055058636E-02 
687	 6.77862034096122E-02 
688	 6.85965485756576E-02 
689	 0.069322631161682 
690	 7.05985691977706E-02 
691	 7.16878923890596E-02 
692	 7.24524018933464E-02 
693	 0.073315622680631 
694	 0.074316535302821 
695	 7.54226110436629E-02 
696	 7.65267862717756E-02 
697	 7.76504263311809E-02 
698	 7.90252346537478E-02 
699	 0.080138368082887 
700	 8.08357815297215E-02 
701	 8.20498274619802E-02 
702	 0.083340552321555 
703	 8.39784625510361E-02 
704	 8.47904241124885E-02 
705	 8.58839209145702E-02 
706	 8.68796927771884E-02 
707	 8.77599232582113E-02 
708	 8.84692703946918E-02 
709	 8.87347778548702E-02 
710	 8.88336963936634E-02 
711	 8.92822328217929E-02 
712	 9.01908181189486E-02 
713	 9.13528771911437E-02 
714	 0.091739371758403 
715	 0.091780929646123 
716	 9.19423043046711E-02 
717	 9.24810103931824E-02 
718	 9.32871554456238E-02 
719	 9.35891257099536E-02 
720	 9.40015990736575E-02 
721	 9.46108578291292E-02 
722	 0.09486112618689 
723	 9.50826737850983E-02 
724	 9.56315742877591E-02 
725	 0.095639077314827 
726	 9.52335877374382E-02 
727	 0.095428017667165 
728	 9.58330099796673E-02 
729	 9.62309607383812E-02 
730	 9.65035955781162E-02 
731	 9.66759295163426E-02 
732	 0.096821685129271 
733	 9.67824524845848E-02 
734	 9.66715490464156E-02 
735	 9.69124207475176E-02 
736	 9.73924004224095E-02 
737	 9.79674697260761E-02 
738	 9.82059591511981E-02 
739	 9.81728364819519E-02 
740	 9.80758372538486E-02 
741	 9.84299734552544E-02 
742	 0.099138617176138 
743	 9.90582065479571E-02 
744	 9.87203225176762E-02 
745	 9.86213828293128E-02 
746	 9.87389540672688E-02 
747	 9.89617036420276E-02 
748	 9.90304556904958E-02 
749	 9.89812622801716E-02 
750	 9.88926911455597E-02 
751	 9.91080598603335E-02 
752	 9.95005425900279E-02 
753	 9.98914075438602E-02 
754	 0.100021440210277 
755	 9.98383088459854E-02 
756	 9.93400546943183E-02 
757	 0.098966737430312 
758	 9.88923797519619E-02 
759	 9.86266930179217E-02 
760	 0.098507282923574 
761	 0.099746569183405 
762	 0.100670515535681 
763	 0.100821022759876 
764	 0.100718375689297 
765	 0.100749624177181 
766	 0.101002142369506 
767	 0.101182239339885 
768	 0.101132607373107 
769	 0.100639908006933 
770	 0.100681269524789 
771	 0.101262513558253 
772	 0.101510686858942 
773	 0.101382423418046 
774	 0.100920584623722 
775	 0.100743599362464 
776	 0.100921820545979 
777	 0.101406322540391 
778	 0.101743486810166 
779	 0.101765219566699 
780	 0.101504869752947 
781	 0.101343193160606 
782	 0.10156195363319 
783	 0.101743133865244 
784	 0.101900764782451 
785	 0.102260209877058 
786	 0.102274520922157 
787	 0.101912047847485 
788	 0.101927161478293 
789	 0.102204093067235 
790	 0.102567046879353 
791	 0.102693779470332 
792	 0.102538032983046 
793	 0.102138513451337 
794	 0.101881405470856 
795	 0.101930569804839 
796	 0.102177160397115 
797	 0.102466100484809 
798	 0.102654725450782 
799	 0.102923936515951 
800	 0.103154915634296 
801	 0.102891004908798 
802	 0.102887835387211 
803	 0.103324466948714 
804	 0.10339189495743 
805	 0.103237177796881 
806	 0.103080959025665 
807	 0.102594715972309 
808	 0.102280034231583 
809	 0.10390596193254 
810	 0.104588303729463 
811	 0.103343467956462 
812	 0.102847771877456 
813	 0.10299227746773 
814	 0.103319378227263 
815	 0.103102906825769 
816	 0.102519113492038 
817	 0.102813058012547 
818	 0.103240948806853 
819	 0.103500528891887 
820	 0.10392146906466 
821	 0.104368192682808 
822	 0.104657556191226 
823	 0.104930864676569 
824	 0.105010526081975 
825	 0.104293769542524 
826	 0.10389138466617 
827	 0.104184451348501 
828	 0.104291144240226 
829	 0.104260583052916 
830	 0.10425150841174 
831	 0.104178210969837 
832	 0.104113279266204 
833	 0.104231142019138 
834	 0.104753723877426 
835	 0.105477085537005 
836	 0.104739135096653 
837	 0.103719921774204 
838	 0.103897345301373 
839	 0.105004721620362 
840	 0.106147698458962 
841	 0.104902065991386 
842	 0.104108647226754 
843	 0.104799033773477 
844	 0.105115362653702 
845	 0.10514457009791 
846	 0.105133932660951 
847	 0.104508353347821 
848	 0.103735266554119 
849	 0.104466648831539 
850	 0.105061211794117 
851	 0.104901081597024 
852	 0.104650780925581 
853	 0.104773162086529 
854	 0.105627611754418 
855	 0.105828428696329 
856	 0.105473027603965 
857	 0.105512029588493 
858	 0.105804089959511 
859	 0.106113671186165 
860	 0.105331644191934 
861	 0.104718651686511 
862	 0.105432439470892 
863	 0.105663325216184 
864	 0.105368557454726 
865	 0.105230141816081 
866	 0.105405443946331 
867	 0.105850655675321 
868	 0.106004083822853 
869	 0.105865150671827 
870	 0.105547776591643 
871	 0.105974559226855 
872	 0.106650289395507 
873	 0.106313052686307 
874	 0.106365476718766 
875	 0.107014958442851 
876	 0.107435382911061 
877	 0.106997922318432 
878	 0.105614727445602 
879	 0.106368499897357 
880	 0.107888980942921 
881	 0.107269343029988 
882	 0.107477925200784 
883	 0.108585927774617 
884	 0.108011023893548 
885	 0.107421156633053 
886	 0.107668806932801 
887	 0.107603902954216 
888	 0.107394154323912 
889	 0.10741076207536 
890	 0.107577399765476 
891	 0.107547934338783 
892	 0.106144124648842 
893	 0.105513030832784 
894	 0.106551129037618 
895	 0.107605194184306 
896	 0.108419730629431 
897	 0.108839626288893 
898	 0.109024088747408 
899	 0.109007148120264 
900	 0.108739920702227 
901	 0.108899644953975 
902	 0.109152329771523 
903	 0.10678905451605 
904	 0.105189853658003 
905	 0.106747993993406 
906	 0.107511245011506 
907	 0.107558148262375 
908	 0.108169494939492 
909	 0.107741920860137 
910	 0.106433560461341 
911	 0.106410959904411 
912	 0.107229766878838 
913	 0.108486440795948 
914	 0.109604940823387 
915	 0.109891477003867 
916	 0.108724226128536 
917	 0.107729540292449 
918	 0.107169260928311 
919	 0.106496664817035 
920	 0.106627922758672 
921	 0.107473846171697 
922	 0.106981610408818 
923	 0.106169384978366 
924	 0.106155435711427 
925	 0.108333280380806 
926	 0.110368792351336 
927	 0.106616217020552 
928	 0.104206348413772 
929	 0.105269724497887 
930	 0.105563494673511 
931	 0.108324016506867 
932	 0.114568817250028 
933	 0.110788436410224 
934	 0.102341266985163 
935	 0.100844490839432 
936	 0.101824780914642 
937	 0.103708156650881 
938	 0.10474924750043 
939	 0.10728823647046 
940	 0.110407595456678 
941	 0.107858175912314 
942	 0.105600269667366 
943	 0.10772918953387 
944	 0.107198188084886 
945	 0.105827669871809 
946	 0.107937536223249 
947	 0.108959335165611 
948	 0.10800132394176 
949	 0.105329363845137 
950	 0.108036436913515 
951	 0.115987234026766 
952	 0.111668356882221 
953	 0.104889719572721 
954	 0.105411016125083 
955	 0.106262423079018 
956	 0.10599366087872 
957	 0.103843394748936 
958	 0.104479530763142 
959	 0.107906418331859 
960	 0.110081141043853 
961	 0.111453483277515 
962	 0.112178771857623 
963	 0.112627779904225 
964	 0.11250501991516 
965	 0.111470648794078 
966	 0.109191053137943 
967	 0.106353948912796 
968	 0.103928037227854 
969	 0.106364739455859 
970	 0.111749340289479 
971	 0.109375168995314 
972	 0.106854701969901 
973	 0.107910880949723 
974	 0.106040416857143 
975	 0.105307801083403 
976	 0.110195892161578 
977	 0.10918791536201 
978	 0.104681630895432 
979	 0.106585774107923 
980	 0.108551521165454 
981	 0.109305337034591 
982	 0.11177627501727 
983	 0.110999374976578 
984	 0.10587307362545 
985	 0.10705448814276 
986	 0.110867171540862 
987	 0.112412042666837 
988	 0.113367221927941 
989	 0.112871267688913 
990	 0.10880552769263 
991	 0.10661449159022 
992	 0.107266583228136 
993	 0.108064793310428 
994	 0.107041718120048 
995	 0.104022613217587 
996	 0.104481711251407 
997	 0.106334927219721 
998	 0.107286613599279 
999	 0.110722991533644 
1000	 0.112530101272058 
1001	 0.105020633166645 
1002	 9.97600533623199E-02 
1003	 0.100194307509625 
1004	 0.106417736575365 
1005	 0.109780102541027 
1006	 0.107931368358535 
1007	 0.110022331429458 
1008	 0.11202243920586 
1009	 0.110788566992034 
1010	 0.110662336757046 
1011	 0.108252348239439 
1012	 9.89101225312099E-02 
1013	 0.103288855014463 
1014	 0.115721973544563 
1015	 0.11068511667828 
1016	 0.110444274951424 
1017	 0.116490102860434 
1018	 0.105837242293063 
1019	 9.97705754508569E-02 
1020	 0.108776946516195 
1021	 0.115985138450055 
1022	 0.11823554326791 
1023	 0.114754541892591 
1024	 0.118429913484676 
1025	 0.125739203174171 
1026	 0.127241450356964 
1027	 0.127964398486915 
1028	 0.12561237706712 
1029	 0.109464128899062 
1030	 9.57695594252435E-02 
1031	 9.30691595975339E-02 
1032	 0.104480824583676 
1033	 0.117735142107436 
1034	 0.123192420779462 
1035	 0.113060150193547 
1036	 0.106533752578957 
1037	 0.121482494307681 
1038	 0.121457238996036 
1039	 0.111204579080554 
1040	 0.110175256800313 
1041	 0.114472947840984 
1042	 0.118551079262431 
1043	 0.106735718538655 
1044	 0.108190581222025 
1045	 0.124670969464872 
1046	 0.114768429335923 
1047	 0.107244197544457 
1048	 0.115396756963473 
1049	 0.101033474139291 
1050	 8.75272983244379E-02 
1051	 9.81111492697117E-02 
1052	 0.105559528621622 
1053	 0.108045813695592 
1054	 0.110951890443311 
1055	 0.116137848537578 
1056	 0.121856477754078 
1057	 0.124105985714144 
1058	 0.106886875847746 
1059	 7.94979454735194E-02 
1060	 9.40769505970247E-02 
1061	 0.111372625557965 
1062	 0.112438204007037 
1063	 0.101922788311048 
1064	 0.106189271978047 
1065	 0.135398314991005 
1066	 0.115364100224428 
1067	 7.75201643311495E-02 
1068	 6.19856025687503E-02 
1069	 6.76548880421734E-02 
1070	 9.60510739859491E-02 
1071	 0.13969323921169 
1072	 0.149768169221229 
1073	 0.128805725116435 
1074	 0.106644730250634 
1075	 0.121780989430794 
