Wavelength	SHSI00047.asd
325	 5.38388450752667E-02 
326	 5.67534391879127E-02 
327	 5.10751022174822E-02 
328	 4.60153178786552E-02 
329	 4.41241961325637E-02 
330	 4.57913760446163E-02 
331	 4.73706068794263E-02 
332	 4.94293063766415E-02 
333	 5.25386480034824E-02 
334	 5.06005338803235E-02 
335	 0.046024697254661 
336	 4.64543921822266E-02 
337	 4.73425037143988E-02 
338	 0.047140166322498 
339	 4.53912817447278E-02 
340	 4.39994611085815E-02 
341	 4.43985947127366E-02 
342	 0.044809588577584 
343	 4.49241550324782E-02 
344	 4.46240892656839E-02 
345	 4.56728257837109E-02 
346	 4.72177508111688E-02 
347	 4.39015170604735E-02 
348	 4.19887610712154E-02 
349	 4.48979125682748E-02 
350	 4.32395814402659E-02 
351	 0.040317119604753 
352	 4.33683585762435E-02 
353	 4.39955935432754E-02 
354	 4.19810089914454E-02 
355	 4.46181211412385E-02 
356	 4.65846544625169E-02 
357	 4.50251182379621E-02 
358	 4.42446146207731E-02 
359	 4.46474988619283E-02 
360	 0.046060516949748 
361	 4.54361146705366E-02 
362	 4.32879207412969E-02 
363	 4.42165350528374E-02 
364	 4.45646376853959E-02 
365	 4.28480204955743E-02 
366	 4.32580779534176E-02 
367	 4.41034646204931E-02 
368	 0.042639832136656 
369	 4.08941441115047E-02 
370	 4.00917286260818E-02 
371	 4.26607230481182E-02 
372	 4.43919763421568E-02 
373	 4.32990904971628E-02 
374	 4.32294287063842E-02 
375	 4.32646468741298E-02 
376	 4.16257423606505E-02 
377	 4.03508815924191E-02 
378	 3.99352122988414E-02 
379	 4.01926379152897E-02 
380	 4.05199621277644E-02 
381	 4.05308902443617E-02 
382	 4.01055720989399E-02 
383	 4.00058057437864E-02 
384	 4.11946276741106E-02 
385	 4.02647362868959E-02 
386	 3.80468881347958E-02 
387	 3.97218332232618E-02 
388	 4.12146289340258E-02 
389	 0.040683125489326 
390	 3.93769945560678E-02 
391	 0.038119985443578 
392	 3.76967686285094E-02 
393	 3.80405890970216E-02 
394	 3.85341361194018E-02 
395	 3.74167466133884E-02 
396	 3.72235377537856E-02 
397	 3.84154744533396E-02 
398	 3.71298027930208E-02 
399	 3.53913801582342E-02 
400	 0.035473652068661 
401	 3.65174473536739E-02 
402	 0.03753418868472 
403	 3.64922442479481E-02 
404	 3.59641186382808E-02 
405	 3.66586266847052E-02 
406	 3.58446514018839E-02 
407	 3.49459733491533E-02 
408	 3.59501995797862E-02 
409	 0.035488335131569 
410	 3.37538511499781E-02 
411	 3.34491574998815E-02 
412	 3.36211085464387E-02 
413	 3.37642521730531E-02 
414	 3.37040604347796E-02 
415	 3.34668661239056E-02 
416	 3.31277455327413E-02 
417	 3.30329394358167E-02 
418	 3.31201140821598E-02 
419	 3.28893205738023E-02 
420	 3.27300521501923E-02 
421	 3.28452779499507E-02 
422	 3.31580525666394E-02 
423	 3.32016418427268E-02 
424	 3.23132462989586E-02 
425	 3.22044606682076E-02 
426	 3.29667605887858E-02 
427	 0.033278307765107 
428	 3.32018892113398E-02 
429	 3.28038161056851E-02 
430	 3.24219550815574E-02 
431	 0.031915881583455 
432	 3.08988425649719E-02 
433	 3.10834653670185E-02 
434	 3.21762545869773E-02 
435	 0.03136914682756 
436	 3.05653331393715E-02 
437	 3.09843525313472E-02 
438	 3.14511680732395E-02 
439	 3.17075650015533E-02 
440	 3.16049177436997E-02 
441	 3.14055906553167E-02 
442	 3.11726068401588E-02 
443	 0.030648242659663 
444	 0.030613135018866 
445	 3.15594334055193E-02 
446	 3.16236969192901E-02 
447	 3.11577220983895E-02 
448	 3.16991824280147E-02 
449	 3.20351569539898E-02 
450	 3.18595568232653E-02 
451	 3.16937736637893E-02 
452	 3.18196601933867E-02 
453	 3.24263773756375E-02 
454	 3.23062150538673E-02 
455	 3.17589903279222E-02 
456	 0.032348218635785 
457	 3.26999418119459E-02 
458	 3.23736039905072E-02 
459	 3.23210544694623E-02 
460	 3.24100678145308E-02 
461	 3.23898239991621E-02 
462	 3.21172858227204E-02 
463	 3.18580242670248E-02 
464	 3.25552338647048E-02 
465	 3.31247202227466E-02 
466	 3.30473791163236E-02 
467	 3.30183373823801E-02 
468	 3.32140011090042E-02 
469	 3.37798852895996E-02 
470	 0.033580711724894 
471	 0.032815241117084 
472	 0.033384477314593 
473	 3.35929683887917E-02 
474	 0.032576651796305 
475	 3.26823462559326E-02 
476	 3.35203426560236E-02 
477	 3.39007557519051E-02 
478	 3.36152275213554E-02 
479	 0.032892430749919 
480	 3.30582020405751E-02 
481	 3.34467228072164E-02 
482	 0.033489433617892 
483	 3.33770793372827E-02 
484	 3.34080230105958E-02 
485	 3.43683677274107E-02 
486	 3.44189744547742E-02 
487	 3.32919355208936E-02 
488	 3.35350501458393E-02 
489	 3.41369431595037E-02 
490	 0.033915581138613 
491	 3.36562456680839E-02 
492	 3.35567207054411E-02 
493	 3.37364848897622E-02 
494	 3.39543212507542E-02 
495	 0.034113225319775 
496	 3.44200312627977E-02 
497	 3.45874089532787E-02 
498	 0.034229634036281 
499	 3.45540013870632E-02 
500	 3.54519324515117E-02 
501	 3.54432041458925E-02 
502	 3.55279584037414E-02 
503	 3.62186748877743E-02 
504	 3.64846558502499E-02 
505	 3.65976259720685E-02 
506	 3.72648645345483E-02 
507	 3.73611274574578E-02 
508	 3.69071825197612E-02 
509	 3.72676995072761E-02 
510	 3.79103907033913E-02 
511	 3.83572923078187E-02 
512	 3.85207554108927E-02 
513	 3.85956167145755E-02 
514	 3.90880463443036E-02 
515	 0.039613628142786 
516	 3.99933641313079E-02 
517	 4.00378431655452E-02 
518	 4.01738069563897E-02 
519	 4.08436190844361E-02 
520	 4.13596095550059E-02 
521	 4.16461900180457E-02 
522	 4.18965834111734E-02 
523	 4.22711403133602E-02 
524	 4.28271487135073E-02 
525	 4.32930682369187E-02 
526	 4.38014021194685E-02 
527	 4.45854446095248E-02 
528	 4.49654515081578E-02 
529	 0.044955424217741 
530	 4.52273280214625E-02 
531	 4.56593452111856E-02 
532	 4.61891795032064E-02 
533	 4.70414882481309E-02 
534	 4.78401204621748E-02 
535	 4.77996578308287E-02 
536	 4.78508337989687E-02 
537	 4.82727990881778E-02 
538	 4.88168360213282E-02 
539	 4.92842188110472E-02 
540	 4.95123243705541E-02 
541	 4.99527693858545E-02 
542	 5.05729527856487E-02 
543	 5.10655320369202E-02 
544	 5.14604398501196E-02 
545	 0.05175304414923 
546	 5.19014040727287E-02 
547	 5.20222616172311E-02 
548	 5.22614907397579E-02 
549	 5.27132257713252E-02 
550	 5.33491317111213E-02 
551	 5.40567433321446E-02 
552	 5.44574849729589E-02 
553	 5.43918915684783E-02 
554	 0.054708186417889 
555	 5.52824154174068E-02 
556	 0.055653460965062 
557	 5.60386518482778E-02 
558	 5.64215136324212E-02 
559	 5.65049710718087E-02 
560	 5.64495268115983E-02 
561	 5.64524880825985E-02 
562	 5.70253168048006E-02 
563	 5.77708759359168E-02 
564	 5.73702064113469E-02 
565	 5.71503114267347E-02 
566	 5.75838770626683E-02 
567	 5.79591222308495E-02 
568	 0.058111712333913 
569	 5.79217381157442E-02 
570	 5.78842379857472E-02 
571	 5.79885201083155E-02 
572	 5.76551158738217E-02 
573	 5.75774078028832E-02 
574	 5.80949466544219E-02 
575	 5.83108604574025E-02 
576	 5.81716448244738E-02 
577	 5.77903505283025E-02 
578	 5.77786567013996E-02 
579	 5.81523895021803E-02 
580	 5.79053679162455E-02 
581	 5.78364244722423E-02 
582	 5.85959328024976E-02 
583	 5.88355146557046E-02 
584	 5.85496207387263E-02 
585	 5.83622037374096E-02 
586	 5.82507317738144E-02 
587	 5.82210590792233E-02 
588	 5.81364331069585E-02 
589	 5.80128388915655E-02 
590	 5.78960951071644E-02 
591	 5.82600543319705E-02 
592	 5.89366853362949E-02 
593	 0.059111348327814 
594	 5.89596452096389E-02 
595	 5.86305377946132E-02 
596	 0.058434231741823 
597	 5.85342702930298E-02 
598	 5.91410683656941E-02 
599	 5.94850455642304E-02 
600	 5.94224941924464E-02 
601	 5.96078318899652E-02 
602	 5.96467037254819E-02 
603	 5.92132113933641E-02 
604	 5.89256566620823E-02 
605	 5.88125243577632E-02 
606	 5.86396727510349E-02 
607	 5.84055459628802E-02 
608	 5.81859980754657E-02 
609	 0.058509339187753 
610	 5.87933413446614E-02 
611	 5.82682654699478E-02 
612	 5.79001580549847E-02 
613	 5.78221730315063E-02 
614	 5.76377784849748E-02 
615	 5.73440985353686E-02 
616	 5.69728369434123E-02 
617	 5.68960613947053E-02 
618	 5.67736121192607E-02 
619	 5.58670472971022E-02 
620	 0.055733903914047 
621	 5.64525168583511E-02 
622	 5.62388336607719E-02 
623	 5.56277513833947E-02 
624	 5.51868893521602E-02 
625	 5.51212836610803E-02 
626	 5.53013761016519E-02 
627	 5.51502747022637E-02 
628	 5.55475749374696E-02 
629	 5.65872614153715E-02 
630	 5.67789063774104E-02 
631	 5.62678693681403E-02 
632	 5.54297966196688E-02 
633	 5.52915077568262E-02 
634	 5.58804584797871E-02 
635	 5.64202080244499E-02 
636	 5.64265296714028E-02 
637	 5.57460429191513E-02 
638	 5.57924547498174E-02 
639	 5.62866242401975E-02 
640	 5.63974040998315E-02 
641	 5.62621385094896E-02 
642	 5.61179054041781E-02 
643	 5.69474775206803E-02 
644	 5.75557539533963E-02 
645	 5.69187914728574E-02 
646	 5.62417518371383E-02 
647	 5.58243630059668E-02 
648	 5.57049735001654E-02 
649	 5.61565474927962E-02 
650	 5.69892512992812E-02 
651	 5.67031069472235E-02 
652	 5.57997303471647E-02 
653	 0.055031655639544 
654	 5.48362844457332E-02 
655	 5.49489762548672E-02 
656	 5.39603554200633E-02 
657	 5.30330595052861E-02 
658	 5.27045295191195E-02 
659	 5.12087638124753E-02 
660	 4.93682888038666E-02 
661	 4.87965816293103E-02 
662	 4.80960260232169E-02 
663	 0.047068788945418 
664	 0.046655649136442 
665	 4.61586722334684E-02 
666	 4.50181147660893E-02 
667	 4.40484276166829E-02 
668	 4.32779237603295E-02 
669	 0.042274762734682 
670	 4.19389578040988E-02 
671	 4.23953201019751E-02 
672	 4.23641383169341E-02 
673	 0.041990344200428 
674	 4.15774031259863E-02 
675	 4.15129481376954E-02 
676	 4.17079766782499E-02 
677	 4.15184444887805E-02 
678	 4.15005532035515E-02 
679	 4.19645279115299E-02 
680	 0.042850773400655 
681	 4.37340413241322E-02 
682	 0.043964260951446 
683	 4.45488962336775E-02 
684	 4.56355559160377E-02 
685	 4.65506735718428E-02 
686	 4.78310239545328E-02 
687	 4.99351897677732E-02 
688	 5.22359834609328E-02 
689	 5.43850751378228E-02 
690	 5.64015159136606E-02 
691	 5.88029892038925E-02 
692	 6.15628366815309E-02 
693	 6.32909402416721E-02 
694	 6.52313807103251E-02 
695	 6.85263006572657E-02 
696	 7.04232543113728E-02 
697	 7.14919836466926E-02 
698	 7.48691176195191E-02 
699	 7.80892963370384E-02 
700	 7.99479239282421E-02 
701	 8.11978171627128E-02 
702	 8.24357665107882E-02 
703	 8.43632634263323E-02 
704	 8.63694651859412E-02 
705	 8.81250874057652E-02 
706	 8.89161731121594E-02 
707	 9.00300815198978E-02 
708	 9.21332803276189E-02 
709	 9.32665148811838E-02 
710	 9.39442773509852E-02 
711	 9.56664868368087E-02 
712	 9.68981351731661E-02 
713	 9.73669024564674E-02 
714	 9.82001825655076E-02 
715	 9.86372585826456E-02 
716	 9.79818420172296E-02 
717	 9.75933844412977E-02 
718	 9.79783705448864E-02 
719	 9.94018592318443E-02 
720	 0.100883306013335 
721	 0.101851500253726 
722	 0.102422557075442 
723	 0.102931316522365 
724	 0.103665311477337 
725	 0.104182862049464 
726	 0.104362600060128 
727	 0.10424658959266 
728	 0.104372977630251 
729	 0.105064473209023 
730	 0.10637256529724 
731	 0.107505956609687 
732	 0.107441227840282 
733	 0.10758316729668 
734	 0.108253472005959 
735	 0.1092930004339 
736	 0.110444192638687 
737	 0.111421109534769 
738	 0.111758487956139 
739	 0.111822374412943 
740	 0.112370107543964 
741	 0.113213213369866 
742	 0.114105227981486 
743	 0.114273450927609 
744	 0.114250171460865 
745	 0.114513686840405 
746	 0.114892542826126 
747	 0.115360470575346 
748	 0.115950255084672 
749	 0.116341076459385 
750	 0.116454255615419 
751	 0.116650328175249 
752	 0.116771719870198 
753	 0.116638073459106 
754	 0.116417998777124 
755	 0.116344058382392 
756	 0.116926141498733 
757	 0.117722624669106 
758	 0.11839870624402 
759	 0.117573556360721 
760	 0.114829447964002 
761	 0.112725410527697 
762	 0.112126297306573 
763	 0.112790422861284 
764	 0.113783767247993 
765	 0.115296676927229 
766	 0.117121861051784 
767	 0.118952785505442 
768	 0.12030806627102 
769	 0.120570059044606 
770	 0.121151741837442 
771	 0.122073931847895 
772	 0.122121461543373 
773	 0.121881519208929 
774	 0.121831675158364 
775	 0.12249627630062 
776	 0.12325198252261 
777	 0.122817059686931 
778	 0.12285729534893 
779	 0.123670954578032 
780	 0.1242891639536 
781	 0.124490579687353 
782	 0.124212264225794 
783	 0.124558855617411 
784	 0.125231021226389 
785	 0.12520829794011 
786	 0.124983382910565 
787	 0.124735018668746 
788	 0.124514085907371 
789	 0.124442003034706 
790	 0.12463208502932 
791	 0.125158119426695 
792	 0.125701638032975 
793	 0.125467452244846 
794	 0.125440245301441 
795	 0.125826548083436 
796	 0.125661080830146 
797	 0.125606572854355 
798	 0.126306112797473 
799	 0.126359347839776 
800	 0.125878341888214 
801	 0.125859651591152 
802	 0.126204059285512 
803	 0.126840921069095 
804	 0.127446449000123 
805	 0.127832263594761 
806	 0.127859228691097 
807	 0.127997445829977 
808	 0.128201034925134 
809	 0.12801671494936 
810	 0.127805257320309 
811	 0.127707692218195 
812	 0.127514289947448 
813	 0.127322012799274 
814	 0.127278203977168 
815	 0.127212736493777 
816	 0.126985589251245 
817	 0.126134247321852 
818	 0.126324796723602 
819	 0.127951744140976 
820	 0.129009026184673 
821	 0.129558975442499 
822	 0.12986682858054 
823	 0.131051972311838 
824	 0.132765758987971 
825	 0.133567344983029 
826	 0.133392371282057 
827	 0.13242914403753 
828	 0.132105911449638 
829	 0.132333843396071 
830	 0.132785389167948 
831	 0.132932011574281 
832	 0.132832466584105 
833	 0.132962151261662 
834	 0.133758837670559 
835	 0.135043853949959 
836	 0.134626312246501 
837	 0.133994871485548 
838	 0.134975968666996 
839	 0.136205727686745 
840	 0.137064881447353 
841	 0.136667739569949 
842	 0.136273975775476 
843	 0.136423295897403 
844	 0.136630335937928 
845	 0.136866359850681 
846	 0.137144561600468 
847	 0.137773434395187 
848	 0.138358554160413 
849	 0.137469175857211 
850	 0.137459984923097 
851	 0.138849981982764 
852	 0.138454528238346 
853	 0.137497822697882 
854	 0.137517007617769 
855	 0.137257892915732 
856	 0.136629033894909 
857	 0.135861792605702 
858	 0.135615476387393 
859	 0.13606524510344 
860	 0.136845914657008 
861	 0.136958308385969 
862	 0.135644843478564 
863	 0.135453828193632 
864	 0.136332739648253 
865	 0.136918214705955 
866	 0.13776470328615 
867	 0.138693909551813 
868	 0.138252116499303 
869	 0.13819653917914 
870	 0.13983923901509 
871	 0.14108308189035 
872	 0.141415995169636 
873	 0.140467781641207 
874	 0.140341018177222 
875	 0.141269539796273 
876	 0.141123644799215 
877	 0.140996879260681 
878	 0.14165404368653 
879	 0.142388481154725 
880	 0.14327496510057 
881	 0.144598083621038 
882	 0.145701461683765 
883	 0.146370450978988 
884	 0.146557069373465 
885	 0.147098178735098 
886	 0.148323384019303 
887	 0.148985435392327 
888	 0.149097097409334 
889	 0.148892193873558 
890	 0.150070829109166 
891	 0.151687667840086 
892	 0.149243661746159 
893	 0.147437827723073 
894	 0.148268853350505 
895	 0.148735819846715 
896	 0.148231180335829 
897	 0.146584206246198 
898	 0.148388289582913 
899	 0.152123711923079 
900	 0.151681385360746 
901	 0.150510620061326 
902	 0.150159876351348 
903	 0.152285603146678 
904	 0.153770694720169 
905	 0.152542070151463 
906	 0.153043832953984 
907	 0.154780685277076 
908	 0.155826912498511 
909	 0.153732426046534 
910	 0.14979121443733 
911	 0.152078165466476 
912	 0.154297322069631 
913	 0.152901447931168 
914	 0.150635372203895 
915	 0.150088835004911 
916	 0.153761944273735 
917	 0.157326953177309 
918	 0.158510710416958 
919	 0.153729607817041 
920	 0.151880523783704 
921	 0.155629611438155 
922	 0.160608028057227 
923	 0.161748293403191 
924	 0.15549734090606 
925	 0.153580004941159 
926	 0.155426903633757 
927	 0.15486099090437 
928	 0.155562014177388 
929	 0.157170366068056 
930	 0.152120762949073 
931	 0.147278331641842 
932	 0.148471494110978 
933	 0.15201441511661 
934	 0.152435843002562 
935	 0.143020041404668 
936	 0.130975122180709 
937	 0.125012685641554 
938	 0.142174074918207 
939	 0.151424280425673 
940	 0.146072899010988 
941	 0.144616628917213 
942	 0.144129089939532 
943	 0.142687074202627 
944	 0.147109623084464 
945	 0.148333278271499 
946	 0.131011859427352 
947	 0.123288619958863 
948	 0.130341629913922 
949	 0.144834836006751 
950	 0.146062002315866 
951	 0.130882284931176 
952	 0.136489915252563 
953	 0.146244707154854 
954	 0.14353616353429 
955	 0.138193188753939 
956	 0.13450508040732 
957	 0.136760746542057 
958	 0.141888658654755 
959	 0.147551885279335 
960	 0.150744431949172 
961	 0.148631557269511 
962	 0.142217738542938 
963	 0.14273924989563 
964	 0.146318094427323 
965	 0.148458888610454 
966	 0.150979364418772 
967	 0.152826725173557 
968	 0.151676947004181 
969	 0.149739607290444 
970	 0.148399780608426 
971	 0.150035752813961 
972	 0.15146603442748 
973	 0.151150666108472 
974	 0.151320528307211 
975	 0.152483703778178 
976	 0.154655656409233 
977	 0.152786892054658 
978	 0.150564920836293 
979	 0.158323565133181 
980	 0.158261426546992 
981	 0.150472918105961 
982	 0.156269303404781 
983	 0.16240476054203 
984	 0.161664550079906 
985	 0.156312666819399 
986	 0.15388548425929 
987	 0.161105970863832 
988	 0.1621196421979 
989	 0.1587562416451 
990	 0.16058283241991 
991	 0.161530325871825 
992	 0.16042193392534 
993	 0.159319550392836 
994	 0.156837376921998 
995	 0.153707138246932 
996	 0.157808496534914 
997	 0.161551552922464 
998	 0.157734192011232 
999	 0.157071315228813 
1000	 0.160791075872689 
1001	 0.167876031654315 
1002	 0.161085439400422 
1003	 0.146595602254457 
1004	 0.161462438291253 
1005	 0.168958141723199 
1006	 0.157123315492216 
1007	 0.144618197512508 
1008	 0.142813792125233 
1009	 0.156900805537648 
1010	 0.164405736422835 
1011	 0.162585932172727 
1012	 0.153103992498557 
1013	 0.162788456699009 
1014	 0.181285683977104 
1015	 0.169629352388825 
1016	 0.155903428878857 
1017	 0.15121446246508 
1018	 0.161070387539931 
1019	 0.169615917038113 
1020	 0.167585532378259 
1021	 0.159389792973693 
1022	 0.157065648927677 
1023	 0.170153009358952 
1024	 0.17383526459122 
1025	 0.166504356567352 
1026	 0.153357776425454 
1027	 0.157462210534748 
1028	 0.175638960673406 
1029	 0.179099649838397 
1030	 0.174485628125358 
1031	 0.167592881756411 
1032	 0.176862349629466 
1033	 0.181204628807568 
1034	 0.169617661129845 
1035	 0.168992036061693 
1036	 0.171781609317096 
1037	 0.168426110204213 
1038	 0.174974747418967 
1039	 0.178316077283665 
1040	 0.152984511478045 
1041	 0.153867330384086 
1042	 0.180238222478363 
1043	 0.189095242191657 
1044	 0.1776541120491 
1045	 0.154851397238094 
1046	 0.164442273385341 
1047	 0.176599084144604 
1048	 0.174371602086129 
1049	 0.180560238226587 
1050	 0.186063236809297 
1051	 0.180162217141014 
1052	 0.171489111494174 
1053	 0.165421120001637 
1054	 0.168706409291377 
1055	 0.172424386346721 
1056	 0.176458239616134 
1057	 0.186999104085503 
1058	 0.170831392081363 
1059	 0.136711978463493 
1060	 0.160298681256544 
1061	 0.161187371231649 
1062	 0.118022922071289 
1063	 0.126505844692188 
1064	 0.157854982560005 
1065	 0.181258914815328 
1066	 0.15857038771388 
1067	 0.128029770486074 
1068	 0.135307354510495 
1069	 0.155807551451385 
1070	 0.176605888893966 
1071	 0.18275604413228 
1072	 0.178969562655877 
1073	 0.172950385489195 
1074	 0.18466446488758 
1075	 0.147361663716553 
