Wavelength	SHSI00034.asd
325	 5.43741515747445E-02 
326	 5.96721389262124E-02 
327	 5.69978666647223E-02 
328	 5.41860338713095E-02 
329	 5.29601261276326E-02 
330	 5.37125583477842E-02 
331	 5.36915273150696E-02 
332	 5.58732794801209E-02 
333	 6.27120697667288E-02 
334	 6.50075888360996E-02 
335	 6.22138993358356E-02 
336	 5.61505056496249E-02 
337	 0.052839823435576 
338	 5.37982211498533E-02 
339	 5.56128106868191E-02 
340	 5.58946364955686E-02 
341	 5.33225967467093E-02 
342	 5.36849404769711E-02 
343	 5.46319357301356E-02 
344	 0.049509868806908 
345	 4.95168232941708E-02 
346	 0.054687228851793 
347	 0.05287964403587 
348	 5.10829189950835E-02 
349	 5.36924214607739E-02 
350	 5.46683083602338E-02 
351	 5.39097331710035E-02 
352	 5.23954607544565E-02 
353	 0.051748110002641 
354	 0.052307511186621 
355	 0.053554532980373 
356	 5.40390495958793E-02 
357	 5.31496413582205E-02 
358	 5.31959785522092E-02 
359	 5.40482436950145E-02 
360	 5.50913852032601E-02 
361	 5.48294663817963E-02 
362	 0.053739209381453 
363	 5.50543264510963E-02 
364	 5.49826793539086E-02 
365	 5.21575799756679E-02 
366	 5.16496692689443E-02 
367	 5.26389050254621E-02 
368	 5.33282958088978E-02 
369	 5.38995906749691E-02 
370	 5.43741843999022E-02 
371	 0.055167576324944 
372	 5.47455555417754E-02 
373	 5.27791013409168E-02 
374	 0.053154085752998 
375	 5.43588894434946E-02 
376	 5.37776565975746E-02 
377	 5.21658822408332E-02 
378	 5.06584453414527E-02 
379	 5.24775742463942E-02 
380	 5.33990069103569E-02 
381	 5.17432296196425E-02 
382	 5.18860503156723E-02 
383	 5.25528716356671E-02 
384	 5.15664846344605E-02 
385	 5.07140758997779E-02 
386	 5.03330088940591E-02 
387	 4.99385297239393E-02 
388	 5.00962752592074E-02 
389	 5.07562285561632E-02 
390	 5.01696694732687E-02 
391	 4.93350223330896E-02 
392	 4.95590990755369E-02 
393	 5.03551682365262E-02 
394	 0.050955142860902 
395	 4.95727128880961E-02 
396	 4.82921270015894E-02 
397	 4.80315935598303E-02 
398	 4.83741270041987E-02 
399	 4.83911621305056E-02 
400	 4.72725168490854E-02 
401	 4.67827869505512E-02 
402	 4.71348314033378E-02 
403	 4.81069957079128E-02 
404	 4.88902114896684E-02 
405	 4.90249952543517E-02 
406	 4.80615392145299E-02 
407	 4.71242296959036E-02 
408	 4.75917941663812E-02 
409	 4.70511014983412E-02 
410	 4.57055372365609E-02 
411	 4.56626122018982E-02 
412	 4.60542239651532E-02 
413	 4.63633538609858E-02 
414	 4.61781469839521E-02 
415	 4.57203124759914E-02 
416	 4.53323913667255E-02 
417	 4.54290113077748E-02 
418	 4.57393739605179E-02 
419	 0.045035772862126 
420	 4.45258635679735E-02 
421	 4.48236331403531E-02 
422	 4.52836894969573E-02 
423	 4.55662308354478E-02 
424	 4.53140290412707E-02 
425	 4.50113204161907E-02 
426	 4.48894788924559E-02 
427	 4.52442241214271E-02 
428	 4.56089909951575E-02 
429	 4.56566626518395E-02 
430	 0.045529271104178 
431	 4.52062699353756E-02 
432	 4.46209114776576E-02 
433	 4.42319074674749E-02 
434	 4.40856762648499E-02 
435	 4.37775053157855E-02 
436	 4.35381200568054E-02 
437	 4.35378100630285E-02 
438	 4.38924429446586E-02 
439	 4.43055385107996E-02 
440	 4.42161482881316E-02 
441	 4.41934923359803E-02 
442	 4.43005911490486E-02 
443	 4.39509532950421E-02 
444	 4.39490126442869E-02 
445	 4.48335144177478E-02 
446	 4.48940323938428E-02 
447	 4.45015484596846E-02 
448	 4.52120777224566E-02 
449	 0.04537927979045 
450	 4.47461678450607E-02 
451	 4.48315921245805E-02 
452	 4.54692169467946E-02 
453	 4.63317223031512E-02 
454	 4.60339251235949E-02 
455	 4.51236104028268E-02 
456	 4.59506209319367E-02 
457	 4.66246544860628E-02 
458	 4.64523341051142E-02 
459	 4.62766086919513E-02 
460	 4.60750667222876E-02 
461	 4.57548080734756E-02 
462	 4.57505286935213E-02 
463	 4.61349265545155E-02 
464	 4.68782955131127E-02 
465	 4.72166990579596E-02 
466	 4.68806369628248E-02 
467	 4.71744316086007E-02 
468	 4.77466830293267E-02 
469	 4.78670769151311E-02 
470	 0.047762768264112 
471	 4.76181362563952E-02 
472	 4.79536171133839E-02 
473	 4.79510237343069E-02 
474	 4.72287316217952E-02 
475	 4.71887866688983E-02 
476	 4.76683922156312E-02 
477	 4.80776303106865E-02 
478	 4.79130809897546E-02 
479	 4.73476833530723E-02 
480	 4.78176177477838E-02 
481	 4.85234407045718E-02 
482	 4.87665127735196E-02 
483	 0.048587923757703 
484	 4.83113341735365E-02 
485	 4.87432802148443E-02 
486	 4.89039528671695E-02 
487	 4.85676981084663E-02 
488	 4.85613672492185E-02 
489	 4.87726572649261E-02 
490	 4.90135551076927E-02 
491	 0.049098636688161 
492	 4.90746530008873E-02 
493	 4.91366764615942E-02 
494	 0.049456294175885 
495	 5.00303790484857E-02 
496	 5.03454446375115E-02 
497	 5.04197059066945E-02 
498	 0.0503465959555 
499	 5.08350179305658E-02 
500	 5.17192648370074E-02 
501	 5.17476582720197E-02 
502	 0.051925148640518 
503	 5.27581413216711E-02 
504	 5.31816959343502E-02 
505	 5.32512814153289E-02 
506	 5.32774235279604E-02 
507	 5.35484543248609E-02 
508	 5.40174589461793E-02 
509	 5.39746848952015E-02 
510	 5.42602237708202E-02 
511	 5.54500262565667E-02 
512	 5.60042763855896E-02 
513	 0.0561673503968 
514	 5.71842721744665E-02 
515	 5.79426128534572E-02 
516	 5.81214525178478E-02 
517	 5.82276813108302E-02 
518	 5.86123396377358E-02 
519	 5.95644019776187E-02 
520	 6.02159261441472E-02 
521	 6.05559245657849E-02 
522	 6.10478150623047E-02 
523	 6.18138660895344E-02 
524	 6.28232094986934E-02 
525	 6.33744505469893E-02 
526	 6.36838887952444E-02 
527	 6.41525078917729E-02 
528	 6.48880660210273E-02 
529	 6.57919668456134E-02 
530	 6.64393957484499E-02 
531	 6.69247367510058E-02 
532	 6.73861580083439E-02 
533	 6.84721013632296E-02 
534	 6.96830846283502E-02 
535	 6.98448172554108E-02 
536	 7.01294516758474E-02 
537	 7.08960387272558E-02 
538	 7.19244736294247E-02 
539	 7.28762585994981E-02 
540	 7.34404224902329E-02 
541	 7.39368026033947E-02 
542	 7.44858198581904E-02 
543	 0.075206732283887 
544	 0.07602782552325 
545	 7.68363994838644E-02 
546	 7.71784619021471E-02 
547	 7.74084901637046E-02 
548	 7.80301199246853E-02 
549	 7.88362913311341E-02 
550	 7.96573215876153E-02 
551	 8.01062810092367E-02 
552	 8.05551569962974E-02 
553	 8.12140964339456E-02 
554	 8.17114955254263E-02 
555	 8.21064576129013E-02 
556	 8.25933413227167E-02 
557	 8.32011251570433E-02 
558	 8.39077407263496E-02 
559	 8.46325321767598E-02 
560	 8.49386479240815E-02 
561	 8.45322702496713E-02 
562	 8.49526926708727E-02 
563	 0.085953699311301 
564	 8.61317944680026E-02 
565	 8.61410426083952E-02 
566	 0.08620487304607 
567	 8.61078105300992E-02 
568	 8.61190068069941E-02 
569	 8.65861920876157E-02 
570	 8.66120506863112E-02 
571	 8.62230821037972E-02 
572	 8.62949981595967E-02 
573	 8.65900355740692E-02 
574	 8.68858255603028E-02 
575	 8.65545973118021E-02 
576	 8.60583297457278E-02 
577	 8.63882410291117E-02 
578	 8.68837378319168E-02 
579	 8.72227807799343E-02 
580	 8.70061708680421E-02 
581	 8.66958043873254E-02 
582	 8.67264943204559E-02 
583	 8.70981773069937E-02 
584	 8.75413327729159E-02 
585	 8.73398308098555E-02 
586	 8.72850275551309E-02 
587	 8.76154079314699E-02 
588	 8.76945674430569E-02 
589	 8.75447756589923E-02 
590	 8.72821244407046E-02 
591	 8.72760842585042E-02 
592	 8.75765652357792E-02 
593	 0.08804014855665 
594	 8.83260837678858E-02 
595	 8.82181558659309E-02 
596	 8.77413563827551E-02 
597	 8.74504286937454E-02 
598	 8.83240511678321E-02 
599	 8.86555719583403E-02 
600	 8.81665049192676E-02 
601	 8.81758964993049E-02 
602	 8.84228351016878E-02 
603	 8.85971533861543E-02 
604	 8.82412629526411E-02 
605	 8.76497441244721E-02 
606	 8.78151199137326E-02 
607	 8.77978951060158E-02 
608	 8.73480629485905E-02 
609	 8.73930230055411E-02 
610	 8.74207084885554E-02 
611	 0.086706202259232 
612	 0.086460963593679 
613	 8.66762433882023E-02 
614	 8.63453148424625E-02 
615	 8.56532709830039E-02 
616	 8.47974697414764E-02 
617	 8.44265615729592E-02 
618	 8.43190719118884E-02 
619	 8.38624400722715E-02 
620	 8.40738984742007E-02 
621	 8.48201203914589E-02 
622	 8.42548705318438E-02 
623	 8.33865738371452E-02 
624	 8.31944642821495E-02 
625	 8.34087194520832E-02 
626	 8.37901257456916E-02 
627	 8.38414708447116E-02 
628	 8.38768910419694E-02 
629	 8.39952572079681E-02 
630	 8.40760791830451E-02 
631	 8.40731009140516E-02 
632	 8.39455698303506E-02 
633	 8.40406245726528E-02 
634	 8.42514221449483E-02 
635	 0.083867417386005 
636	 8.38454791381184E-02 
637	 0.084585625639786 
638	 8.43486390602166E-02 
639	 8.38280719054409E-02 
640	 8.47228785662174E-02 
641	 8.47715883543118E-02 
642	 8.38044113189967E-02 
643	 8.42924236038531E-02 
644	 8.50095708644066E-02 
645	 8.48108188244019E-02 
646	 8.40997713703804E-02 
647	 8.34464300112885E-02 
648	 8.42058486609588E-02 
649	 8.47697700502934E-02 
650	 8.44486513857872E-02 
651	 8.35094573228916E-02 
652	 8.25130536743597E-02 
653	 0.082076058834898 
654	 8.17943364582848E-02 
655	 8.13809443944135E-02 
656	 8.02775786444573E-02 
657	 7.91649445687056E-02 
658	 7.84208828375099E-02 
659	 7.72261401748478E-02 
660	 7.58077669676415E-02 
661	 7.46555661068696E-02 
662	 7.38316661875706E-02 
663	 7.31652568352534E-02 
664	 7.18588792703954E-02 
665	 7.04021431109243E-02 
666	 6.92106506607712E-02 
667	 6.79159283592716E-02 
668	 6.65938812501263E-02 
669	 6.54711251743187E-02 
670	 6.47925217612903E-02 
671	 6.45566120489334E-02 
672	 6.41123093602105E-02 
673	 6.37247078847602E-02 
674	 6.37432129625046E-02 
675	 6.35769520860594E-02 
676	 6.31878362043399E-02 
677	 6.27889711193836E-02 
678	 6.28694422424935E-02 
679	 6.36962243198136E-02 
680	 0.06507677537722 
681	 6.62577482942722E-02 
682	 6.60936893354343E-02 
683	 6.68857283472569E-02 
684	 6.89954319381623E-02 
685	 7.10989253619389E-02 
686	 7.32076509389239E-02 
687	 7.53193808973549E-02 
688	 7.79897290217117E-02 
689	 8.09458414441676E-02 
690	 8.38662544936094E-02 
691	 8.72438524413749E-02 
692	 9.10524527623968E-02 
693	 9.39681395552329E-02 
694	 0.097031950761252 
695	 0.101154038707132 
696	 0.104705545578353 
697	 0.107757154531615 
698	 0.111566852485679 
699	 0.115039534430072 
700	 0.117706075392767 
701	 0.120588905610021 
702	 0.123552629250075 
703	 0.126281409769756 
704	 0.128810000988046 
705	 0.131136488881194 
706	 0.133031143103799 
707	 0.135165897678937 
708	 0.137856329878108 
709	 0.139892162651911 
710	 0.141483198640289 
711	 0.143345495470028 
712	 0.145004982264845 
713	 0.146426199129617 
714	 0.148148799058353 
715	 0.149564635277352 
716	 0.150188066871953 
717	 0.151081927453412 
718	 0.152603348272096 
719	 0.154805904052458 
720	 0.156148242651012 
721	 0.156374518097758 
722	 0.157362025802944 
723	 0.158689198280017 
724	 0.159712661362895 
725	 0.160247159123359 
726	 0.16054160917187 
727	 0.161676140590027 
728	 0.162880120551065 
729	 0.163771848455113 
730	 0.164620800505753 
731	 0.165440517910841 
732	 0.16621822131568 
733	 0.166764537906845 
734	 0.167234718365277 
735	 0.1682265092275 
736	 0.169227691652961 
737	 0.169858852152075 
738	 0.170278075498952 
739	 0.170703544298572 
740	 0.171492253111269 
741	 0.172178890145496 
742	 0.172620666592695 
743	 0.1728707968975 
744	 0.17319738813748 
745	 0.173816509420502 
746	 0.174513220160201 
747	 0.175122546134572 
748	 0.175314483132396 
749	 0.175807878965122 
750	 0.176653113590591 
751	 0.176604942285471 
752	 0.176341076028968 
753	 0.176645710124213 
754	 0.176674074487363 
755	 0.176621173520936 
756	 0.177593849460423 
757	 0.178216450059182 
758	 0.177907846426926 
759	 0.177285037569765 
760	 0.17679581985062 
761	 0.178202710482075 
762	 0.178820746257999 
763	 0.178561154817797 
764	 0.179459864681356 
765	 0.180399252872164 
766	 0.181041032843494 
767	 0.182091109737877 
768	 0.183015115721487 
769	 0.18312324670004 
770	 0.183323748669758 
771	 0.18374879415309 
772	 0.184072578595431 
773	 0.184178714630552 
774	 0.184086197995496 
775	 0.184728694191127 
776	 0.185512337607448 
777	 0.185093019207908 
778	 0.185406219797169 
779	 0.186623702716345 
780	 0.18692802341945 
781	 0.186727770263895 
782	 0.186485044520544 
783	 0.187095306984235 
784	 0.188117535039682 
785	 0.188340115582241 
786	 0.188033386706258 
787	 0.187504992948625 
788	 0.187839077195971 
789	 0.188397105180493 
790	 0.188511673232212 
791	 0.188304622343047 
792	 0.188047236271146 
793	 0.188372268385765 
794	 0.188567824318706 
795	 0.188437058585481 
796	 0.188275985459183 
797	 0.188592706131429 
798	 0.189774286406267 
799	 0.19014437481262 
800	 0.1897669528473 
801	 0.18971891769242 
802	 0.189927189386009 
803	 0.190372768047871 
804	 0.190844283093849 
805	 0.191167949301613 
806	 0.191214580061946 
807	 0.191640595129197 
808	 0.192345024257464 
809	 0.192631892654557 
810	 0.19284668310322 
811	 0.193101116340219 
812	 0.193211785105714 
813	 0.193147976601904 
814	 0.192909729984358 
815	 0.193361970361844 
816	 0.19421426966242 
817	 0.193692418050248 
818	 0.193745323830253 
819	 0.194934941179396 
820	 0.195342891888687 
821	 0.195530803220112 
822	 0.196305567073059 
823	 0.197417659091491 
824	 0.198482895440946 
825	 0.198790629028591 
826	 0.198694022133752 
827	 0.198443047549535 
828	 0.198476889853975 
829	 0.198779329711971 
830	 0.199248541442949 
831	 0.199751998735134 
832	 0.20013068614153 
833	 0.200024655804814 
834	 0.200294208129032 
835	 0.201067915796487 
836	 0.200772587782982 
837	 0.200227222907953 
838	 0.200475379210885 
839	 0.200933399630129 
840	 0.201296615850378 
841	 0.201067805133508 
842	 0.200749288891577 
843	 0.200625731913681 
844	 0.200894435443162 
845	 0.201278254788385 
846	 0.201440926683738 
847	 0.201297708087941 
848	 0.200964705762838 
849	 0.200808362766091 
850	 0.200795499399362 
851	 0.20086411200611 
852	 0.200652883475853 
853	 0.200481376968407 
854	 0.20066518391315 
855	 0.200145996331374 
856	 0.199106719953794 
857	 0.198414645190012 
858	 0.19816686524743 
859	 0.198400784540992 
860	 0.199134300152735 
861	 0.198954266210165 
862	 0.196802031139736 
863	 0.196895691960302 
864	 0.198601112163876 
865	 0.198397969509545 
866	 0.198823975857911 
867	 0.20008806793582 
868	 0.199133461927671 
869	 0.198978412580264 
870	 0.201823118255143 
871	 0.203322220493293 
872	 0.203449486969171 
873	 0.203527759011802 
874	 0.203466656411198 
875	 0.203510914495444 
876	 0.204448356556622 
877	 0.205056399101932 
878	 0.204691735008101 
879	 0.205634356884468 
880	 0.207535907235692 
881	 0.209336389752605 
882	 0.210803076147389 
883	 0.211929144829507 
884	 0.213261250978832 
885	 0.214220007909349 
886	 0.214541002393625 
887	 0.214828193141707 
888	 0.215244794471973 
889	 0.215899793707875 
890	 0.216790859796381 
891	 0.217666698952588 
892	 0.217845728695961 
893	 0.217625952343971 
894	 0.217248560887909 
895	 0.217211297881927 
896	 0.217532332297729 
897	 0.218136325512993 
898	 0.218396634349661 
899	 0.219104506883363 
900	 0.222745643062069 
901	 0.224506847882419 
902	 0.223538752871584 
903	 0.223969289181066 
904	 0.22510691883371 
905	 0.226229748010236 
906	 0.226695116641604 
907	 0.226321213990589 
908	 0.224978040000502 
909	 0.224518730014631 
910	 0.225607683852296 
911	 0.228195999192923 
912	 0.230147463738634 
913	 0.230178927798334 
914	 0.229205685811743 
915	 0.228364040503448 
916	 0.228828928141498 
917	 0.23003301670373 
918	 0.23093973929687 
919	 0.229044733249673 
920	 0.228125423941743 
921	 0.229641636978107 
922	 0.233812300633972 
923	 0.235149810246722 
924	 0.229455696903021 
925	 0.227548388015415 
926	 0.229096438027294 
927	 0.228997066066595 
928	 0.2277463142859 
929	 0.225726073860874 
930	 0.225218425555101 
931	 0.226023725107502 
932	 0.227831317426323 
933	 0.22948264827373 
934	 0.230722422743487 
935	 0.231413967342112 
936	 0.225947448276792 
937	 0.219858957329418 
938	 0.23138256021599 
939	 0.23705920496861 
940	 0.232407051258564 
941	 0.23300379931472 
942	 0.232285541134224 
943	 0.225714718680186 
944	 0.219386001220157 
945	 0.216239150852121 
946	 0.219282135049377 
947	 0.219015705965859 
948	 0.217086861296948 
949	 0.228709468679477 
950	 0.230617969023908 
951	 0.21803061922225 
952	 0.223177416487229 
953	 0.230280250229469 
954	 0.224387722435212 
955	 0.220840512444187 
956	 0.222871195959306 
957	 0.231818532097272 
958	 0.234566136046092 
959	 0.22948300142796 
960	 0.224032923471659 
961	 0.220797806328669 
962	 0.220621758614723 
963	 0.218362876287506 
964	 0.219734487116498 
965	 0.229357810459264 
966	 0.228996562516008 
967	 0.223332987369807 
968	 0.228032992078586 
969	 0.230112570054424 
970	 0.227128176224997 
971	 0.222602406274274 
972	 0.222822198351988 
973	 0.229435327552935 
974	 0.229851101675006 
975	 0.227607164895535 
976	 0.227854465383853 
977	 0.223996621949025 
978	 0.221105467528781 
979	 0.233031960817869 
980	 0.233766313106855 
981	 0.22164581324584 
982	 0.220877584523951 
983	 0.225919817033865 
984	 0.23257340357551 
985	 0.235691729280615 
986	 0.235235648313458 
987	 0.23226609831606 
988	 0.231879233307961 
989	 0.233555447070685 
990	 0.23426094901411 
991	 0.232644629848333 
992	 0.23005100443901 
993	 0.233108258267616 
994	 0.234866520804844 
995	 0.232844456576366 
996	 0.236325246124787 
997	 0.235020839238049 
998	 0.220630569003803 
999	 0.222697863674735 
1000	 0.234779558796199 
1001	 0.236939448900824 
1002	 0.236452205555298 
1003	 0.235189584790184 
1004	 0.234376113554018 
1005	 0.232940806741273 
1006	 0.232031192583701 
1007	 0.239977222684734 
1008	 0.24463417970132 
1009	 0.238047229483718 
1010	 0.23823740782138 
1011	 0.238288001502943 
1012	 0.226620995868866 
1013	 0.236257989936446 
1014	 0.256331930556746 
1015	 0.243680412583898 
1016	 0.236651672170758 
1017	 0.243192742583816 
1018	 0.242664191361718 
1019	 0.240862750876228 
1020	 0.241157834319752 
1021	 0.243450499822568 
1022	 0.24445924320502 
1023	 0.241508625495439 
1024	 0.242394638252882 
1025	 0.245061359726994 
1026	 0.243849749034254 
1027	 0.237612313397115 
1028	 0.232464554310207 
1029	 0.248211938044028 
1030	 0.25853202708377 
1031	 0.257100369573509 
1032	 0.259909430966371 
1033	 0.257122247386993 
1034	 0.245347012450338 
1035	 0.244209170081243 
1036	 0.247524605720125 
1037	 0.24723582568682 
1038	 0.251550418541217 
1039	 0.254632959044174 
1040	 0.245301952715181 
1041	 0.23314647471937 
1042	 0.227013047825634 
1043	 0.242508497161005 
1044	 0.255387887686552 
1045	 0.256289076639723 
1046	 0.247018657162252 
1047	 0.243195767987456 
1048	 0.252024766357911 
1049	 0.252658452233915 
1050	 0.24680572026266 
1051	 0.239574201682348 
1052	 0.238976551439635 
1053	 0.24135909266114 
1054	 0.239354253602782 
1055	 0.233849381829719 
1056	 0.231790873194382 
1057	 0.25067219053896 
1058	 0.255334873799471 
1059	 0.244788222723701 
1060	 0.261190210388806 
1061	 0.256147389524839 
1062	 0.220306706799506 
1063	 0.228196742434234 
1064	 0.24384284410072 
1065	 0.242693820627882 
1066	 0.263945824290652 
1067	 0.282295377552196 
1068	 0.268745854951269 
1069	 0.259851292453703 
1070	 0.247608312316076 
1071	 0.210563608728773 
1072	 0.217746363142649 
1073	 0.250336805491767 
1074	 0.222243103522641 
1075	 0.181628347982786 
