Wavelength	SHSI00082.asd
325	 0.117715399145749 
326	 0.121463008105557 
327	 0.11967144665987 
328	 0.112258835659366 
329	 0.108783117690399 
330	 0.110783940601099 
331	 0.105891109464288 
332	 0.103747228823406 
333	 0.113165822331141 
334	 0.111048476028443 
335	 0.102420412969089 
336	 0.108520875023677 
337	 0.113648709934849 
338	 0.11314215639524 
339	 0.107972558465277 
340	 0.106269638070821 
341	 0.113458793667475 
342	 0.114314701059923 
343	 0.110877526402891 
344	 0.111467034787503 
345	 0.111487897246205 
346	 0.110416699007983 
347	 0.110582392229056 
348	 0.11109205047523 
349	 0.111216556220783 
350	 0.110312190404142 
351	 0.109552054810553 
352	 0.110786080008993 
353	 0.112697051069854 
354	 0.114266532196133 
355	 0.113372066913236 
356	 0.112440307284364 
357	 0.112790689309879 
358	 0.112073990887688 
359	 0.111478808679408 
360	 0.113138392376927 
361	 0.114231444997085 
362	 0.114013106679533 
363	 0.112418827665593 
364	 0.111740119542764 
365	 0.112927190708488 
366	 0.113619689278764 
367	 0.113487864999496 
368	 0.112453436516702 
369	 0.112521990464386 
370	 0.113473259513384 
371	 0.112820098403988 
372	 0.112533408620783 
373	 0.113231061281797 
374	 0.111337943335694 
375	 0.109138645107377 
376	 0.110153509165399 
377	 0.109626209010119 
378	 0.107699131700634 
379	 0.10870440197305 
380	 0.109226658377588 
381	 0.107864521164264 
382	 0.107315993468718 
383	 0.10765294272037 
384	 0.108600663762451 
385	 0.10832584956946 
386	 0.107049881239083 
387	 0.107235685613551 
388	 0.10610696743534 
389	 0.103224763462878 
390	 0.10357287875618 
391	 0.105003866812291 
392	 0.104577709462357 
393	 0.104494726137273 
394	 0.104729796416206 
395	 0.103945480638073 
396	 0.103395860518575 
397	 0.103393622322725 
398	 0.102562494536512 
399	 0.101500299215797 
400	 0.100884876471543 
401	 9.98423658049263E-02 
402	 9.89964994582921E-02 
403	 0.100470129421783 
404	 0.101054469415339 
405	 9.97389595657686E-02 
406	 0.099255674470043 
407	 9.91078333257517E-02 
408	 9.83932736015871E-02 
409	 9.81244316606855E-02 
410	 9.82688611975059E-02 
411	 0.098177468009098 
412	 9.76960408857709E-02 
413	 9.69207515927645E-02 
414	 9.69957313037022E-02 
415	 9.72693257200517E-02 
416	 9.67790739361507E-02 
417	 9.63145686505641E-02 
418	 9.60892921643103E-02 
419	 0.096164374515251 
420	 9.63138530858435E-02 
421	 9.63415009531681E-02 
422	 9.58265598327108E-02 
423	 9.53381706121806E-02 
424	 9.57565470762785E-02 
425	 9.57806822806948E-02 
426	 9.52668881350539E-02 
427	 9.49710033276769E-02 
428	 9.47713906914994E-02 
429	 9.46261426050729E-02 
430	 9.48526385723444E-02 
431	 9.49875680463003E-02 
432	 9.42284785790472E-02 
433	 9.35253997565501E-02 
434	 9.31808161422957E-02 
435	 9.31075103896219E-02 
436	 9.34015994765037E-02 
437	 9.40171536314179E-02 
438	 9.40169933158722E-02 
439	 9.36401826964804E-02 
440	 9.35646223291484E-02 
441	 9.36837242570881E-02 
442	 9.38913740543834E-02 
443	 9.37690673664663E-02 
444	 9.37553398947844E-02 
445	 9.41870289369454E-02 
446	 9.46076776737182E-02 
447	 9.49120152149533E-02 
448	 9.50541793346905E-02 
449	 9.51426297622248E-02 
450	 9.52798970322812E-02 
451	 9.57342166534415E-02 
452	 9.61470998348244E-02 
453	 9.61892937258502E-02 
454	 9.66942170502935E-02 
455	 9.74206176146919E-02 
456	 9.72522462622874E-02 
457	 9.70687915442449E-02 
458	 9.72158091769835E-02 
459	 9.74302402405288E-02 
460	 9.76019537065952E-02 
461	 9.76257321096694E-02 
462	 9.75471681086828E-02 
463	 9.75132881226738E-02 
464	 9.78965005358115E-02 
465	 9.84048030498277E-02 
466	 9.88561173579632E-02 
467	 9.91820488950987E-02 
468	 0.099417291381712 
469	 0.099632644117048 
470	 9.98064590334476E-02 
471	 0.099978389980522 
472	 0.100250846673436 
473	 0.100650845459526 
474	 0.101147578262026 
475	 0.101382402358131 
476	 0.101447288898361 
477	 0.101592309615416 
478	 0.101722179979142 
479	 0.101811948971757 
480	 0.101860311550681 
481	 0.101817770408328 
482	 0.101691135035666 
483	 0.102063409606552 
484	 0.102643215659786 
485	 0.102463018453228 
486	 0.10254136200899 
487	 0.103039574375334 
488	 0.102774859992764 
489	 0.102357159113897 
490	 0.102461767233425 
491	 0.102479362248081 
492	 0.102572164636451 
493	 0.103532721057377 
494	 0.104316624140457 
495	 0.104498576081415 
496	 0.104607558714749 
497	 0.104802860171545 
498	 0.105216885927719 
499	 0.105984434231849 
500	 0.106938621190101 
501	 0.107424333337778 
502	 0.1079342470063 
503	 0.108719368461208 
504	 0.109256649807686 
505	 0.109745846049913 
506	 0.110606496815065 
507	 0.111701683366036 
508	 0.112864229857068 
509	 0.113637676698058 
510	 0.114214428434355 
511	 0.114796091099166 
512	 0.115712698482667 
513	 0.116840349663303 
514	 0.117753165851877 
515	 0.118618940746056 
516	 0.119535447577952 
517	 0.120771352962018 
518	 0.121892283141154 
519	 0.122439678632334 
520	 0.123169070523067 
521	 0.124178210955975 
522	 0.125321136611469 
523	 0.12633261172062 
524	 0.127128749934721 
525	 0.12801666421474 
526	 0.129118883201895 
527	 0.130544015776772 
528	 0.131879261600639 
529	 0.132942360247128 
530	 0.133582400230038 
531	 0.13434693199108 
532	 0.135575989614953 
533	 0.136714264679557 
534	 0.137778150748333 
535	 0.138986863979196 
536	 0.140017271208865 
537	 0.140885100950436 
538	 0.142153821727865 
539	 0.143406553722613 
540	 0.144231942410932 
541	 0.145106039292056 
542	 0.14609841647108 
543	 0.147162994997691 
544	 0.148098232867452 
545	 0.148896505469121 
546	 0.150078735735288 
547	 0.151344544141227 
548	 0.152243416433929 
549	 0.153070744284725 
550	 0.153931865016188 
551	 0.154938717463481 
552	 0.155892413813141 
553	 0.156673238480396 
554	 0.157434628050019 
555	 0.15820300720119 
556	 0.158981473954179 
557	 0.159800363637479 
558	 0.160625757021475 
559	 0.161276550462936 
560	 0.161850197289243 
561	 0.162438566964699 
562	 0.162889460870344 
563	 0.163277097974 
564	 0.163872256590747 
565	 0.16435727057135 
566	 0.164626625533199 
567	 0.164918371322405 
568	 0.165201417373853 
569	 0.165409220335484 
570	 0.165443068406145 
571	 0.16536532948907 
572	 0.165446988664884 
573	 0.16559794421757 
574	 0.165751288198976 
575	 0.165804809190188 
576	 0.16585429400103 
577	 0.166109411334985 
578	 0.166282828159725 
579	 0.166302967226416 
580	 0.166277822580398 
581	 0.166347526651039 
582	 0.166616070269232 
583	 0.166822523602495 
584	 0.16695725103232 
585	 0.167127908045408 
586	 0.167351559467013 
587	 0.167577846581391 
588	 0.167410771501415 
589	 0.167259043434727 
590	 0.167690364541253 
591	 0.168029294867824 
592	 0.168119413117825 
593	 0.168011020812507 
594	 0.168151764849418 
595	 0.168701094090099 
596	 0.168584912929249 
597	 0.168241998514528 
598	 0.168700765662185 
599	 0.16900828210222 
600	 0.168951563763197 
601	 0.168959503769862 
602	 0.168939716362891 
603	 0.168796769595543 
604	 0.168508331020642 
605	 0.168123846824539 
606	 0.167787343321347 
607	 0.167279263959965 
608	 0.166621266156216 
609	 0.166497832867753 
610	 0.166396964962916 
611	 0.165612134311463 
612	 0.164917736933488 
613	 0.164450637759907 
614	 0.164021696205763 
615	 0.16341978074092 
616	 0.162567840502471 
617	 0.161988549561275 
618	 0.161574806882571 
619	 0.160964529348006 
620	 0.160816762116926 
621	 0.161074634318475 
622	 0.160647339334183 
623	 0.16008197070335 
624	 0.159918772268249 
625	 0.160127704623119 
626	 0.160428870343592 
627	 0.160129124935249 
628	 0.159743433252692 
629	 0.159531305927947 
630	 0.159691671848832 
631	 0.15990511229056 
632	 0.159759596256283 
633	 0.159687976894651 
634	 0.159748542706434 
635	 0.159785661168461 
636	 0.159801267287445 
637	 0.159790303842249 
638	 0.159706802873569 
639	 0.159684360600238 
640	 0.159975973103129 
641	 0.160164814374624 
642	 0.160153558055239 
643	 0.160149798504314 
644	 0.160243323745812 
645	 0.160482544886435 
646	 0.160503577933813 
647	 0.160275371154168 
648	 0.159961463757196 
649	 0.159368559909726 
650	 0.158561323955199 
651	 0.158256811976147 
652	 0.158003675928092 
653	 0.157191800844204 
654	 0.155969622130732 
655	 0.154502295913284 
656	 0.15361854703148 
657	 0.152074398955693 
658	 0.149407418627489 
659	 0.147277952550525 
660	 0.145521542723332 
661	 0.143637685108527 
662	 0.141192601423902 
663	 0.138313494042956 
664	 0.136135580356928 
665	 0.134169796339759 
666	 0.132001731907456 
667	 0.130080976117452 
668	 0.128456169152472 
669	 0.127005380571568 
670	 0.125967179833027 
671	 0.125299565614164 
672	 0.124318662906397 
673	 0.123354230047143 
674	 0.12284061981545 
675	 0.122802074679755 
676	 0.123171749731338 
677	 0.123752073019508 
678	 0.124314739736091 
679	 0.124811357954679 
680	 0.125879843874982 
681	 0.127454181264851 
682	 0.129316544400857 
683	 0.131032709637236 
684	 0.132789913367312 
685	 0.135945785840021 
686	 0.139916428177572 
687	 0.144131820813829 
688	 0.148786378255899 
689	 0.153438282170132 
690	 0.158122609322618 
691	 0.163052156938447 
692	 0.168378508598207 
693	 0.173844667706952 
694	 0.179423139979448 
695	 0.184859954349783 
696	 0.190558576190874 
697	 0.196220272782657 
698	 0.20108066927585 
699	 0.206119048284952 
700	 0.211540956630343 
701	 0.21593827260106 
702	 0.219977321918314 
703	 0.224810589747221 
704	 0.229064659491264 
705	 0.232570469114374 
706	 0.235725962974103 
707	 0.238703213120273 
708	 0.241647291057366 
709	 0.244675654136657 
710	 0.247613771691683 
711	 0.250088246955956 
712	 0.252806031727966 
713	 0.255754108552399 
714	 0.257961740246279 
715	 0.259776206383857 
716	 0.261677405135724 
717	 0.264122029533636 
718	 0.266848026053901 
719	 0.26818063082315 
720	 0.269504534131247 
721	 0.271199319158336 
722	 0.272698196216534 
723	 0.27422370164032 
724	 0.275918450472833 
725	 0.277284079595338 
726	 0.278229933064776 
727	 0.279154458620879 
728	 0.28038922483407 
729	 0.281951226317962 
730	 0.282612363276099 
731	 0.283035257709481 
732	 0.284304033987343 
733	 0.284935601425318 
734	 0.285018666406854 
735	 0.285928435053397 
736	 0.286931554101072 
737	 0.287513363019682 
738	 0.2879380281678 
739	 0.288432641356336 
740	 0.289373751827762 
741	 0.289955371421765 
742	 0.290080119925746 
743	 0.29043496757793 
744	 0.291103414381585 
745	 0.292075651309444 
746	 0.292506621383215 
747	 0.292569750394594 
748	 0.293033450927726 
749	 0.293691660023731 
750	 0.294417349238391 
751	 0.294865636399121 
752	 0.295157206222982 
753	 0.295464182979096 
754	 0.296020303081871 
755	 0.296753655598571 
756	 0.297413498980159 
757	 0.297427970985613 
758	 0.296801449862669 
759	 0.298235743601321 
760	 0.302190166061927 
761	 0.304495912633679 
762	 0.304518401011915 
763	 0.303642924440311 
764	 0.304515885237746 
765	 0.304878620270985 
766	 0.304204488715108 
767	 0.303853414010704 
768	 0.303636465008374 
769	 0.303211398727437 
770	 0.303302519839831 
771	 0.30394485578404 
772	 0.304616176663843 
773	 0.30511494302539 
774	 0.305353431113657 
775	 0.305904026179495 
776	 0.306640987310992 
777	 0.307215292548254 
778	 0.30751613759054 
779	 0.307593433322751 
780	 0.307813083037635 
781	 0.308257086600596 
782	 0.308921262477192 
783	 0.309120346711915 
784	 0.309060676159256 
785	 0.309417049705479 
786	 0.309870772316907 
787	 0.310344174477242 
788	 0.310964560923718 
789	 0.3113934022177 
790	 0.311343469520221 
791	 0.311344292254656 
792	 0.311568893364582 
793	 0.312189318633114 
794	 0.312618077769962 
795	 0.312726656193384 
796	 0.313197923059428 
797	 0.313389494716154 
798	 0.312720781803974 
799	 0.312968798494417 
800	 0.313917258641174 
801	 0.313995598336294 
802	 0.314019081843875 
803	 0.314310940924141 
804	 0.314927723589464 
805	 0.315561627407273 
806	 0.315894198135336 
807	 0.316247732986035 
808	 0.316696410066792 
809	 0.317277772602247 
810	 0.317687438647342 
811	 0.317888880620534 
812	 0.318545924736966 
813	 0.319528538173079 
814	 0.320570750869432 
815	 0.321775219378876 
816	 0.322913201694497 
817	 0.323396995541071 
818	 0.323558960871801 
819	 0.323692270538235 
820	 0.324297541277832 
821	 0.325189457543547 
822	 0.326075461460134 
823	 0.326301341364874 
824	 0.326042064040502 
825	 0.326298478383735 
826	 0.326423961469292 
827	 0.326378730835901 
828	 0.327586190210447 
829	 0.328753606394796 
830	 0.328204635827772 
831	 0.328103035873589 
832	 0.328585623682379 
833	 0.328583924529433 
834	 0.328626813223171 
835	 0.328804244857314 
836	 0.328307515586911 
837	 0.327947909862719 
838	 0.328637986672302 
839	 0.328285552903707 
840	 0.32727749723252 
841	 0.328023447021488 
842	 0.328769176267636 
843	 0.328710521299397 
844	 0.327868411903432 
845	 0.327107401409757 
846	 0.32735338041092 
847	 0.327397454838335 
848	 0.327162259646641 
849	 0.327203099954742 
850	 0.327191796430873 
851	 0.327072211370084 
852	 0.327252649806975 
853	 0.327627082373879 
854	 0.327997995397373 
855	 0.327667625607368 
856	 0.326890464987031 
857	 0.326671306789451 
858	 0.326280598751882 
859	 0.32558537300926 
860	 0.324969527552115 
861	 0.325152354567296 
862	 0.326644109157823 
863	 0.32716149342405 
864	 0.326860956249585 
865	 0.327242778570943 
866	 0.327228879668702 
867	 0.326969019709637 
868	 0.32880643730783 
869	 0.330101513840448 
870	 0.328904435375783 
871	 0.328724703971553 
872	 0.329838880106509 
873	 0.331697995421225 
874	 0.333104657497635 
875	 0.333834869723599 
876	 0.335005473478306 
877	 0.335874271056976 
878	 0.336083390563146 
879	 0.337234012329485 
880	 0.339016465940826 
881	 0.340560815652883 
882	 0.341416024627087 
883	 0.341782823460855 
884	 0.342776026352361 
885	 0.344457763903363 
886	 0.346612494065107 
887	 0.347512156719723 
888	 0.347781823171136 
889	 0.3485273979359 
890	 0.349457678892675 
891	 0.350498387167983 
892	 0.351453019945286 
893	 0.35280785890079 
894	 0.354678436996802 
895	 0.35640972217951 
896	 0.357745495679389 
897	 0.358448486483056 
898	 0.359147320545314 
899	 0.360085769289474 
900	 0.361567583722596 
901	 0.362018828241998 
902	 0.361537322736671 
903	 0.363118244569854 
904	 0.364357394161681 
905	 0.363563888804583 
906	 0.363873123221153 
907	 0.364762847445864 
908	 0.364481806705049 
909	 0.364165627512603 
910	 0.364362793259455 
911	 0.365847467486708 
912	 0.367075664997217 
913	 0.367177566639191 
914	 0.367053330085477 
915	 0.367355006465166 
916	 0.36861577646756 
917	 0.366957503312366 
918	 0.364048227857118 
919	 0.366550751306181 
920	 0.36842201358133 
921	 0.367912770607801 
922	 0.368004987258512 
923	 0.367823411333408 
924	 0.366685031085209 
925	 0.367382067913228 
926	 0.369009175406754 
927	 0.368471709199081 
928	 0.368242943352737 
929	 0.369066518938796 
930	 0.370071769595509 
931	 0.371158733685964 
932	 0.371883190633726 
933	 0.370120790901658 
934	 0.368725383173821 
935	 0.372070292819572 
936	 0.374351104898141 
937	 0.374681519141172 
938	 0.3756390130274 
939	 0.372247640067876 
940	 0.365540552765481 
941	 0.366639093322769 
942	 0.368357013990453 
943	 0.365704192424727 
944	 0.36562374580503 
945	 0.367213689048882 
946	 0.36758732780022 
947	 0.369328355039952 
948	 0.371736432850395 
949	 0.370654842559965 
950	 0.369613804899299 
951	 0.369428528253546 
952	 0.365606847685862 
953	 0.361493746146933 
954	 0.360107884686264 
955	 0.358462088849978 
956	 0.358062837462205 
957	 0.362548501714999 
958	 0.362032111528299 
959	 0.356005391484343 
960	 0.350576951974912 
961	 0.351900404555084 
962	 0.360243181763847 
963	 0.361269146286382 
964	 0.357305409335983 
965	 0.352429579234329 
966	 0.353066978349249 
967	 0.357586536261983 
968	 0.361094246642425 
969	 0.358548938868855 
970	 0.351660662305275 
971	 0.352326196202419 
972	 0.353608714067887 
973	 0.352665774021899 
974	 0.357977575075325 
975	 0.362928834120261 
976	 0.359841453118919 
977	 0.359350459474153 
978	 0.36088040177858 
979	 0.358535124322914 
980	 0.358859446816866 
981	 0.362022083726297 
982	 0.361482002513266 
983	 0.360266794656548 
984	 0.35988526315723 
985	 0.358539981324658 
986	 0.357404684874842 
987	 0.35785235212871 
988	 0.360002234671669 
989	 0.362269858304219 
990	 0.361311788133526 
991	 0.363558786047271 
992	 0.368178636115211 
993	 0.365282974956037 
994	 0.362033338255325 
995	 0.361661062140597 
996	 0.359800884709837 
997	 0.359563930727042 
998	 0.363719238797615 
999	 0.366684976569909 
1000	 0.367675154107396 
1001	 0.367017389962709 
1002	 0.367686091709619 
1003	 0.368995877399248 
1004	 0.364899043731864 
1005	 0.367634691820889 
1006	 0.377920736355563 
1007	 0.371835896303381 
1008	 0.366930609642206 
1009	 0.375600385551403 
1010	 0.373984473355829 
1011	 0.368219288260931 
1012	 0.370688670574637 
1013	 0.371523918559504 
1014	 0.37001984525492 
1015	 0.369552358801354 
1016	 0.367226597011685 
1017	 0.364230357698554 
1018	 0.368701879350282 
1019	 0.371959893961916 
1020	 0.370761548954056 
1021	 0.377456061836465 
1022	 0.384283356812472 
1023	 0.382814654244208 
1024	 0.380262017667696 
1025	 0.375810058935148 
1026	 0.365946530443387 
1027	 0.370032104303846 
1028	 0.383872069061196 
1029	 0.379588497935992 
1030	 0.380424337987184 
1031	 0.390268487709201 
1032	 0.389226795285628 
1033	 0.386089952971485 
1034	 0.386357287038422 
1035	 0.385582115362545 
1036	 0.381704797399606 
1037	 0.374571417715455 
1038	 0.382243537270922 
1039	 0.394396453837699 
1040	 0.388143997489449 
1041	 0.384331662321384 
1042	 0.387770395330867 
1043	 0.399027555459243 
1044	 0.389322747480537 
1045	 0.362201634060491 
1046	 0.383504244246851 
1047	 0.392413415090736 
1048	 0.361696950656193 
1049	 0.368860756876318 
1050	 0.389513829977759 
1051	 0.394699064388271 
1052	 0.390751034140371 
1053	 0.386442777773101 
1054	 0.393888036837777 
1055	 0.395378587533981 
1056	 0.391023586752498 
1057	 0.390630683893205 
1058	 0.387048666612617 
1059	 0.381028649290254 
1060	 0.379906388982894 
1061	 0.392637383517936 
1062	 0.412628821840528 
1063	 0.38852909656543 
1064	 0.365090113598428 
1065	 0.375354929589943 
1066	 0.384877090442349 
1067	 0.382130977661503 
1068	 0.361285822289258 
1069	 0.354444512176683 
1070	 0.357693413415591 
1071	 0.352971168694926 
1072	 0.368270575943121 
1073	 0.392497906625063 
1074	 0.387054255300056 
1075	 0.364915567621009 
