Wavelength	SHSI00137.asd
325	 5.18561155826818E-02 
326	 5.24106668099843E-02 
327	 6.15928130228405E-02 
328	 0.064353230492618 
329	 6.03486831443755E-02 
330	 5.23648124764626E-02 
331	 5.48273601326671E-02 
332	 5.99850672046629E-02 
333	 0.059588378544194 
334	 5.71993701734332E-02 
335	 5.43996123992878E-02 
336	 5.26586782110193E-02 
337	 5.51353076035987E-02 
338	 6.04979180849891E-02 
339	 5.86887073794501E-02 
340	 5.52648402005118E-02 
341	 5.51204145735678E-02 
342	 5.57228875140483E-02 
343	 0.056525273732608 
344	 5.71249579343845E-02 
345	 5.83977110665642E-02 
346	 6.00771008182194E-02 
347	 6.08157955369651E-02 
348	 5.91379200976072E-02 
349	 5.48453216257556E-02 
350	 5.47467838986224E-02 
351	 5.67657245820183E-02 
352	 5.61018941711352E-02 
353	 5.73765633919647E-02 
354	 5.99455069969295E-02 
355	 5.77508464140285E-02 
356	 5.52032442957794E-02 
357	 5.51713607279857E-02 
358	 5.72238641284536E-02 
359	 5.90506164205787E-02 
360	 5.72818176300244E-02 
361	 5.71714088416606E-02 
362	 5.83399330335926E-02 
363	 5.43444516865129E-02 
364	 5.37309043875119E-02 
365	 5.94631470377355E-02 
366	 0.059262102540235 
367	 5.52401361555673E-02 
368	 5.18108324923643E-02 
369	 5.28762666050543E-02 
370	 5.67565485720258E-02 
371	 5.43512204463743E-02 
372	 5.24526895098569E-02 
373	 5.41995352241668E-02 
374	 5.43385036824084E-02 
375	 0.053769190342196 
376	 5.44474123699848E-02 
377	 5.50128334478872E-02 
378	 0.055135182242619 
379	 5.48732592458419E-02 
380	 5.44735956773782E-02 
381	 5.40209134842499E-02 
382	 0.052917650272158 
383	 5.20184399577185E-02 
384	 5.24758222719312E-02 
385	 5.25645908395856E-02 
386	 5.23096336873591E-02 
387	 5.34101039092817E-02 
388	 5.31455754818802E-02 
389	 5.11096043879177E-02 
390	 5.30789449255719E-02 
391	 5.50768882680774E-02 
392	 5.22382956879326E-02 
393	 5.17278916245422E-02 
394	 5.33424113856956E-02 
395	 5.17019658097445E-02 
396	 5.13032728290563E-02 
397	 5.32932628768544E-02 
398	 5.28091599370197E-02 
399	 5.17144410869805E-02 
400	 5.22716468946577E-02 
401	 5.36364669862255E-02 
402	 5.46840197951003E-02 
403	 5.29541573522511E-02 
404	 5.18084484709541E-02 
405	 5.25691707518663E-02 
406	 5.43292887060649E-02 
407	 5.52086173973762E-02 
408	 5.31193284817709E-02 
409	 5.27813805892528E-02 
410	 5.40543457824263E-02 
411	 0.053100832979504 
412	 5.27261754301496E-02 
413	 5.38600433927216E-02 
414	 5.34212480798034E-02 
415	 5.26950650974411E-02 
416	 5.36779631739688E-02 
417	 5.42531989320468E-02 
418	 5.41568681020422E-02 
419	 5.42143137453556E-02 
420	 5.41059819471107E-02 
421	 5.37090328217698E-02 
422	 5.32824597753513E-02 
423	 5.31388700417061E-02 
424	 5.36661967172005E-02 
425	 5.40792205550465E-02 
426	 5.41439719937048E-02 
427	 5.38086152762655E-02 
428	 5.37667619569843E-02 
429	 5.44284769800003E-02 
430	 5.52474036828873E-02 
431	 5.56899624114822E-02 
432	 5.50153784764216E-02 
433	 5.47282036852923E-02 
434	 5.49818894600933E-02 
435	 5.45764730777174E-02 
436	 5.44102022451189E-02 
437	 5.49226176440658E-02 
438	 5.42406520776034E-02 
439	 5.33501381298869E-02 
440	 5.45633836435576E-02 
441	 5.55517537271357E-02 
442	 5.56798174302547E-02 
443	 5.56104714423104E-02 
444	 5.52330479105803E-02 
445	 5.45539706453312E-02 
446	 5.47404086968777E-02 
447	 0.055560242069188 
448	 5.61251043264229E-02 
449	 5.63220121077985E-02 
450	 5.60878787404028E-02 
451	 5.55505992039811E-02 
452	 5.51501592296919E-02 
453	 5.52935010268123E-02 
454	 0.055591301837647 
455	 5.58958028673573E-02 
456	 5.60575899864768E-02 
457	 5.62257821522527E-02 
458	 5.63629979949069E-02 
459	 5.58728060701528E-02 
460	 5.54498670384484E-02 
461	 5.59430098514072E-02 
462	 5.65112104923235E-02 
463	 5.67660600221234E-02 
464	 5.61277859268772E-02 
465	 5.57556966254653E-02 
466	 5.62378784546404E-02 
467	 5.69768053110802E-02 
468	 5.74176969826788E-02 
469	 5.68743926800816E-02 
470	 5.66597100411571E-02 
471	 5.70506116425856E-02 
472	 5.77389132581586E-02 
473	 5.78947476967723E-02 
474	 5.71026230493103E-02 
475	 0.056670485155963 
476	 5.65825989227533E-02 
477	 5.63818516873132E-02 
478	 5.73223352352675E-02 
479	 5.89743965648508E-02 
480	 0.058180801432415 
481	 0.057000526867178 
482	 5.71686129042285E-02 
483	 5.78697780765567E-02 
484	 5.86416729847241E-02 
485	 5.87100884472176E-02 
486	 5.86778696689117E-02 
487	 5.87671621726003E-02 
488	 5.89935334519854E-02 
489	 5.89548095055089E-02 
490	 5.83114974572195E-02 
491	 0.058429175282261 
492	 5.91274047968129E-02 
493	 0.05921334505802 
494	 5.90679233496516E-02 
495	 5.89042302111018E-02 
496	 5.91551550082568E-02 
497	 5.92844391566065E-02 
498	 5.85537119743135E-02 
499	 0.058452015302227 
500	 5.91247331250129E-02 
501	 5.96976198759978E-02 
502	 6.02343671084219E-02 
503	 6.06550202822345E-02 
504	 6.02043743675455E-02 
505	 5.95368785916805E-02 
506	 5.98339453211227E-02 
507	 6.06545403321009E-02 
508	 6.15994869301461E-02 
509	 6.16963898679459E-02 
510	 6.14814986123576E-02 
511	 6.14348000129559E-02 
512	 6.16793528175165E-02 
513	 6.20415035024404E-02 
514	 6.20315634526345E-02 
515	 6.20551162481389E-02 
516	 6.23309685303467E-02 
517	 6.32574952447113E-02 
518	 6.38589388151125E-02 
519	 6.31462750587899E-02 
520	 6.33090115961598E-02 
521	 6.41926343718583E-02 
522	 6.40797459476615E-02 
523	 6.39870019288713E-02 
524	 6.43493280974478E-02 
525	 6.48689375092048E-02 
526	 6.52882196577669E-02 
527	 6.52883831137431E-02 
528	 6.54009050552181E-02 
529	 6.57574865891719E-02 
530	 6.63322215088527E-02 
531	 6.66335226842301E-02 
532	 6.64534298815593E-02 
533	 6.71484116306771E-02 
534	 6.80817500245398E-02 
535	 6.75876591569677E-02 
536	 6.74060064061131E-02 
537	 6.78792866921011E-02 
538	 6.78798075552907E-02 
539	 6.75604524757247E-02 
540	 6.71741770676064E-02 
541	 0.067654049817888 
542	 6.86257188553887E-02 
543	 6.85983702050237E-02 
544	 6.85308450468628E-02 
545	 6.87667370474722E-02 
546	 6.88231172060259E-02 
547	 6.89371323909933E-02 
548	 6.94620721804529E-02 
549	 6.95673465189534E-02 
550	 6.92930787102177E-02 
551	 0.069491088062153 
552	 6.98832165964102E-02 
553	 7.02624629246387E-02 
554	 7.04510316142592E-02 
555	 7.04909494241952E-02 
556	 7.05218273542476E-02 
557	 7.04799016968193E-02 
558	 7.04651698834103E-02 
559	 7.09925335130339E-02 
560	 0.071409055347427 
561	 7.11310529616622E-02 
562	 7.08770288206308E-02 
563	 7.08053632955636E-02 
564	 7.08847050811786E-02 
565	 7.13236008864542E-02 
566	 7.19677485851251E-02 
567	 7.13663755450554E-02 
568	 7.06689798011518E-02 
569	 7.14875056533201E-02 
570	 7.18483287740137E-02 
571	 7.15518502708705E-02 
572	 7.17194675930218E-02 
573	 7.18187911856696E-02 
574	 7.16102114873536E-02 
575	 7.18913089294496E-02 
576	 7.23114077970076E-02 
577	 7.20128637851157E-02 
578	 7.19668037726207E-02 
579	 7.24259007300636E-02 
580	 7.31334069314802E-02 
581	 7.34420443970799E-02 
582	 7.28661151122167E-02 
583	 7.25655754218139E-02 
584	 7.26976669716659E-02 
585	 7.30960767430127E-02 
586	 7.32797901611527E-02 
587	 7.31444943852043E-02 
588	 7.35530303967385E-02 
589	 7.40998115818953E-02 
590	 7.41409238816307E-02 
591	 7.41285133331921E-02 
592	 7.41276933456723E-02 
593	 7.38993028121025E-02 
594	 0.074006279950911 
595	 7.46973052460669E-02 
596	 7.51550933057982E-02 
597	 7.51902461760271E-02 
598	 7.46648394896669E-02 
599	 7.43919174982102E-02 
600	 7.45416530283867E-02 
601	 7.44875845330588E-02 
602	 7.45690126202438E-02 
603	 7.50590924883398E-02 
604	 7.53396176575278E-02 
605	 7.53809648972775E-02 
606	 7.54577023058079E-02 
607	 0.075281366464842 
608	 7.48247442042507E-02 
609	 0.074465483021055 
610	 7.47072056788914E-02 
611	 7.60906198650644E-02 
612	 7.64985461376583E-02 
613	 7.59825241587353E-02 
614	 7.68056356442845E-02 
615	 7.70065831436987E-02 
616	 7.57088979349445E-02 
617	 7.60911737032236E-02 
618	 0.077204038283161 
619	 7.66095320905208E-02 
620	 7.64596338053969E-02 
621	 7.71124399844768E-02 
622	 7.73140348417674E-02 
623	 7.71890972679406E-02 
624	 7.69204643172105E-02 
625	 7.68882072404055E-02 
626	 7.72666471511019E-02 
627	 7.83441695205935E-02 
628	 0.079153257624287 
629	 7.92470477098699E-02 
630	 0.078747901089485 
631	 0.078510883699334 
632	 0.079534325727157 
633	 7.98059357873927E-02 
634	 7.92919317026236E-02 
635	 7.96588291660752E-02 
636	 7.96478618126566E-02 
637	 7.87483129185089E-02 
638	 7.91878860712764E-02 
639	 8.00849561769149E-02 
640	 7.93200058253802E-02 
641	 7.90401948942755E-02 
642	 7.96941800567259E-02 
643	 8.03291217306019E-02 
644	 8.01840942411857E-02 
645	 7.87759953962299E-02 
646	 7.86838472565349E-02 
647	 7.96369973870577E-02 
648	 7.95213211141046E-02 
649	 7.93067961468356E-02 
650	 7.94256794338074E-02 
651	 8.03728847933406E-02 
652	 8.09953550730229E-02 
653	 7.99194872792301E-02 
654	 7.94893316948194E-02 
655	 7.99446018762992E-02 
656	 7.99594349539602E-02 
657	 7.98327321653843E-02 
658	 7.97312765927486E-02 
659	 7.95206926202379E-02 
660	 7.93947596818313E-02 
661	 7.97131761665928E-02 
662	 7.95253961519098E-02 
663	 7.89014230433154E-02 
664	 7.94054089747793E-02 
665	 7.98493867008271E-02 
666	 7.92866707558767E-02 
667	 7.92868580673992E-02 
668	 7.95413390724522E-02 
669	 7.84984686329666E-02 
670	 7.79537357567498E-02 
671	 7.85286525065012E-02 
672	 7.95819613143036E-02 
673	 8.05046142444626E-02 
674	 0.080685319068306 
675	 8.05842149289666E-02 
676	 8.04609981960789E-02 
677	 8.06794493497667E-02 
678	 8.11101508628192E-02 
679	 8.16679918090602E-02 
680	 8.22491696040044E-02 
681	 8.28613436717849E-02 
682	 8.35486502824481E-02 
683	 8.41708671233036E-02 
684	 8.48545807669551E-02 
685	 8.63200398353956E-02 
686	 8.78591768119566E-02 
687	 8.88456587625743E-02 
688	 9.02220539146154E-02 
689	 0.091751388129693 
690	 9.28064136072524E-02 
691	 9.42842925999712E-02 
692	 9.61603224405391E-02 
693	 9.65602660111107E-02 
694	 9.72152241211576E-02 
695	 0.099876678371951 
696	 0.101889547620637 
697	 0.103232859903279 
698	 0.105532660113831 
699	 0.107343364088419 
700	 0.108254454808329 
701	 0.110674893812808 
702	 0.113315590020655 
703	 0.114119099081889 
704	 0.114985247395675 
705	 0.116246231318807 
706	 0.117257827307964 
707	 0.118217799097732 
708	 0.119301894655669 
709	 0.120880114432974 
710	 0.122652787374446 
711	 0.124020050756915 
712	 0.125034257713322 
713	 0.125891035039903 
714	 0.127338116289156 
715	 0.129252182279765 
716	 0.131608873074543 
717	 0.134213051877773 
718	 0.136621679984822 
719	 0.137447348337263 
720	 0.137819827200794 
721	 0.138264977426491 
722	 0.138492643647465 
723	 0.138979892182886 
724	 0.140258603528779 
725	 0.141828957611484 
726	 0.143240212023994 
727	 0.143975580898878 
728	 0.144686547137068 
729	 0.145673425353456 
730	 0.146604996885934 
731	 0.147090381309401 
732	 0.146683471070201 
733	 0.146830345314663 
734	 0.147586112448869 
735	 0.147776167443827 
736	 0.148545839385656 
737	 0.150394138954593 
738	 0.150872878873392 
739	 0.15049114253205 
740	 0.150804255832825 
741	 0.151433095261339 
742	 0.15226789351292 
743	 0.153198788228505 
744	 0.153973009405024 
745	 0.154410435636708 
746	 0.154826722910799 
747	 0.155401064385947 
748	 0.156469979627415 
749	 0.157166973040069 
750	 0.157451879406883 
751	 0.158987786418379 
752	 0.16070285201414 
753	 0.161361014807469 
754	 0.161479777168192 
755	 0.16155608993443 
756	 0.162585958650806 
757	 0.163988570134235 
758	 0.165694792711585 
759	 0.168461397601525 
760	 0.173277462802451 
761	 0.176749315415301 
762	 0.178322795555044 
763	 0.178211799760166 
764	 0.176332904381956 
765	 0.175429606490842 
766	 0.175975429834756 
767	 0.175171265566238 
768	 0.174150717418764 
769	 0.174382449144023 
770	 0.174672965808401 
771	 0.175060161447558 
772	 0.176764082384459 
773	 0.178103310941924 
774	 0.178115981213457 
775	 0.178995131239636 
776	 0.18027529505088 
777	 0.180531175229946 
778	 0.181152565940926 
779	 0.182414917926843 
780	 0.183701201980668 
781	 0.184645754991459 
782	 0.185043828259595 
783	 0.185814297196178 
784	 0.186950419206021 
785	 0.188093300916686 
786	 0.189150853086604 
787	 0.190134768860282 
788	 0.191343224000509 
789	 0.192589490053813 
790	 0.193659482380982 
791	 0.194523319820791 
792	 0.195030241931836 
793	 0.194614821562619 
794	 0.195509686373919 
795	 0.198161124825099 
796	 0.200262783846037 
797	 0.201545324504819 
798	 0.201951957455928 
799	 0.20220264642205 
800	 0.20276341966411 
801	 0.204437975133291 
802	 0.205641270178134 
803	 0.205925058619035 
804	 0.206864991181227 
805	 0.207933579910026 
806	 0.20846749939254 
807	 0.208730360314935 
808	 0.209521569366191 
809	 0.213111460321417 
810	 0.215922274773573 
811	 0.216576771906358 
812	 0.217721181808721 
813	 0.21954302796551 
814	 0.221928084098518 
815	 0.224037972567078 
816	 0.225561173635774 
817	 0.226693106533269 
818	 0.227156367357288 
819	 0.227157487358122 
820	 0.227916715117293 
821	 0.229562758883258 
822	 0.232036117640226 
823	 0.232630954639431 
824	 0.231711917270059 
825	 0.232208893442916 
826	 0.232884732131474 
827	 0.233618281521151 
828	 0.236615352596745 
829	 0.239243366680953 
830	 0.238227768868016 
831	 0.238609272179945 
832	 0.240834204875308 
833	 0.243167730362839 
834	 0.243412433943193 
835	 0.241427278106407 
836	 0.242616505119005 
837	 0.244745167054428 
838	 0.244849135805827 
839	 0.245905512711745 
840	 0.247626967320564 
841	 0.247463734325974 
842	 0.247363320012079 
843	 0.248152596218243 
844	 0.24932673208906 
845	 0.250740047323552 
846	 0.25225771192592 
847	 0.253529675628697 
848	 0.254698082976647 
849	 0.256671773335958 
850	 0.257092425108962 
851	 0.25572623964104 
852	 0.257343459476323 
853	 0.259552365703982 
854	 0.259540813639323 
855	 0.260575130306288 
856	 0.262456500577761 
857	 0.263129703371298 
858	 0.263903484632282 
859	 0.265136377651886 
860	 0.26635481769273 
861	 0.267431943061358 
862	 0.268308188341648 
863	 0.269614460237234 
864	 0.270981851248042 
865	 0.271112946483391 
866	 0.272656370172276 
867	 0.275700437460815 
868	 0.276086905342355 
869	 0.276701522627952 
870	 0.279731836443324 
871	 0.281394076697915 
872	 0.281769106291609 
873	 0.282135090256507 
874	 0.282359440670045 
875	 0.282805425045959 
876	 0.284709672576193 
877	 0.286620208187004 
878	 0.287668515036552 
879	 0.290207105647592 
880	 0.293159496415954 
881	 0.294343418515147 
882	 0.294912877265496 
883	 0.295762765450457 
884	 0.299060991454639 
885	 0.301162472870257 
886	 0.300362580166828 
887	 0.300023090516757 
888	 0.301235668457507 
889	 0.304794064774767 
890	 0.306272882760622 
891	 0.306650227532561 
892	 0.313147638693966 
893	 0.317075077372429 
894	 0.315372169307781 
895	 0.317581324128935 
896	 0.320698922942156 
897	 0.320432463905215 
898	 0.323153568855937 
899	 0.327847978222556 
900	 0.328869344537229 
901	 0.329581081915928 
902	 0.330726158950211 
903	 0.330517175776146 
904	 0.330364092327406 
905	 0.331490688086827 
906	 0.333993108334023 
907	 0.337347233409463 
908	 0.340627866818116 
909	 0.3417653740203 
910	 0.341098114233704 
911	 0.342607481016906 
912	 0.344243324778567 
913	 0.34510545334032 
914	 0.347699261838332 
915	 0.350345147274975 
916	 0.350840337501479 
917	 0.348431667562865 
918	 0.346367948448067 
919	 0.354578707854141 
920	 0.356679524750592 
921	 0.349261183095738 
922	 0.345604997948135 
923	 0.347845341585447 
924	 0.356609863616844 
925	 0.359994206510434 
926	 0.358869775996713 
927	 0.360571691881533 
928	 0.36446762697966 
929	 0.36987833600171 
930	 0.372858878473573 
931	 0.374692213746473 
932	 0.376653600900387 
933	 0.380590633081716 
934	 0.385019980452151 
935	 0.387108207054293 
936	 0.384594313661109 
937	 0.379428339364183 
938	 0.378456471632321 
939	 0.372442447258745 
940	 0.364509988860398 
941	 0.382124324783001 
942	 0.394587594583443 
943	 0.382705595232392 
944	 0.383260828056594 
945	 0.388576583989883 
946	 0.37891843267961 
947	 0.37271206217312 
948	 0.37540843762094 
949	 0.388623340727105 
950	 0.3944481456418 
951	 0.387201738865352 
952	 0.379190112909608 
953	 0.374370593663945 
954	 0.376002185772769 
955	 0.38193720033505 
956	 0.388039472827321 
957	 0.388099588343257 
958	 0.3865226646431 
959	 0.384340668778212 
960	 0.37947802030968 
961	 0.380635300246653 
962	 0.388445408065021 
963	 0.381840470507284 
964	 0.375134274084235 
965	 0.382464300427066 
966	 0.388024315963223 
967	 0.387586618392596 
968	 0.377332229280163 
969	 0.380091395375731 
970	 0.393711801767282 
971	 0.385828474136001 
972	 0.378289497042336 
973	 0.382166507986882 
974	 0.38338111412456 
975	 0.383649414975332 
976	 0.386061865948436 
977	 0.38794530553563 
978	 0.387453744242325 
979	 0.381653644133386 
980	 0.37872356278538 
981	 0.380976138199042 
982	 0.387089122216206 
983	 0.39083170424876 
984	 0.38955892287265 
985	 0.387365508836524 
986	 0.388607642760091 
987	 0.396310039119855 
988	 0.395929498668059 
989	 0.389705797303727 
990	 0.387338259957394 
991	 0.383464381323062 
992	 0.381085858414286 
993	 0.396210661975269 
994	 0.399855603436824 
995	 0.382394788318445 
996	 0.385901312212585 
997	 0.39611424965515 
998	 0.397294606554246 
999	 0.406252977436574 
1000	 0.411298405516026 
1001	 0.389082328063942 
1002	 0.389913784326637 
1003	 0.411231940180471 
1004	 0.39728415217414 
1005	 0.388578560710329 
1006	 0.398282060761498 
1007	 0.404309199413087 
1008	 0.406062552872091 
1009	 0.403980574735671 
1010	 0.402183337679084 
1011	 0.40334760011193 
1012	 0.409627681712837 
1013	 0.415544148986147 
1014	 0.416101929650818 
1015	 0.401627420841847 
1016	 0.39693620591092 
1017	 0.40708946965776 
1018	 0.417966121072388 
1019	 0.422422779889855 
1020	 0.418599013575311 
1021	 0.426406321288642 
1022	 0.431319822810706 
1023	 0.42045890227897 
1024	 0.423429371725162 
1025	 0.429131763566696 
1026	 0.410816251180647 
1027	 0.406374174820323 
1028	 0.414872495999216 
1029	 0.402735658799545 
1030	 0.402091428990395 
1031	 0.417956381847589 
1032	 0.422451445769802 
1033	 0.420605821767081 
1034	 0.416370567843722 
1035	 0.40925519198114 
1036	 0.406384166253725 
1037	 0.414316367065007 
1038	 0.415334831042149 
1039	 0.415891138082348 
1040	 0.433075165676307 
1041	 0.442154165247923 
1042	 0.437696368792779 
1043	 0.430266774973726 
1044	 0.418163940330419 
1045	 0.400823568893815 
1046	 0.370399302992558 
1047	 0.370352324219744 
1048	 0.414138711830687 
1049	 0.422212943322822 
1050	 0.421575628802383 
1051	 0.439639500526764 
1052	 0.416289944040541 
1053	 0.395532891031548 
1054	 0.457973784682426 
1055	 0.450400800032603 
1056	 0.388494091527001 
1057	 0.389176203228027 
1058	 0.412835638515654 
1059	 0.436079904330397 
1060	 0.423004355354401 
1061	 0.41647615202052 
1062	 0.431399867259168 
1063	 0.439050563631825 
1064	 0.422130219126864 
1065	 0.376273039469969 
1066	 0.367420992236201 
1067	 0.378861681510732 
1068	 0.378996889258794 
1069	 0.3841070562745 
1070	 0.394955247855807 
1071	 0.404415742220022 
1072	 0.372769639595382 
1073	 0.322814729534076 
1074	 0.381555672019474 
1075	 0.398803719906824 
