Wavelength	SHSI00159.asd
325	 4.14486741896632E-02 
326	 4.33343125985106E-02 
327	 0.045034798852834 
328	 0.048508914614107 
329	 4.75758479290766E-02 
330	 4.15191580215773E-02 
331	 3.81873785264244E-02 
332	 3.65271914752915E-02 
333	 3.50503409044628E-02 
334	 3.54193888646099E-02 
335	 3.75590556205671E-02 
336	 4.13178731383968E-02 
337	 4.32904714882409E-02 
338	 4.25760324299631E-02 
339	 0.041289142891651 
340	 3.78910505652714E-02 
341	 3.19296227632487E-02 
342	 3.40978848268101E-02 
343	 4.01733513787676E-02 
344	 3.97792701188651E-02 
345	 3.77670457976447E-02 
346	 3.59848562782432E-02 
347	 3.61617113933137E-02 
348	 3.65011651257684E-02 
349	 3.61423613797899E-02 
350	 3.93118103174883E-02 
351	 4.23999784932304E-02 
352	 3.90775716951487E-02 
353	 3.68270348622488E-02 
354	 3.71125307026513E-02 
355	 3.76838445918159E-02 
356	 3.88722369383923E-02 
357	 4.05654153185201E-02 
358	 4.06280320800936E-02 
359	 3.99655801425366E-02 
360	 4.02851231949226E-02 
361	 4.02262190349963E-02 
362	 3.92526346304039E-02 
363	 3.63224655562595E-02 
364	 3.50959387033746E-02 
365	 0.037167267216108 
366	 3.90858699648273E-02 
367	 3.98714378725958E-02 
368	 3.87881967746104E-02 
369	 3.84210514380685E-02 
370	 3.90970044969665E-02 
371	 3.98323927604768E-02 
372	 3.93674992163647E-02 
373	 3.75011722985315E-02 
374	 3.81607212922635E-02 
375	 3.92666387343136E-02 
376	 3.75034483392078E-02 
377	 3.60644968047548E-02 
378	 0.035732276510087 
379	 0.036390942933006 
380	 3.68956027643502E-02 
381	 3.67616950115556E-02 
382	 3.73714323292743E-02 
383	 3.79513532223654E-02 
384	 3.73805811199422E-02 
385	 3.58924922662095E-02 
386	 3.44119640767215E-02 
387	 3.53652011448943E-02 
388	 3.62103739967265E-02 
389	 3.58485480814364E-02 
390	 3.55395177045244E-02 
391	 3.54391819758865E-02 
392	 3.55786884201231E-02 
393	 3.49792802599144E-02 
394	 3.40591881819231E-02 
395	 3.45154558678753E-02 
396	 3.52434713651132E-02 
397	 3.56326163746647E-02 
398	 3.52308264191434E-02 
399	 3.47135217425301E-02 
400	 3.47758484278227E-02 
401	 3.49288907406147E-02 
402	 0.035028548990882 
403	 3.49727032649111E-02 
404	 3.48500396060089E-02 
405	 3.47341946660171E-02 
406	 3.49048029533572E-02 
407	 3.48372503215607E-02 
408	 3.38966271070634E-02 
409	 3.38623203572227E-02 
410	 3.46853797214179E-02 
411	 3.51408922935633E-02 
412	 0.03502624694363 
413	 3.43753460227611E-02 
414	 3.41608154989683E-02 
415	 3.41129092334872E-02 
416	 3.37482197235517E-02 
417	 3.40139091721563E-02 
418	 3.46865042240953E-02 
419	 3.44514634989059E-02 
420	 0.034027745350185 
421	 3.38543104885352E-02 
422	 3.41327389615795E-02 
423	 3.43365054058493E-02 
424	 3.36669073590451E-02 
425	 3.36742990723151E-02 
426	 3.42790865918909E-02 
427	 3.36517545559884E-02 
428	 3.32413264144364E-02 
429	 3.38566850875178E-02 
430	 3.39277034526903E-02 
431	 3.36991489593587E-02 
432	 3.39365024844205E-02 
433	 3.39118782844443E-02 
434	 3.36280233746993E-02 
435	 3.38065087116457E-02 
436	 3.39383838422135E-02 
437	 3.37327883184223E-02 
438	 3.38246861466915E-02 
439	 3.40302292177427E-02 
440	 3.38498751597406E-02 
441	 3.37530925986807E-02 
442	 3.37538442525443E-02 
443	 0.033186935871613 
444	 3.30824944811679E-02 
445	 3.41172483572753E-02 
446	 3.40731213715126E-02 
447	 3.32943972578487E-02 
448	 3.33575665703495E-02 
449	 0.033540833105232 
450	 3.36467055437189E-02 
451	 3.38261976271067E-02 
452	 3.38609250427999E-02 
453	 3.35717732197719E-02 
454	 3.37342105622926E-02 
455	 3.41897090896476E-02 
456	 0.034063723695219 
457	 3.39506281763345E-02 
458	 3.40427427622456E-02 
459	 3.39683950781265E-02 
460	 3.39331139523552E-02 
461	 3.41978606855201E-02 
462	 3.42491557789473E-02 
463	 3.40646099944718E-02 
464	 3.39666032052219E-02 
465	 3.38276514188085E-02 
466	 0.033649573280529 
467	 3.38362616162969E-02 
468	 3.41624119852097E-02 
469	 3.42436728145896E-02 
470	 3.40952246740313E-02 
471	 3.37957542006511E-02 
472	 3.35609103510478E-02 
473	 3.35868990534872E-02 
474	 0.033971725764089 
475	 3.44592820983453E-02 
476	 3.47675485783812E-02 
477	 3.44892945796845E-02 
478	 3.43735353089312E-02 
479	 3.44921317947282E-02 
480	 3.40640541693943E-02 
481	 0.033794176903496 
482	 0.034210545994158 
483	 3.44279616725995E-02 
484	 3.43621066754012E-02 
485	 3.41632848705296E-02 
486	 3.41522112724886E-02 
487	 3.43666783194604E-02 
488	 3.42235883783088E-02 
489	 3.40277557928239E-02 
490	 3.41212991841863E-02 
491	 3.43106047918306E-02 
492	 3.44873400519441E-02 
493	 3.44832029874938E-02 
494	 0.034420133411312 
495	 3.43848657756349E-02 
496	 3.45294848906017E-02 
497	 3.47482742312654E-02 
498	 3.48876627234956E-02 
499	 3.50021542752099E-02 
500	 3.50858865192028E-02 
501	 3.51346444644029E-02 
502	 3.49488436251226E-02 
503	 3.45247275092644E-02 
504	 3.47702932323659E-02 
505	 3.53275091605661E-02 
506	 3.54326456074395E-02 
507	 3.52603803215783E-02 
508	 3.50035461165145E-02 
509	 3.52272578892014E-02 
510	 3.56382488485151E-02 
511	 3.59560104892482E-02 
512	 3.58978113424624E-02 
513	 3.56963061497034E-02 
514	 3.60195766742948E-02 
515	 3.63012671686389E-02 
516	 3.63492146646016E-02 
517	 3.63056908051101E-02 
518	 3.62667004352997E-02 
519	 3.63227526393491E-02 
520	 3.63505599775525E-02 
521	 3.63821546029539E-02 
522	 3.65643493650133E-02 
523	 3.68133605879095E-02 
524	 3.70514605716496E-02 
525	 3.70354564000062E-02 
526	 3.70092847425525E-02 
527	 3.73507438936979E-02 
528	 3.75334081099417E-02 
529	 3.74905475605539E-02 
530	 3.74859881184181E-02 
531	 3.75609351437185E-02 
532	 3.77310905548622E-02 
533	 0.037864110958124 
534	 3.79303372479091E-02 
535	 3.78955813556753E-02 
536	 3.80485346292659E-02 
537	 3.83741567606535E-02 
538	 3.83469622237381E-02 
539	 3.81892462200046E-02 
540	 3.81493645199188E-02 
541	 3.83173363978091E-02 
542	 3.85842069834528E-02 
543	 3.86275166533477E-02 
544	 3.85510330490397E-02 
545	 3.84521746730176E-02 
546	 3.86349105945152E-02 
547	 3.89478914101537E-02 
548	 3.91581149188057E-02 
549	 3.91750650626384E-02 
550	 3.90635019266915E-02 
551	 3.91467106594297E-02 
552	 0.03921173624887 
553	 3.91523186568889E-02 
554	 3.92601395871316E-02 
555	 3.94633555282463E-02 
556	 3.95587591218313E-02 
557	 3.96496638964233E-02 
558	 3.97380716082615E-02 
559	 3.97008960293748E-02 
560	 0.039687532344501 
561	 3.98174049570888E-02 
562	 3.96944414240629E-02 
563	 3.94590553293166E-02 
564	 3.96713584708564E-02 
565	 3.98615479198977E-02 
566	 3.98631708979831E-02 
567	 3.99108951840596E-02 
568	 4.00092759309765E-02 
569	 4.01382869601715E-02 
570	 4.01855473261466E-02 
571	 4.01237350313298E-02 
572	 3.99705958802204E-02 
573	 3.98305596202312E-02 
574	 3.97868564462286E-02 
575	 0.039922438456346 
576	 4.01044494243223E-02 
577	 4.00657401918309E-02 
578	 4.01324789066333E-02 
579	 4.03659619358912E-02 
580	 0.040594894211004 
581	 4.06624868837134E-02 
582	 4.04587435778029E-02 
583	 4.02987741959083E-02 
584	 0.040254786617462 
585	 4.03422298263389E-02 
586	 4.04030229224258E-02 
587	 4.03964678993668E-02 
588	 4.05583895718046E-02 
589	 4.07132908294561E-02 
590	 4.06090278413954E-02 
591	 4.05064272022783E-02 
592	 4.04784562024228E-02 
593	 4.05221842497556E-02 
594	 4.05525039918861E-02 
595	 4.05572681641047E-02 
596	 4.09234071669291E-02 
597	 4.12787582013041E-02 
598	 4.08890190783194E-02 
599	 4.05574665430333E-02 
600	 0.040525388172556 
601	 4.06383259414311E-02 
602	 4.07416416383899E-02 
603	 4.07195337354137E-02 
604	 4.09078512257876E-02 
605	 4.12021329160503E-02 
606	 4.11775769656553E-02 
607	 4.12201952522852E-02 
608	 4.14454188735628E-02 
609	 4.16134737855374E-02 
610	 0.041569369088012 
611	 4.11591667112696E-02 
612	 4.10906546217015E-02 
613	 4.13757159385073E-02 
614	 4.14524190643457E-02 
615	 4.12642150763444E-02 
616	 4.08460040332273E-02 
617	 4.08264900118144E-02 
618	 4.10739386901711E-02 
619	 4.12035586501037E-02 
620	 4.12802500230344E-02 
621	 4.13073804122423E-02 
622	 4.12834666919111E-02 
623	 4.12782270405333E-02 
624	 4.13446813727508E-02 
625	 4.13378148996879E-02 
626	 0.041236239316688 
627	 4.09939014085894E-02 
628	 4.10885111402183E-02 
629	 4.15860376613671E-02 
630	 4.16006668740935E-02 
631	 0.04139249367791 
632	 0.041383951886793 
633	 4.16323642611439E-02 
634	 4.19837617787295E-02 
635	 4.18630299495779E-02 
636	 4.17846949004603E-02 
637	 4.20029468197069E-02 
638	 4.19238130306806E-02 
639	 4.17024621575837E-02 
640	 4.17361382261122E-02 
641	 4.19167079852716E-02 
642	 4.21494574886523E-02 
643	 0.0421749408435 
644	 4.21173253439664E-02 
645	 4.21036994490247E-02 
646	 4.22528186039219E-02 
647	 4.23759885781976E-02 
648	 4.18341433763286E-02 
649	 4.17210659799583E-02 
650	 0.042301983008652 
651	 0.042352816836479 
652	 4.20930887945714E-02 
653	 4.19111089857203E-02 
654	 0.041932137808316 
655	 4.21105291835792E-02 
656	 4.21466670778365E-02 
657	 4.19371889743874E-02 
658	 4.15376227630057E-02 
659	 4.17066510263537E-02 
660	 4.20370957808279E-02 
661	 0.041750415460541 
662	 0.04145795262511 
663	 0.041285013288529 
664	 4.09843403768162E-02 
665	 4.07197952406587E-02 
666	 4.06339778314975E-02 
667	 4.07025835320806E-02 
668	 0.04080523015522 
669	 4.06657572945376E-02 
670	 0.040575933230022 
671	 4.05919149269988E-02 
672	 4.03611121332656E-02 
673	 0.040215036759867 
674	 4.05393488551929E-02 
675	 4.05056435245638E-02 
676	 4.02216878807807E-02 
677	 4.06393189925755E-02 
678	 4.09798297210274E-02 
679	 4.08854633019877E-02 
680	 4.09883050834182E-02 
681	 4.12960986377685E-02 
682	 4.17069563820958E-02 
683	 4.19871004416858E-02 
684	 4.21658388878624E-02 
685	 4.26999927952103E-02 
686	 4.33135162204558E-02 
687	 4.37507238965285E-02 
688	 4.42153852804055E-02 
689	 4.46214571835351E-02 
690	 4.47385929022503E-02 
691	 4.53359512808993E-02 
692	 4.64584831952543E-02 
693	 4.69492151331206E-02 
694	 4.73746635746667E-02 
695	 4.83396126563096E-02 
696	 4.90948880427901E-02 
697	 4.96266064768397E-02 
698	 5.03513567798323E-02 
699	 5.09998119370493E-02 
700	 5.14598734228647E-02 
701	 5.18851884188115E-02 
702	 5.25090406929115E-02 
703	 5.36172289521292E-02 
704	 5.42032372055895E-02 
705	 5.42470757249024E-02 
706	 5.45740196608773E-02 
707	 5.49582576019553E-02 
708	 5.52645186931427E-02 
709	 5.55908426655924E-02 
710	 5.59963013330266E-02 
711	 5.65705365727299E-02 
712	 5.71348331493981E-02 
713	 0.057636712827024 
714	 5.81959071992853E-02 
715	 5.86106501573344E-02 
716	 5.87164615842339E-02 
717	 5.88288366173316E-02 
718	 5.90813067285492E-02 
719	 0.05956202534715 
720	 6.00851323371689E-02 
721	 6.05206731004906E-02 
722	 6.08970836703289E-02 
723	 6.11734912776602E-02 
724	 6.12652197687727E-02 
725	 6.13368332476967E-02 
726	 6.15710795994653E-02 
727	 6.24340835712071E-02 
728	 6.30307970751897E-02 
729	 0.062962187435674 
730	 6.29481873292166E-02 
731	 6.31617672941412E-02 
732	 6.37055192943302E-02 
733	 6.40067666382791E-02 
734	 6.40593663157652E-02 
735	 6.43011893315062E-02 
736	 6.46877188384265E-02 
737	 6.51471407831739E-02 
738	 6.53660178865345E-02 
739	 6.55156230984824E-02 
740	 6.60032371225744E-02 
741	 6.64654500167994E-02 
742	 6.67626508319901E-02 
743	 6.67976407347594E-02 
744	 6.69659337057305E-02 
745	 6.75599346479704E-02 
746	 6.78867908799617E-02 
747	 6.79162076682248E-02 
748	 6.78360367530654E-02 
749	 6.80160881030547E-02 
750	 6.85269487186534E-02 
751	 6.88389177533344E-02 
752	 6.90330546096747E-02 
753	 6.92331145781148E-02 
754	 6.92122516931653E-02 
755	 6.91658757340693E-02 
756	 6.97971695586596E-02 
757	 7.02500071596765E-02 
758	 7.01569128486567E-02 
759	 6.98042528031042E-02 
760	 6.95297457552949E-02 
761	 7.04982319688064E-02 
762	 7.07229331094577E-02 
763	 7.02610587849446E-02 
764	 7.05605226542829E-02 
765	 7.15181184030554E-02 
766	 7.27575432375973E-02 
767	 7.31041565112067E-02 
768	 7.30016874763334E-02 
769	 7.29790708451031E-02 
770	 7.32067541418214E-02 
771	 7.36572695561859E-02 
772	 7.39809379881785E-02 
773	 7.42936910049067E-02 
774	 7.46471274262987E-02 
775	 7.47840190735734E-02 
776	 7.49132551525309E-02 
777	 7.54820643645754E-02 
778	 0.075902831718009 
779	 7.60245036974774E-02 
780	 7.59983469845598E-02 
781	 0.07619694677477 
782	 7.68631309385975E-02 
783	 7.73407971272196E-02 
784	 7.75555678398333E-02 
785	 7.75816498825764E-02 
786	 7.77506439134054E-02 
787	 7.81582859891848E-02 
788	 7.85894315731358E-02 
789	 7.89580108825974E-02 
790	 7.91800728484379E-02 
791	 7.91733247055478E-02 
792	 7.90959014431691E-02 
793	 7.93104622749612E-02 
794	 7.97856524525315E-02 
795	 8.04015797378629E-02 
796	 8.06429311051976E-02 
797	 8.06258095605088E-02 
798	 8.05359375548482E-02 
799	 0.080846829219931 
800	 8.14685861318022E-02 
801	 8.19263464594485E-02 
802	 8.20584567130406E-02 
803	 8.19263147966654E-02 
804	 8.23473556886665E-02 
805	 8.29425154591234E-02 
806	 8.32520042468898E-02 
807	 8.37366893146753E-02 
808	 8.42680697288423E-02 
809	 8.41663974571115E-02 
810	 8.44000984858135E-02 
811	 8.52028665278725E-02 
812	 8.51130846628399E-02 
813	 8.48110754100622E-02 
814	 8.53251189463407E-02 
815	 8.54679262407689E-02 
816	 8.52835108933224E-02 
817	 8.58871622538498E-02 
818	 8.63098470405311E-02 
819	 8.62838228465818E-02 
820	 8.68416923190347E-02 
821	 8.75815993558683E-02 
822	 8.79401618396985E-02 
823	 8.81875817056773E-02 
824	 8.84857992463114E-02 
825	 8.91877747482807E-02 
826	 8.96726924581125E-02 
827	 8.97812253107228E-02 
828	 9.02742350856652E-02 
829	 9.07005697071505E-02 
830	 9.04606547539266E-02 
831	 9.06213139419762E-02 
832	 9.12034849219574E-02 
833	 0.091575740930698 
834	 9.18057143302003E-02 
835	 9.19610304063375E-02 
836	 9.23250292899045E-02 
837	 9.28495746685394E-02 
838	 9.34363967548895E-02 
839	 9.36475418166702E-02 
840	 0.093655957315053 
841	 9.42836364135593E-02 
842	 9.46505196883173E-02 
843	 9.45401064513164E-02 
844	 9.50743045038322E-02 
845	 9.56093524450266E-02 
846	 9.53706601289055E-02 
847	 9.54442326153181E-02 
848	 9.59766571671124E-02 
849	 9.67958190937261E-02 
850	 9.70522130619165E-02 
851	 9.65775858485551E-02 
852	 9.69173668018327E-02 
853	 9.70835096697191E-02 
854	 9.60395351736211E-02 
855	 9.64297453257539E-02 
856	 9.78961912515561E-02 
857	 0.098254386510104 
858	 9.85226482312812E-02 
859	 9.89271373649969E-02 
860	 9.89519463008222E-02 
861	 9.91801749525774E-02 
862	 0.100126121312615 
863	 0.100837568112715 
864	 0.101035787470894 
865	 0.100504555717761 
866	 0.100138170012196 
867	 0.100383746577033 
868	 0.10148097032267 
869	 0.102495100457177 
870	 0.102688790809827 
871	 0.102800423008255 
872	 0.102856805197667 
873	 0.102566805348954 
874	 0.103664724778712 
875	 0.105888921161273 
876	 0.106026709559393 
877	 0.105546990762855 
878	 0.105619891294936 
879	 0.106423324573725 
880	 0.107441986434082 
881	 0.107806330316094 
882	 0.107527829384907 
883	 0.10697989321937 
884	 0.107329790695366 
885	 0.108354588690219 
886	 0.109704508276101 
887	 0.109951177527085 
888	 0.109987113726 
889	 0.111180953536358 
890	 0.111759690541362 
891	 0.111621374043998 
892	 0.111724249738584 
893	 0.112247785677009 
894	 0.113083764291123 
895	 0.112737891590267 
896	 0.11209003181759 
897	 0.112328210487921 
898	 0.11289584030276 
899	 0.113563409016403 
900	 0.114073584126854 
901	 0.114416051579693 
902	 0.114662300805797 
903	 0.115189022079436 
904	 0.115656924996883 
905	 0.115768254721698 
906	 0.115450925492597 
907	 0.114901087171615 
908	 0.114427065618987 
909	 0.11514195510831 
910	 0.116896948314713 
911	 0.117731053725871 
912	 0.118450043466531 
913	 0.119365920463236 
914	 0.119272590928471 
915	 0.119334857955305 
916	 0.12098614514026 
917	 0.121547607919339 
918	 0.120806752157364 
919	 0.119472503377044 
920	 0.119806314534726 
921	 0.122024364229985 
922	 0.122420153965589 
923	 0.122576074167301 
924	 0.123858295900044 
925	 0.123245237049162 
926	 0.121346200732336 
927	 0.12062268901904 
928	 0.119984386865647 
929	 0.119152509189571 
930	 0.11856965709247 
931	 0.116209336469522 
932	 0.11189335009044 
933	 0.118435787917444 
934	 0.126488199286028 
935	 0.120203361515612 
936	 0.115337758714964 
937	 0.115183871376621 
938	 0.117333603106103 
939	 0.12022455324526 
940	 0.122398777631873 
941	 0.12109486643764 
942	 0.12076339451321 
943	 0.124401476395105 
944	 0.128710328262933 
945	 0.129322681718279 
946	 0.120354275079171 
947	 0.116479615373399 
948	 0.119395000339682 
949	 0.1205670087853 
950	 0.122017793451158 
951	 0.123672380190193 
952	 0.121912826825511 
953	 0.119590904579211 
954	 0.119544491511825 
955	 0.121895797128969 
956	 0.124258365874851 
957	 0.122475294598368 
958	 0.120834533383701 
959	 0.120701473332458 
960	 0.122575639848883 
961	 0.123327118406625 
962	 0.121893161999628 
963	 0.121439747380135 
964	 0.12175061511221 
965	 0.122286242935874 
966	 0.122207998084018 
967	 0.121337874234254 
968	 0.119422505521013 
969	 0.120131182857094 
970	 0.12362403401819 
971	 0.126671186934525 
972	 0.128560177338072 
973	 0.128755427347712 
974	 0.126956882745311 
975	 0.125575883775339 
976	 0.127087759360356 
977	 0.128090375311916 
978	 0.127721286968034 
979	 0.125596774169797 
980	 0.123629092860977 
981	 0.123900137305448 
982	 0.132084015444472 
983	 0.135452073658865 
984	 0.129315670115695 
985	 0.130807499721858 
986	 0.135504400822482 
987	 0.13701918597264 
988	 0.135448512320829 
989	 0.132962603881084 
990	 0.133991555886719 
991	 0.135220840480577 
992	 0.13554726538489 
993	 0.134550802163907 
994	 0.133708153112967 
995	 0.134069588546917 
996	 0.136427121565049 
997	 0.139156512120374 
998	 0.140477687312998 
999	 0.138864889117556 
1000	 0.135727234138386 
1001	 0.133913801538552 
1002	 0.134943196633535 
1003	 0.137373316878637 
1004	 0.134712889977206 
1005	 0.135128874966728 
1006	 0.140276100121308 
1007	 0.140507900688888 
1008	 0.139431606285925 
1009	 0.139799928169744 
1010	 0.136569511522061 
1011	 0.13366298020812 
1012	 0.137040336778222 
1013	 0.141251674364 
1014	 0.143349881918537 
1015	 0.139430501323176 
1016	 0.134837636913557 
1017	 0.133179640117223 
1018	 0.140246221825541 
1019	 0.145447824789608 
1020	 0.143657557812799 
1021	 0.145922679724911 
1022	 0.147391749301233 
1023	 0.143216687579511 
1024	 0.142014125799574 
1025	 0.144114577155248 
1026	 0.147429908035075 
1027	 0.148201564243519 
1028	 0.146127132278527 
1029	 0.142984068156363 
1030	 0.145449660631729 
1031	 0.151137567787548 
1032	 0.13742994140131 
1033	 0.132766473177476 
1034	 0.150897887044258 
1035	 0.151825837998049 
1036	 0.147849537497428 
1037	 0.155138160084283 
1038	 0.153700231047055 
1039	 0.149929309768378 
1040	 0.16000681103703 
1041	 0.15977328993238 
1042	 0.149101512537397 
1043	 0.14580596864767 
1044	 0.149039619563337 
1045	 0.155651509666241 
1046	 0.152400558067373 
1047	 0.148754194684203 
1048	 0.150424044297412 
1049	 0.153204205200179 
1050	 0.153658387714685 
1051	 0.149266338887507 
1052	 0.146564095883848 
1053	 0.141106215677199 
1054	 0.125779984187204 
1055	 0.131801290698378 
1056	 0.151941224379819 
1057	 0.152736214289925 
1058	 0.146544607525861 
1059	 0.138265857048499 
1060	 0.13253596176596 
1061	 0.141677461082229 
1062	 0.163985038892197 
1063	 0.168885357975082 
1064	 0.156029655463732 
1065	 0.131322828336996 
1066	 0.131365774724163 
1067	 0.133127604534906 
1068	 0.110025954166555 
1069	 0.11227899567892 
1070	 0.127349854494886 
1071	 0.120295682995447 
1072	 0.11589760997679 
1073	 0.114705449004399 
1074	 0.104183548814257 
1075	 0.102242507882323 
