Wavelength	SHSI00077.asd
325	 9.41951907889329E-02 
326	 9.87536837586601E-02 
327	 9.53805814520573E-02 
328	 9.72359530407963E-02 
329	 9.60180388607089E-02 
330	 8.98996344542794E-02 
331	 8.36622367039128E-02 
332	 8.28328389474206E-02 
333	 9.12994372172767E-02 
334	 0.091750025652963 
335	 8.74038016615415E-02 
336	 9.35006876441463E-02 
337	 9.70175692393365E-02 
338	 9.48041362422376E-02 
339	 9.06742383204442E-02 
340	 8.96089730225816E-02 
341	 9.46097191405792E-02 
342	 9.43184279308932E-02 
343	 0.090744746842568 
344	 9.08983549959809E-02 
345	 0.091282795571724 
346	 9.15014562884966E-02 
347	 9.36992794188518E-02 
348	 9.47710144510277E-02 
349	 9.30118537138822E-02 
350	 9.22567804931997E-02 
351	 9.31129201937927E-02 
352	 9.57716973236547E-02 
353	 0.096803428270272 
354	 9.64205840221422E-02 
355	 9.90992273328254E-02 
356	 0.100829416137007 
357	 9.94017983905007E-02 
358	 9.75178279712929E-02 
359	 9.69720596965957E-02 
360	 9.98090166331308E-02 
361	 0.101082374891899 
362	 0.100282807933902 
363	 0.100238312427866 
364	 0.100339144182232 
365	 0.100286583144146 
366	 0.100225389036508 
367	 0.100125061534137 
368	 9.99279511534147E-02 
369	 0.100062681286135 
370	 0.10035172620948 
371	 9.98941326148252E-02 
372	 9.94647634555431E-02 
373	 9.92905161274972E-02 
374	 9.77784277794656E-02 
375	 9.62912884837654E-02 
376	 9.68351715762815E-02 
377	 9.48783996963402E-02 
378	 9.18383369355722E-02 
379	 9.59697139652271E-02 
380	 9.88441037291422E-02 
381	 9.66936002203654E-02 
382	 9.51625822366717E-02 
383	 9.47625871876285E-02 
384	 9.53959907861587E-02 
385	 9.54021986831267E-02 
386	 9.43724619261607E-02 
387	 9.24813390525343E-02 
388	 9.11849459401624E-02 
389	 9.11472229937571E-02 
390	 9.16909715070005E-02 
391	 9.26022677263657E-02 
392	 9.36978409987823E-02 
393	 9.29631673310712E-02 
394	 9.08804909462392E-02 
395	 8.99160108100058E-02 
396	 9.00908495721348E-02 
397	 9.07519320142953E-02 
398	 8.83320050964136E-02 
399	 8.58178647509183E-02 
400	 8.63031145579882E-02 
401	 8.68490531775066E-02 
402	 8.70540593530732E-02 
403	 8.74597000536995E-02 
404	 8.75597728244396E-02 
405	 8.72415402672048E-02 
406	 8.72129040302875E-02 
407	 8.71675112187967E-02 
408	 8.66648339445707E-02 
409	 8.55794066691658E-02 
410	 8.44442105437715E-02 
411	 8.48316335913702E-02 
412	 8.50008912391964E-02 
413	 8.43153153319272E-02 
414	 8.44500555520857E-02 
415	 8.47874485126713E-02 
416	 8.43515649590771E-02 
417	 8.38810034076266E-02 
418	 8.36512564987983E-02 
419	 8.39332210712487E-02 
420	 8.43695921444728E-02 
421	 0.084629616001336 
422	 8.39473926004965E-02 
423	 8.30647776067201E-02 
424	 8.31411661374855E-02 
425	 8.35066731644495E-02 
426	 0.083844600801465 
427	 0.083701030644286 
428	 8.33970292282131E-02 
429	 0.08317631739237 
430	 8.31721450783965E-02 
431	 8.31389328520648E-02 
432	 8.26482924486217E-02 
433	 8.21389508421612E-02 
434	 8.17748025364105E-02 
435	 8.15505729135207E-02 
436	 8.16691717858489E-02 
437	 0.082176384820452 
438	 8.22551034864159E-02 
439	 8.20964077639606E-02 
440	 8.22917220771816E-02 
441	 8.24004824788926E-02 
442	 8.23103580213321E-02 
443	 8.20679886814612E-02 
444	 8.19837121239775E-02 
445	 8.23052145931391E-02 
446	 8.29770366255151E-02 
447	 8.36334432124601E-02 
448	 8.34977047254217E-02 
449	 0.083461881874025 
450	 8.37720464207946E-02 
451	 8.39697616708293E-02 
452	 8.42154369614208E-02 
453	 8.46722860850892E-02 
454	 8.49693340304927E-02 
455	 8.50904467189922E-02 
456	 8.51880334015311E-02 
457	 8.54055949044913E-02 
458	 8.57260296869694E-02 
459	 8.56322475966602E-02 
460	 8.54476135249908E-02 
461	 8.55988193532712E-02 
462	 8.58987614813425E-02 
463	 8.62008753957906E-02 
464	 8.61572287493415E-02 
465	 0.086308645999497 
466	 8.68591535634124E-02 
467	 0.087105816284741 
468	 8.71624469505546E-02 
469	 8.73115439482454E-02 
470	 8.76340696019086E-02 
471	 8.80462239997523E-02 
472	 8.81600195310694E-02 
473	 8.81940390140843E-02 
474	 8.83256908047121E-02 
475	 8.87894095053454E-02 
476	 8.92773420265291E-02 
477	 8.91990699869923E-02 
478	 8.92311070465823E-02 
479	 8.94363587338148E-02 
480	 8.91585834009604E-02 
481	 8.89992862897843E-02 
482	 8.94152127455163E-02 
483	 8.96597518122959E-02 
484	 8.97459693350937E-02 
485	 9.00495361320497E-02 
486	 9.02034337312512E-02 
487	 9.00713228305791E-02 
488	 8.96865404836647E-02 
489	 8.94147312216377E-02 
490	 8.95983051564487E-02 
491	 8.98378257562369E-02 
492	 0.090116956785581 
493	 9.06751539276826E-02 
494	 0.091052318517603 
495	 9.10938249235002E-02 
496	 9.12365456567991E-02 
497	 9.14543551244383E-02 
498	 9.16537276771628E-02 
499	 9.24243923326008E-02 
500	 0.093524005277663 
501	 9.36587978528639E-02 
502	 9.37708574589406E-02 
503	 9.43787759746273E-02 
504	 9.47207016189389E-02 
505	 9.50187797744727E-02 
506	 0.095775321488594 
507	 9.67764005061788E-02 
508	 9.78081316430876E-02 
509	 9.82693358419339E-02 
510	 0.098809506699335 
511	 9.99145809747298E-02 
512	 0.100832069303109 
513	 0.101572824761292 
514	 0.102487413889972 
515	 0.103212861657524 
516	 0.103746341683429 
517	 0.104824338583566 
518	 0.105810034511402 
519	 0.106000102919213 
520	 0.106299179315838 
521	 0.106943404407987 
522	 0.108049831916691 
523	 0.109022093631801 
524	 0.109655246715961 
525	 0.110624797868505 
526	 0.111713238841472 
527	 0.112503448941658 
528	 0.113463016618807 
529	 0.114511407252641 
530	 0.114992588538125 
531	 0.115479396637213 
532	 0.116335775855006 
533	 0.117087073247168 
534	 0.117824811258619 
535	 0.118866778042422 
536	 0.119853040590315 
537	 0.120717265960224 
538	 0.121735590756849 
539	 0.122730603580384 
540	 0.123514430020478 
541	 0.124093748641756 
542	 0.124594423858796 
543	 0.125307873814489 
544	 0.126165946588228 
545	 0.127129395502028 
546	 0.128108352597873 
547	 0.129013361535306 
548	 0.129746805735422 
549	 0.130338742686493 
550	 0.130848997937339 
551	 0.131379761293047 
552	 0.132149907842404 
553	 0.133224213224147 
554	 0.133898605879299 
555	 0.134365380087421 
556	 0.13517691653795 
557	 0.135965544927096 
558	 0.136615366333884 
559	 0.137153711110336 
560	 0.137621318914865 
561	 0.138060094460642 
562	 0.138489626332772 
563	 0.138884062954447 
564	 0.139160805662521 
565	 0.139367359506324 
566	 0.139578583111032 
567	 0.140114117401021 
568	 0.140607393985334 
569	 0.140565506754695 
570	 0.140553761670864 
571	 0.140651341939136 
572	 0.140575652379427 
573	 0.14061899292029 
574	 0.140912736073006 
575	 0.140983526112923 
576	 0.140877386479979 
577	 0.140794557857013 
578	 0.140769682097102 
579	 0.140867185475791 
580	 0.141282573718288 
581	 0.141538189028203 
582	 0.141257281119045 
583	 0.14123275976173 
584	 0.14148902298948 
585	 0.141711661874051 
586	 0.141833156619477 
587	 0.141844095846741 
588	 0.14203690189128 
589	 0.142124871464413 
590	 0.141712245750366 
591	 0.141576136313852 
592	 0.141844892596974 
593	 0.142281192906037 
594	 0.142554667630193 
595	 0.142490914921257 
596	 0.14247304957388 
597	 0.142564491682414 
598	 0.142797810049348 
599	 0.142749484178593 
600	 0.142444817714831 
601	 0.14260906723335 
602	 0.142913263717878 
603	 0.143024627937158 
604	 0.142898627398377 
605	 0.142511422601947 
606	 0.141808031629626 
607	 0.141126855043832 
608	 0.140650785390699 
609	 0.14042765798826 
610	 0.140227207009472 
611	 0.139757964334384 
612	 0.139103745026833 
613	 0.13840509598039 
614	 0.138060487489395 
615	 0.137652878469122 
616	 0.136970666468578 
617	 0.136510374126165 
618	 0.136165465329461 
619	 0.135600835701377 
620	 0.135360104595887 
621	 0.135462490918406 
622	 0.135298266064872 
623	 0.134945230359955 
624	 0.134538763220536 
625	 0.134685020248735 
626	 0.135131787076737 
627	 0.134970030551349 
628	 0.134559095224393 
629	 0.134103452711583 
630	 0.133932930346865 
631	 0.134033151764453 
632	 0.134330729544184 
633	 0.134481559022479 
634	 0.134442799271999 
635	 0.134388435094089 
636	 0.134494202175137 
637	 0.134799435856107 
638	 0.134695283486018 
639	 0.134380965907354 
640	 0.134341990761794 
641	 0.134430953747437 
642	 0.134611149444085 
643	 0.134867371719344 
644	 0.135162031800407 
645	 0.135435125787775 
646	 0.135317347268674 
647	 0.13490880930746 
648	 0.134704740807037 
649	 0.134225275210211 
650	 0.133430924479833 
651	 0.133183823521187 
652	 0.132886256024075 
653	 0.131750770322186 
654	 0.130613745351004 
655	 0.129621747218951 
656	 0.128880857624167 
657	 0.12730727382337 
658	 0.124594777123504 
659	 0.122763549346129 
660	 0.121438405472866 
661	 0.119700436465033 
662	 0.117709894299013 
663	 0.115564007898409 
664	 0.113514083811019 
665	 0.111761605855861 
666	 0.110428056026747 
667	 0.108942082309115 
668	 0.107418836950873 
669	 0.106397685281488 
670	 0.105489484952183 
671	 0.10458391211046 
672	 0.103848454812289 
673	 0.103438263973854 
674	 0.103497510058094 
675	 0.103743121269148 
676	 0.103984969964045 
677	 0.103857575734025 
678	 0.104059199427402 
679	 0.104946707377501 
680	 0.106047612105929 
681	 0.107281159569348 
682	 0.108630621313096 
683	 0.1098911199316 
684	 0.111264651196303 
685	 0.113743167598289 
686	 0.117133062916516 
687	 0.121147547543463 
688	 0.124748084866307 
689	 0.12786539799695 
690	 0.131651449687343 
691	 0.135637761902506 
692	 0.139812691053635 
693	 0.144257050485799 
694	 0.148858743617213 
695	 0.153280938769045 
696	 0.15729765330051 
697	 0.161101550073722 
698	 0.165559748401098 
699	 0.169902077300986 
700	 0.173661345506604 
701	 0.17697035470226 
702	 0.180116669981929 
703	 0.183498137115741 
704	 0.186664529182143 
705	 0.189467057383352 
706	 0.191662436490682 
707	 0.193552929439152 
708	 0.195410518885141 
709	 0.197678406614973 
710	 0.20005999511257 
711	 0.201904562002354 
712	 0.203617691809233 
713	 0.205244591999456 
714	 0.206487835941691 
715	 0.207624471890488 
716	 0.209004582698261 
717	 0.210876316388678 
718	 0.21284197782682 
719	 0.213182613430851 
720	 0.213479874067761 
721	 0.214347870122531 
722	 0.215509777751917 
723	 0.216806972203613 
724	 0.21799070519348 
725	 0.218424327834507 
726	 0.21833685850555 
727	 0.218989933241685 
728	 0.220042137509793 
729	 0.221173824548054 
730	 0.221387769910044 
731	 0.221357440185609 
732	 0.222150956159663 
733	 0.222524757604939 
734	 0.222504648619713 
735	 0.223132237711155 
736	 0.223707911156248 
737	 0.223785274884897 
738	 0.223902620311564 
739	 0.224269291275775 
740	 0.225175357025169 
741	 0.225439832951237 
742	 0.225028766729693 
743	 0.225485361071138 
744	 0.226180277028026 
745	 0.226540450210545 
746	 0.226786108431153 
747	 0.226919096468071 
748	 0.226845419748508 
749	 0.22690097731186 
750	 0.227227906408666 
751	 0.22778667981038 
752	 0.228290238225139 
753	 0.228451902375424 
754	 0.228575624506716 
755	 0.228723279736389 
756	 0.228946968292231 
757	 0.228680969359852 
758	 0.227870631674577 
759	 0.228672548130994 
760	 0.231703608076383 
761	 0.23453184116031 
762	 0.235078007860169 
763	 0.234118921600063 
764	 0.234465516832903 
765	 0.234204266336581 
766	 0.233099693509703 
767	 0.233098321266023 
768	 0.2333543704545 
769	 0.23277688680644 
770	 0.232511999735684 
771	 0.232753736696235 
772	 0.233145028980366 
773	 0.233623903040528 
774	 0.234074078845484 
775	 0.233928226205084 
776	 0.23371971930944 
777	 0.234567615631897 
778	 0.235072215032709 
779	 0.23492771611538 
780	 0.234755122897349 
781	 0.23486885411524 
782	 0.235428217897861 
783	 0.235434857749335 
784	 0.235120338828128 
785	 0.235327326674937 
786	 0.235661202599553 
787	 0.235954649436579 
788	 0.235968390663098 
789	 0.236090379090192 
790	 0.236657930710975 
791	 0.237070835792143 
792	 0.237256326096838 
793	 0.237371988425561 
794	 0.237195480353374 
795	 0.236868008927787 
796	 0.237467828765953 
797	 0.238034790717515 
798	 0.237615214179262 
799	 0.237653140756488 
800	 0.238121728289903 
801	 0.238124621449737 
802	 0.238306742408351 
803	 0.23884767970782 
804	 0.239384744265495 
805	 0.239676000037326 
806	 0.23952030104994 
807	 0.239323228669612 
808	 0.239237214263172 
809	 0.239388574524381 
810	 0.239587280628528 
811	 0.239788819848123 
812	 0.24027135926828 
813	 0.240909290164352 
814	 0.241487290252935 
815	 0.241683117410084 
816	 0.241782026310833 
817	 0.243031453855424 
818	 0.243908867250942 
819	 0.243839171976743 
820	 0.243644705891229 
821	 0.243800913930013 
822	 0.244746515706568 
823	 0.245070451389982 
824	 0.244674065192121 
825	 0.244193738407776 
826	 0.244345267397075 
827	 0.245317701715435 
828	 0.246032044374274 
829	 0.246268293449229 
830	 0.245916682751171 
831	 0.245347889140028 
832	 0.244978879125793 
833	 0.245633932201936 
834	 0.24630561663673 
835	 0.246434589992874 
836	 0.24560380973127 
837	 0.245030465043834 
838	 0.246026110622173 
839	 0.245859992158971 
840	 0.244816679031932 
841	 0.245456415232974 
842	 0.245955476146469 
843	 0.245642200294561 
844	 0.245372539764253 
845	 0.245293886153119 
846	 0.245470092178504 
847	 0.245197194889766 
848	 0.244729801816859 
849	 0.245292157754506 
850	 0.245649057523518 
851	 0.245298893806999 
852	 0.244465110280469 
853	 0.244231953735225 
854	 0.245574040816758 
855	 0.245699578307887 
856	 0.244800123352021 
857	 0.244877854716566 
858	 0.244655350114635 
859	 0.243848239532413 
860	 0.242981958784098 
861	 0.242872942807024 
862	 0.244116133899559 
863	 0.244303028396806 
864	 0.243766297254295 
865	 0.244385279593035 
866	 0.245416156466262 
867	 0.246340271642325 
868	 0.245998875388639 
869	 0.245578805369289 
870	 0.246033272557778 
871	 0.24617085635799 
872	 0.246404367404163 
873	 0.247931030091509 
874	 0.248490890094163 
875	 0.247891573108109 
876	 0.248385733990076 
877	 0.249199066102644 
878	 0.249743547054129 
879	 0.250135599466754 
880	 0.250606066504 
881	 0.251510892379445 
882	 0.252165213225025 
883	 0.252539676677728 
884	 0.253254387441999 
885	 0.253868893400923 
886	 0.2541548345748 
887	 0.2542866530255 
888	 0.254637923402856 
889	 0.255639985443463 
890	 0.255942577980911 
891	 0.255539283887811 
892	 0.255265298133632 
893	 0.256245246564888 
894	 0.258719957366869 
895	 0.26043213274534 
896	 0.260616927410158 
897	 0.258828678856998 
898	 0.258792012977063 
899	 0.260651540135289 
900	 0.262547896313947 
901	 0.263286995403905 
902	 0.262705465420375 
903	 0.262538389805304 
904	 0.262264690541918 
905	 0.261630589237994 
906	 0.262478383594187 
907	 0.264130561378426 
908	 0.264979495988195 
909	 0.264758181889742 
910	 0.263728165492209 
911	 0.263354201965362 
912	 0.263423937387622 
913	 0.263775462112211 
914	 0.264044984451521 
915	 0.264574724588399 
916	 0.265753184170866 
917	 0.26511369500645 
918	 0.263304192445699 
919	 0.263588774135038 
920	 0.262647145090895 
921	 0.260494941281719 
922	 0.263308654656387 
923	 0.26529717589594 
924	 0.261544581105729 
925	 0.261102178159393 
926	 0.262791167253433 
927	 0.260491205024102 
928	 0.259591843182703 
929	 0.26127836632071 
930	 0.261270639700567 
931	 0.261650844419835 
932	 0.263869101544091 
933	 0.265212591986917 
934	 0.265545437432818 
935	 0.265584169672786 
936	 0.270376835037019 
937	 0.276699897812476 
938	 0.274113399410703 
939	 0.268607248171335 
940	 0.263660720060443 
941	 0.264939022199963 
942	 0.265782802388289 
943	 0.26148491741123 
944	 0.256227251096549 
945	 0.25491890054562 
946	 0.2638306954148 
947	 0.267001862740313 
948	 0.262773711644094 
949	 0.259523949793728 
950	 0.26020477155235 
951	 0.264272626856227 
952	 0.260532007459367 
953	 0.255332078408056 
954	 0.254892863208176 
955	 0.256290360408449 
956	 0.258170040803467 
957	 0.259082355475772 
958	 0.258315445212219 
959	 0.256098875971791 
960	 0.253182278463807 
961	 0.253615744919973 
962	 0.257984028136265 
963	 0.25856291308713 
964	 0.258081006514942 
965	 0.259456785282058 
966	 0.256843433032317 
967	 0.253269044739689 
968	 0.25651247756131 
969	 0.256244005225725 
970	 0.252353342103622 
971	 0.2552321030718 
972	 0.259047291464893 
973	 0.26057919587902 
974	 0.26243423679528 
975	 0.262872183422079 
976	 0.260150844002144 
977	 0.261525945628263 
978	 0.265154501715495 
979	 0.264031271721465 
980	 0.264512391095264 
981	 0.266398791589981 
982	 0.261569784750262 
983	 0.259540269414922 
984	 0.26405133259793 
985	 0.263556356665801 
986	 0.262057927012966 
987	 0.264458436117734 
988	 0.26344563575205 
989	 0.260344803611146 
990	 0.260358005326945 
991	 0.261408366551078 
992	 0.263084209183772 
993	 0.26621108646791 
994	 0.266645473013424 
995	 0.263325625229054 
996	 0.26349770539815 
997	 0.263654471491019 
998	 0.260466183681173 
999	 0.262072575562992 
1000	 0.266431348883503 
1001	 0.267662587563571 
1002	 0.265131255369498 
1003	 0.260467272104455 
1004	 0.258456512060556 
1005	 0.263494748162648 
1006	 0.273108385297145 
1007	 0.265511859501089 
1008	 0.25744228555265 
1009	 0.26154890327251 
1010	 0.261025106451298 
1011	 0.259302424611444 
1012	 0.26373929698399 
1013	 0.269388251804646 
1014	 0.272398634725081 
1015	 0.266726581624941 
1016	 0.258280402160911 
1017	 0.252694142371783 
1018	 0.262255869312363 
1019	 0.27109218456174 
1020	 0.27069736761939 
1021	 0.270212351091458 
1022	 0.26768386480588 
1023	 0.261412348775613 
1024	 0.261134097466542 
1025	 0.265816252502196 
1026	 0.270861669606361 
1027	 0.270167629287453 
1028	 0.265331138937971 
1029	 0.265850299631751 
1030	 0.271185204673509 
1031	 0.277880019344497 
1032	 0.270669919414356 
1033	 0.262820234815405 
1034	 0.263721492280404 
1035	 0.274365941829423 
1036	 0.279475284482515 
1037	 0.265185819927531 
1038	 0.267061794130887 
1039	 0.277975911814758 
1040	 0.275026597505594 
1041	 0.266206841661747 
1042	 0.260864869272514 
1043	 0.283811516735206 
1044	 0.278131948332036 
1045	 0.244727993775104 
1046	 0.281232543145993 
1047	 0.301663668919203 
1048	 0.263726111606049 
1049	 0.255764086753225 
1050	 0.268933913521926 
1051	 0.284835227909904 
1052	 0.26971555291222 
1053	 0.246108647658324 
1054	 0.256808389265416 
1055	 0.253427331960093 
1056	 0.238755824258571 
1057	 0.243147399696213 
1058	 0.255186387123791 
1059	 0.265955265247917 
1060	 0.257156929329413 
1061	 0.260805022682828 
1062	 0.281345086384929 
1063	 0.263348836241429 
1064	 0.244914639437779 
1065	 0.254030361153316 
1066	 0.257147636684 
1067	 0.260561358194813 
1068	 0.272209164368027 
1069	 0.250417233257511 
1070	 0.222462335179991 
1071	 0.240544809945255 
1072	 0.254018575069146 
1073	 0.251115945893027 
1074	 0.236282037611631 
1075	 0.229420648857985 
