Wavelength	SHSI00134.asd
325	 5.20623430093714E-02 
326	 5.71606731048165E-02 
327	 0.068036282540805 
328	 6.82210309317185E-02 
329	 6.26666053788143E-02 
330	 5.50956210223838E-02 
331	 5.36465943465078E-02 
332	 5.53009298286129E-02 
333	 5.64194331870605E-02 
334	 5.65552293664589E-02 
335	 5.49060019084908E-02 
336	 4.89501041651276E-02 
337	 4.86906370025319E-02 
338	 5.48737258924899E-02 
339	 5.59015872040878E-02 
340	 0.053411410693878 
341	 4.98202577335713E-02 
342	 5.10613448145232E-02 
343	 5.47014707804553E-02 
344	 0.054346704190196 
345	 5.43224418864354E-02 
346	 5.49295265837971E-02 
347	 5.31752505373022E-02 
348	 5.00551547981975E-02 
349	 4.69376451324983E-02 
350	 4.95949726010107E-02 
351	 5.36398219271808E-02 
352	 5.12163361763894E-02 
353	 5.09504161274527E-02 
354	 0.053092290765438 
355	 5.03235694729648E-02 
356	 4.87404488697816E-02 
357	 5.14943457398562E-02 
358	 0.052284791354222 
359	 5.17641672310348E-02 
360	 5.20997844266355E-02 
361	 5.15851476126803E-02 
362	 5.00200589314967E-02 
363	 4.73455208526244E-02 
364	 4.82008709111836E-02 
365	 0.053508694149322 
366	 5.25908660137332E-02 
367	 0.048402654000531 
368	 0.04622720405905 
369	 4.81630885423085E-02 
370	 5.23066183624366E-02 
371	 5.06682846899837E-02 
372	 4.80368315946526E-02 
373	 4.71809929231008E-02 
374	 4.81269906785467E-02 
375	 4.96190654703833E-02 
376	 4.99399272923672E-02 
377	 4.96157762789725E-02 
378	 4.87827083153536E-02 
379	 4.73041032252565E-02 
380	 4.72394570190682E-02 
381	 4.89381982463394E-02 
382	 4.73344892023232E-02 
383	 4.49957049548521E-02 
384	 4.58487904755473E-02 
385	 4.67259847771999E-02 
386	 4.70765457950279E-02 
387	 4.80010520435851E-02 
388	 4.68895777273096E-02 
389	 4.38441778840979E-02 
390	 4.71685268023777E-02 
391	 5.06887105365288E-02 
392	 4.69159904731544E-02 
393	 4.48402259499289E-02 
394	 4.57730761375897E-02 
395	 4.76290317006849E-02 
396	 4.85710786903195E-02 
397	 4.79389284850537E-02 
398	 4.74531496437613E-02 
399	 0.047214023984314 
400	 4.71214038249848E-02 
401	 4.69247509745225E-02 
402	 4.67169000857488E-02 
403	 4.68009532193522E-02 
404	 4.71642741297122E-02 
405	 4.77252359217788E-02 
406	 4.80986080107229E-02 
407	 4.81451293130858E-02 
408	 4.77572592815637E-02 
409	 4.79203385681605E-02 
410	 4.85068050447483E-02 
411	 4.84881573913557E-02 
412	 4.83032245337399E-02 
413	 4.81812636867028E-02 
414	 4.81778710536867E-02 
415	 4.81713767079811E-02 
416	 4.79930667655881E-02 
417	 4.82007131840855E-02 
418	 4.85848820959097E-02 
419	 4.80569902041014E-02 
420	 0.047698175603346 
421	 4.79734406073815E-02 
422	 4.75788424612128E-02 
423	 4.72425925929893E-02 
424	 4.82201114418281E-02 
425	 4.88206248298095E-02 
426	 4.86313066761352E-02 
427	 4.78119072407058E-02 
428	 4.73653916683897E-02 
429	 4.78864470944459E-02 
430	 4.84201097758414E-02 
431	 4.86023145080615E-02 
432	 0.048049024847278 
433	 4.80479563166051E-02 
434	 4.87174659008595E-02 
435	 4.91146154629415E-02 
436	 4.92377379248657E-02 
437	 4.90953063975028E-02 
438	 4.86157743590205E-02 
439	 4.82348437168128E-02 
440	 4.87572875034196E-02 
441	 0.049094273231168 
442	 4.90269855778104E-02 
443	 4.92164735939452E-02 
444	 4.93259215326595E-02 
445	 4.90874510772169E-02 
446	 4.87352474119885E-02 
447	 0.048628064391822 
448	 4.95341039197336E-02 
449	 4.99952093640151E-02 
450	 4.96230891139229E-02 
451	 4.93061233957439E-02 
452	 0.049101559523177 
453	 0.049022966108292 
454	 4.91405974080775E-02 
455	 4.94595395474717E-02 
456	 5.00474661409034E-02 
457	 5.02490349124949E-02 
458	 4.98655128215975E-02 
459	 4.95741730670085E-02 
460	 4.94992320316822E-02 
461	 4.97011992003044E-02 
462	 4.98735960520338E-02 
463	 4.98813832932759E-02 
464	 4.95125150132831E-02 
465	 4.95048691699549E-02 
466	 5.01272539112067E-02 
467	 5.03029288461269E-02 
468	 5.01024828947005E-02 
469	 4.98180933061099E-02 
470	 4.99192624377454E-02 
471	 5.04508479329193E-02 
472	 0.051135498243116 
473	 5.12968860710066E-02 
474	 5.06117430711107E-02 
475	 5.02403016650632E-02 
476	 5.02164360278088E-02 
477	 5.02365953355481E-02 
478	 5.09360013433711E-02 
479	 5.19942876127999E-02 
480	 5.14719137574845E-02 
481	 5.06879485027451E-02 
482	 5.07483490280225E-02 
483	 5.10587615046375E-02 
484	 5.14166283893842E-02 
485	 5.15432468637484E-02 
486	 5.18495379925321E-02 
487	 5.23071194421854E-02 
488	 5.20393540185875E-02 
489	 0.051517252363643 
490	 5.12959161781013E-02 
491	 5.13508596347797E-02 
492	 0.051691779308106 
493	 5.24663942873734E-02 
494	 5.26245935356471E-02 
495	 5.19302685397827E-02 
496	 5.21780543299389E-02 
497	 5.26661340752489E-02 
498	 5.22755285086372E-02 
499	 5.19698505108728E-02 
500	 5.20045713428584E-02 
501	 5.23462461346442E-02 
502	 5.29171839661401E-02 
503	 5.35557489696098E-02 
504	 5.35758681740543E-02 
505	 0.053265888095407 
506	 5.32086326867418E-02 
507	 5.38152299785216E-02 
508	 5.48628232252473E-02 
509	 5.50451337473091E-02 
510	 5.46621527360731E-02 
511	 5.40438750328534E-02 
512	 5.37095458620113E-02 
513	 5.37314114122682E-02 
514	 5.40113866051237E-02 
515	 5.42706663542261E-02 
516	 5.45635106893851E-02 
517	 5.60272008867397E-02 
518	 5.69537008318928E-02 
519	 5.55762450399674E-02 
520	 5.55356313778215E-02 
521	 5.66747054969583E-02 
522	 5.63660283859413E-02 
523	 5.61608901615933E-02 
524	 5.67192682006198E-02 
525	 5.76568278661085E-02 
526	 5.82171883755257E-02 
527	 5.74005833110056E-02 
528	 5.71148612988758E-02 
529	 5.76042967783903E-02 
530	 5.77541616188622E-02 
531	 5.79098120971725E-02 
532	 5.83160911143587E-02 
533	 5.90788076266597E-02 
534	 5.97679293945314E-02 
535	 0.059528715584059 
536	 5.92868087784953E-02 
537	 5.93678468959655E-02 
538	 5.98092056121533E-02 
539	 5.98985489758905E-02 
540	 5.90504787038807E-02 
541	 5.93819435689486E-02 
542	 6.05273673642548E-02 
543	 6.03474558734187E-02 
544	 6.02132970993659E-02 
545	 6.05904349164693E-02 
546	 6.06971868796474E-02 
547	 6.07195234587843E-02 
548	 0.060983882194302 
549	 6.10245582475076E-02 
550	 0.060905723366166 
551	 6.12133950863875E-02 
552	 0.061678724468196 
553	 6.20612740830703E-02 
554	 6.18782171321957E-02 
555	 6.14918010454403E-02 
556	 0.061688194027696 
557	 6.19781671746867E-02 
558	 6.22309551064832E-02 
559	 6.26154557481141E-02 
560	 6.27839735611442E-02 
561	 6.24567801982602E-02 
562	 0.06230563006691 
563	 6.23931390927161E-02 
564	 0.062490562625118 
565	 6.27641634011273E-02 
566	 6.31056198854747E-02 
567	 6.24717506577548E-02 
568	 6.18869118897664E-02 
569	 6.27505125784093E-02 
570	 0.063200167054743 
571	 6.29482691596493E-02 
572	 6.26792328483655E-02 
573	 6.27600684465645E-02 
574	 6.33284851211987E-02 
575	 6.33710374845655E-02 
576	 6.31329838960379E-02 
577	 6.33273609456433E-02 
578	 6.35623821399678E-02 
579	 6.37343167474397E-02 
580	 6.39600552661878E-02 
581	 6.39742849508764E-02 
582	 6.35919759607599E-02 
583	 6.35393060523017E-02 
584	 6.37732381974236E-02 
585	 0.06378309433675 
586	 6.39460785797411E-02 
587	 6.43779831564528E-02 
588	 6.49500948641163E-02 
589	 6.51235625171372E-02 
590	 6.42392615379297E-02 
591	 6.38913434859043E-02 
592	 6.42736810180038E-02 
593	 6.45586712111575E-02 
594	 6.47927287135037E-02 
595	 6.50078455104156E-02 
596	 6.54794777206905E-02 
597	 6.58204956694721E-02 
598	 6.52614060507877E-02 
599	 6.51989698636288E-02 
600	 6.57959538099378E-02 
601	 6.56940384932384E-02 
602	 6.54493664984446E-02 
603	 6.55953625993936E-02 
604	 6.59474391434096E-02 
605	 0.066319846184545 
606	 0.06640474123365 
607	 6.60178599459274E-02 
608	 6.53183949998055E-02 
609	 6.57720148089847E-02 
610	 6.64612904178376E-02 
611	 6.60792739565583E-02 
612	 6.57348128070562E-02 
613	 0.065770289246717 
614	 6.63902475249785E-02 
615	 6.69247826947694E-02 
616	 6.69990811975408E-02 
617	 6.73947522800806E-02 
618	 6.76331693653077E-02 
619	 6.66212110827758E-02 
620	 6.67727219246668E-02 
621	 6.82188708365677E-02 
622	 6.81845572449794E-02 
623	 6.75262847538618E-02 
624	 6.71388336115769E-02 
625	 6.72294647757885E-02 
626	 6.76221976617334E-02 
627	 6.76246959504055E-02 
628	 6.80195702001314E-02 
629	 6.88552802122932E-02 
630	 6.85354077634728E-02 
631	 6.79753044881492E-02 
632	 6.84614114091886E-02 
633	 6.88538986496683E-02 
634	 6.90052428661267E-02 
635	 0.069410412196358 
636	 6.95269787379336E-02 
637	 6.91306131234875E-02 
638	 6.92252376546476E-02 
639	 6.93981128149851E-02 
640	 6.86130395264327E-02 
641	 6.85684141421353E-02 
642	 6.94682371358412E-02 
643	 6.98457837693823E-02 
644	 0.069530208921128 
645	 6.85423435165198E-02 
646	 6.87857780427846E-02 
647	 6.98816039313601E-02 
648	 0.069816762757527 
649	 6.95438099269431E-02 
650	 6.94539136751694E-02 
651	 6.97262511872878E-02 
652	 6.99007811922643E-02 
653	 6.94243479574839E-02 
654	 6.95370763504409E-02 
655	 0.070196172863843 
656	 7.01427910945747E-02 
657	 6.97284943112526E-02 
658	 6.92994178195066E-02 
659	 6.95175389770507E-02 
660	 6.99201939506458E-02 
661	 6.96607444445682E-02 
662	 0.069338650600281 
663	 6.91832979652977E-02 
664	 6.93940271876138E-02 
665	 6.96399560657203E-02 
666	 6.96280332813115E-02 
667	 6.94045348033954E-02 
668	 6.90445611066879E-02 
669	 6.86815699609082E-02 
670	 6.83200355768308E-02 
671	 6.81490933358109E-02 
672	 6.90446181087547E-02 
673	 0.0700807516432 
674	 7.01557350938472E-02 
675	 0.070356983119251 
676	 7.07036852804302E-02 
677	 7.03842998069092E-02 
678	 7.05273320682977E-02 
679	 7.15901802506266E-02 
680	 7.21284255376241E-02 
681	 0.072260421668874 
682	 0.072457878498481 
683	 7.26916507349794E-02 
684	 7.31091907689207E-02 
685	 7.41825893089875E-02 
686	 7.55627346537692E-02 
687	 7.69770537299894E-02 
688	 7.92913689120979E-02 
689	 8.14176040737651E-02 
690	 8.11863310432945E-02 
691	 8.16096922098755E-02 
692	 0.083321502734543 
693	 8.40389409566614E-02 
694	 8.48759340908284E-02 
695	 8.69932194817534E-02 
696	 8.85693987748494E-02 
697	 8.97047698612824E-02 
698	 9.18500317337913E-02 
699	 9.35676827125015E-02 
700	 9.43352221848204E-02 
701	 9.58833160655818E-02 
702	 9.74740033276744E-02 
703	 9.78609327675461E-02 
704	 9.94467836737508E-02 
705	 0.101931294369294 
706	 0.102123299613714 
707	 0.102296832142062 
708	 0.103860175686361 
709	 0.105476695387507 
710	 0.106786357274878 
711	 0.107460173227581 
712	 0.108385398885021 
713	 0.10968168184189 
714	 0.11045073383011 
715	 0.111320815592389 
716	 0.112982970466317 
717	 0.115004561277594 
718	 0.117187478753651 
719	 0.118912935639904 
720	 0.120103460451133 
721	 0.120713564763426 
722	 0.120584293095371 
723	 0.120753242932152 
724	 0.122357438389379 
725	 0.12340921371824 
726	 0.12373873566952 
727	 0.124693891890736 
728	 0.125756688547261 
729	 0.126612358741558 
730	 0.126921100755669 
731	 0.127027171279253 
732	 0.127447384889334 
733	 0.127702301563648 
734	 0.127878177431993 
735	 0.128488718697128 
736	 0.129543011260637 
737	 0.130878371597064 
738	 0.131364648500156 
739	 0.131244735661451 
740	 0.131232664647143 
741	 0.131621976067728 
742	 0.132433851600055 
743	 0.133215089440277 
744	 0.133795784774231 
745	 0.134094382481845 
746	 0.134673573273069 
747	 0.135569647678887 
748	 0.136704358941971 
749	 0.137429336237514 
750	 0.137624504956427 
751	 0.13812956149404 
752	 0.138991391715724 
753	 0.140156452723223 
754	 0.140980373686798 
755	 0.141363226906741 
756	 0.141329069491985 
757	 0.141894781368567 
758	 0.143641132723209 
759	 0.146222204068707 
760	 0.150297709525252 
761	 0.152738104322651 
762	 0.154929172781682 
763	 0.156148794878682 
764	 0.153507288757627 
765	 0.15171089795671 
766	 0.152013031434026 
767	 0.151596568764793 
768	 0.151106522414355 
769	 0.151517820152966 
770	 0.151705762694153 
771	 0.1518144013529 
772	 0.153388312730762 
773	 0.154810329496377 
774	 0.155096838691116 
775	 0.155827702746507 
776	 0.156815943040001 
777	 0.157314913743585 
778	 0.157994788138916 
779	 0.158957455042067 
780	 0.159770990784526 
781	 0.160542491846494 
782	 0.161346348881671 
783	 0.161851340408592 
784	 0.162500908577592 
785	 0.164410507779765 
786	 0.165726779272217 
787	 0.166013879528684 
788	 0.166515740121179 
789	 0.167247054041407 
790	 0.168158915746511 
791	 0.169324537709547 
792	 0.170134012911765 
793	 0.168837578500232 
794	 0.169308109689453 
795	 0.17240829451518 
796	 0.174752616963666 
797	 0.175649499542373 
798	 0.174808838033508 
799	 0.175185388618191 
800	 0.176625027282126 
801	 0.176902840793517 
802	 0.177108353583878 
803	 0.177793789428241 
804	 0.179731358722645 
805	 0.181583593048068 
806	 0.181932535355552 
807	 0.182296764876976 
808	 0.183210504683781 
809	 0.185258002159207 
810	 0.187135419152394 
811	 0.188326767932566 
812	 0.189818964963801 
813	 0.191489516477323 
814	 0.193009847178554 
815	 0.194009177697616 
816	 0.194733541713036 
817	 0.196532703376467 
818	 0.197296727022727 
819	 0.196621110518572 
820	 0.19741623727005 
821	 0.19896986784771 
822	 0.20016404742025 
823	 0.200974815708168 
824	 0.201364514234543 
825	 0.201402552332271 
826	 0.201530935554242 
827	 0.202171310787909 
828	 0.20443654568982 
829	 0.206407937039485 
830	 0.205755961337726 
831	 0.206777712448836 
832	 0.209241190913508 
833	 0.209857183575178 
834	 0.209671796131511 
835	 0.209263910268743 
836	 0.209227862075673 
837	 0.209995831071968 
838	 0.211913669558082 
839	 0.213905639015219 
840	 0.215365937664548 
841	 0.215368169397344 
842	 0.215627932994217 
843	 0.21659155522187 
844	 0.215695507830336 
845	 0.215798547070225 
846	 0.220028788412523 
847	 0.221779015792024 
848	 0.220939584008824 
849	 0.221415769004022 
850	 0.222111465687014 
851	 0.222856950792061 
852	 0.224579731770225 
853	 0.225935430260037 
854	 0.225575859993881 
855	 0.226052624793007 
856	 0.227147935303299 
857	 0.226891451616085 
858	 0.227223670394595 
859	 0.228586710062549 
860	 0.229585631202916 
861	 0.230663446919342 
862	 0.232295232053527 
863	 0.234191701374896 
864	 0.235830357348052 
865	 0.236101196428446 
866	 0.23709459655754 
867	 0.238965730242077 
868	 0.238688192374579 
869	 0.238752534044096 
870	 0.241119020834327 
871	 0.243514392634351 
872	 0.245104995790152 
873	 0.244899875808525 
874	 0.246368704825151 
875	 0.249213629577389 
876	 0.24738925948217 
877	 0.246277303998032 
878	 0.249360662767349 
879	 0.251106931886126 
880	 0.252066200502308 
881	 0.254399070522759 
882	 0.255276909991413 
883	 0.255227953941977 
884	 0.259151506137107 
885	 0.261184489167328 
886	 0.258940861609722 
887	 0.260258680630599 
888	 0.263640573779633 
889	 0.265854322933463 
890	 0.266283102379925 
891	 0.266224793610747 
892	 0.270635517175212 
893	 0.274568938926997 
894	 0.275687764284249 
895	 0.275507830888534 
896	 0.276125640665152 
897	 0.279736089212271 
898	 0.282323818067307 
899	 0.283487245745608 
900	 0.285035159821573 
901	 0.28529951965325 
902	 0.283910634552262 
903	 0.281184788734596 
904	 0.279807675533505 
905	 0.281870219308085 
906	 0.286184947975829 
907	 0.290930502017743 
908	 0.293365017295521 
909	 0.292410077869426 
910	 0.28948341482897 
911	 0.290821237017788 
912	 0.294390049241927 
913	 0.298275568613413 
914	 0.298778254935251 
915	 0.29876328728865 
916	 0.302006576595225 
917	 0.302305763148271 
918	 0.300745601946797 
919	 0.304013649444254 
920	 0.305648898533027 
921	 0.3039063840235 
922	 0.301446739278278 
923	 0.301617744434697 
924	 0.306861317806915 
925	 0.309532912389702 
926	 0.308746485952123 
927	 0.305744597662873 
928	 0.306905459263765 
929	 0.313887676962917 
930	 0.319622875482764 
931	 0.325294366772873 
932	 0.330994241085448 
933	 0.333754894555207 
934	 0.331087869694251 
935	 0.321411412018087 
936	 0.321621865538566 
937	 0.329923203635849 
938	 0.329706792757219 
939	 0.325814565698675 
940	 0.322936371151933 
941	 0.337376597346715 
942	 0.341420706646661 
943	 0.319249198467603 
944	 0.314329053545911 
945	 0.322200417844393 
946	 0.326232843274985 
947	 0.323468748543714 
948	 0.319937688989797 
949	 0.341438202096676 
950	 0.346754900489797 
951	 0.326420357591054 
952	 0.323891097037262 
953	 0.327289327939031 
954	 0.323715122655381 
955	 0.325431469292037 
956	 0.331253122241218 
957	 0.336615407392948 
958	 0.334912791481714 
959	 0.326334872006776 
960	 0.315675933753959 
961	 0.315136936733791 
962	 0.327272244930149 
963	 0.331912660316206 
964	 0.333178251437183 
965	 0.336338891874689 
966	 0.333843135903082 
967	 0.327376866919745 
968	 0.321025361874291 
969	 0.324857106301102 
970	 0.335352182693708 
971	 0.329040797683786 
972	 0.325727495491325 
973	 0.333297970409998 
974	 0.325459781074619 
975	 0.317732929707821 
976	 0.328435456762089 
977	 0.329656422177038 
978	 0.324392902375921 
979	 0.330341772107128 
980	 0.336876484578929 
981	 0.341161390933002 
982	 0.345067334010815 
983	 0.339570538014397 
984	 0.324361154464348 
985	 0.327370695072034 
986	 0.334621489379634 
987	 0.329848070968274 
988	 0.335318079080374 
989	 0.343319964806408 
990	 0.330987101766875 
991	 0.327499124979861 
992	 0.336580146259848 
993	 0.339847247051958 
994	 0.340173627900551 
995	 0.338954101622123 
996	 0.338052090219058 
997	 0.33646545462553 
998	 0.333888719194174 
999	 0.340617675506028 
1000	 0.35009752752602 
1001	 0.348919922426768 
1002	 0.351138467305774 
1003	 0.355639878275109 
1004	 0.345204586384612 
1005	 0.345467786172065 
1006	 0.360892756227706 
1007	 0.358309040185892 
1008	 0.351010013926088 
1009	 0.351015254128066 
1010	 0.355787021327514 
1011	 0.359814163747025 
1012	 0.356588210771309 
1013	 0.359478486785244 
1014	 0.365272237885137 
1015	 0.358234927520983 
1016	 0.356463423522406 
1017	 0.361889974231109 
1018	 0.358596063337208 
1019	 0.355430157451122 
1020	 0.355754162159338 
1021	 0.346096369418206 
1022	 0.34248111945645 
1023	 0.357398762472971 
1024	 0.350125640850687 
1025	 0.332463149572068 
1026	 0.336195319003481 
1027	 0.351729296504485 
1028	 0.37104227536111 
1029	 0.379895842993967 
1030	 0.37581771227933 
1031	 0.364808664059875 
1032	 0.379689773346918 
1033	 0.383788402503724 
1034	 0.360104451945736 
1035	 0.359006469231048 
1036	 0.370278817661022 
1037	 0.377526448993674 
1038	 0.368067494032378 
1039	 0.351447396453515 
1040	 0.346993136315112 
1041	 0.344735912334465 
1042	 0.346257041998438 
1043	 0.364250409593435 
1044	 0.360282274296565 
1045	 0.332203997896726 
1046	 0.340949137173046 
1047	 0.341581385876483 
1048	 0.316146748164339 
1049	 0.326057110095025 
1050	 0.353864127652541 
1051	 0.375500754554156 
1052	 0.365406753256384 
1053	 0.343399645880446 
1054	 0.350403729693358 
1055	 0.346650490458859 
1056	 0.336393674569648 
1057	 0.350883399994229 
1058	 0.357514081613813 
1059	 0.356044337022003 
1060	 0.388340545636114 
1061	 0.398833091740428 
1062	 0.372562140967002 
1063	 0.377939431183147 
1064	 0.378585533767534 
1065	 0.351917849146054 
1066	 0.352213871457961 
1067	 0.341478212333113 
1068	 0.282729188433001 
1069	 0.288676753959862 
1070	 0.322770145206118 
1071	 0.287265363065638 
1072	 0.262392050271901 
1073	 0.259554834545677 
1074	 0.283745856203325 
1075	 0.30679997060932 
