Wavelength	SHSI00294.asd
325	 0.141095327384644 
326	 0.132410016554012 
327	 0.111685426732723 
328	 0.113957875292219 
329	 0.11796270559727 
330	 0.116019361550499 
331	 0.112599962599366 
332	 0.112243009228339 
333	 0.11815562620678 
334	 0.115172575869146 
335	 0.106760644723065 
336	 0.106574854413049 
337	 0.107652035472715 
338	 0.107928836642966 
339	 0.107467769628169 
340	 0.108178262501054 
341	 0.111324862332479 
342	 0.113811235957005 
343	 0.115470324162191 
344	 0.116945355187485 
345	 0.11891115003353 
346	 0.120272764091479 
347	 0.116062263011826 
348	 0.112059433635015 
349	 0.1119045062665 
350	 0.1103512547504 
351	 0.110238052206917 
352	 0.117494494560406 
353	 0.117973640654015 
354	 0.111769825133216 
355	 0.112410286857241 
356	 0.116748452058742 
357	 0.121878305566949 
358	 0.122586388134285 
359	 0.120228369503802 
360	 0.117897236433617 
361	 0.116770969384367 
362	 0.116632885775501 
363	 0.114966710806879 
364	 0.114602509922073 
365	 0.116434524685434 
366	 0.115674491624195 
367	 0.114912403926591 
368	 0.11824561674364 
369	 0.120833681888657 
370	 0.121674784213677 
371	 0.12116527224876 
372	 0.122661014122406 
373	 0.126863667466563 
374	 0.125301909711721 
375	 0.120572785135627 
376	 0.117484911953126 
377	 0.116398530254015 
378	 0.11717070978885 
379	 0.118696005944633 
380	 0.119730658303814 
381	 0.119840856226533 
382	 0.121998096204522 
383	 0.122871589170657 
384	 0.117941768932737 
385	 0.114881167107684 
386	 0.114638821326171 
387	 0.113793794646959 
388	 0.112582914929818 
389	 0.111471321718653 
390	 0.112871572219959 
391	 0.115438790628803 
392	 0.117315716044118 
393	 0.117414579384288 
394	 0.115807971302252 
395	 0.113884953579385 
396	 0.11088480509356 
397	 0.107171394257494 
398	 0.105336024455319 
399	 0.105151520083386 
400	 0.106062299441316 
401	 0.106619994097764 
402	 0.107047838668218 
403	 0.108958031747675 
404	 0.110177013082502 
405	 0.109979549483626 
406	 0.110107785512896 
407	 0.110118720082648 
408	 0.109299109188702 
409	 0.108814853729971 
410	 0.108832366011247 
411	 0.109067377919848 
412	 0.109065876060292 
413	 0.108628595349856 
414	 0.107990434413657 
415	 0.107622753263726 
416	 0.108070051255333 
417	 0.108445939058008 
418	 0.108631843186285 
419	 0.109122620843925 
420	 0.109025229014325 
421	 0.108106083028782 
422	 0.108282052837465 
423	 0.109046010338126 
424	 0.109365505870225 
425	 0.108975775658989 
426	 0.108273934721474 
427	 0.109067666066053 
428	 0.109694260823663 
429	 0.109115833100969 
430	 0.108569826138227 
431	 0.107871856276891 
432	 0.106428313566516 
433	 0.105606588209355 
434	 0.105680725186133 
435	 0.106060531102133 
436	 0.107017604359055 
437	 0.108542230759191 
438	 0.109003590254233 
439	 0.108576282900474 
440	 0.10799410900017 
441	 0.107747206538159 
442	 0.107937356783636 
443	 0.107968751371709 
444	 0.108361925749097 
445	 0.109441063985218 
446	 0.109775379480969 
447	 0.109605090086668 
448	 0.110025152731775 
449	 0.110378174354358 
450	 0.110502757034508 
451	 0.110531885817464 
452	 0.111023446717614 
453	 0.112437134534248 
454	 0.113139413977382 
455	 0.11305889378729 
456	 0.113021524527351 
457	 0.112737707635786 
458	 0.112295968996777 
459	 0.112551872791189 
460	 0.11321699083915 
461	 0.113846983364584 
462	 0.113855796384698 
463	 0.113496028563731 
464	 0.113995743349623 
465	 0.114637844584336 
466	 0.115047977718059 
467	 0.115410653173219 
468	 0.115613393086034 
469	 0.115489199151145 
470	 0.115114306583436 
471	 0.114768207803978 
472	 0.115169923128432 
473	 0.116045273931883 
474	 0.117022268337095 
475	 0.116743378421502 
476	 0.115862297173858 
477	 0.115834373999603 
478	 0.115796472844939 
479	 0.11576973559393 
480	 0.116809905388556 
481	 0.11775538617563 
482	 0.117705483513473 
483	 0.117787200500496 
484	 0.118138203196684 
485	 0.11866619797222 
486	 0.118848059755619 
487	 0.118439856915074 
488	 0.117426470650194 
489	 0.116506400615303 
490	 0.116381787623264 
491	 0.117532543288908 
492	 0.119035297352453 
493	 0.118200895016023 
494	 0.117573679744069 
495	 0.1182082996273 
496	 0.119152319476174 
497	 0.120023358082487 
498	 0.12045185976935 
499	 0.120991935377071 
500	 0.121660055850477 
501	 0.122132214902771 
502	 0.122057237312507 
503	 0.121412192916119 
504	 0.121670285378456 
505	 0.122421619003193 
506	 0.122630042712291 
507	 0.123270182307017 
508	 0.124377971119422 
509	 0.124948506116495 
510	 0.125738745163626 
511	 0.127257997580707 
512	 0.127941243889496 
513	 0.128153364515525 
514	 0.129375880409091 
515	 0.130530655642032 
516	 0.131219724096448 
517	 0.131537444023293 
518	 0.131738781115417 
519	 0.132094169117496 
520	 0.132536075990801 
521	 0.133057558262342 
522	 0.133598035435714 
523	 0.134447553088456 
524	 0.135703330256909 
525	 0.13702692723021 
526	 0.138235152568536 
527	 0.139141423296553 
528	 0.139564166110788 
529	 0.13971928715517 
530	 0.140374976327293 
531	 0.141452092047896 
532	 0.142807303823959 
533	 0.143692028052396 
534	 0.144145925312444 
535	 0.144471080633153 
536	 0.144933385158763 
537	 0.145673311933869 
538	 0.14674230105171 
539	 0.147787806883264 
540	 0.148454500353762 
541	 0.148609441727973 
542	 0.148658478424455 
543	 0.149684940119432 
544	 0.150882534945023 
545	 0.151840717742039 
546	 0.152308746170084 
547	 0.15273612553131 
548	 0.153730223812472 
549	 0.154504123625284 
550	 0.154926942217703 
551	 0.155286844307337 
552	 0.155503674274 
553	 0.15564839120884 
554	 0.156656241187571 
555	 0.158057820624345 
556	 0.158774971310104 
557	 0.159337442227293 
558	 0.159808822899731 
559	 0.159764957324689 
560	 0.159892191305505 
561	 0.160771569371708 
562	 0.16131979470995 
563	 0.161560458946817 
564	 0.162150956452496 
565	 0.162536583553081 
566	 0.162598226020256 
567	 0.163041415884216 
568	 0.163563882699508 
569	 0.163705963238305 
570	 0.163531714409035 
571	 0.163256228140145 
572	 0.163475540470412 
573	 0.163954844078608 
574	 0.16449296869314 
575	 0.164695795930043 
576	 0.164712058132349 
577	 0.16490005495324 
578	 0.165440313093948 
579	 0.166144838692089 
580	 0.165907301403398 
581	 0.165641507041032 
582	 0.166144403472535 
583	 0.16645415165841 
584	 0.16651716386008 
585	 0.166576794434262 
586	 0.16706394925895 
587	 0.167971975194498 
588	 0.168039229789158 
589	 0.167616128977829 
590	 0.167337783757895 
591	 0.167514980700469 
592	 0.16804284480168 
593	 0.168308826525286 
594	 0.168395213137319 
595	 0.168404334249899 
596	 0.168819714143995 
597	 0.169413965813125 
598	 0.169703282609295 
599	 0.169655442961929 
600	 0.169393084124356 
601	 0.169535169093924 
602	 0.169719476465544 
603	 0.169651069149056 
604	 0.170084265788746 
605	 0.170779979106037 
606	 0.170819339872311 
607	 0.170784499529604 
608	 0.170859888150218 
609	 0.170821509129962 
610	 0.170473387029192 
611	 0.169611756258703 
612	 0.169553554998077 
613	 0.170098957729607 
614	 0.169399545007531 
615	 0.168763358902796 
616	 0.168886623285736 
617	 0.168463561402904 
618	 0.167870618266422 
619	 0.168048220945202 
620	 0.1682010300074 
621	 0.16809700893888 
622	 0.167792316797726 
623	 0.167693114753575 
624	 0.168112940172385 
625	 0.1681691325399 
626	 0.167917526782598 
627	 0.167873856499028 
628	 0.168279244254362 
629	 0.169139611738582 
630	 0.169787234385124 
631	 0.170063200972171 
632	 0.169873892213766 
633	 0.169625304053803 
634	 0.16951278415634 
635	 0.169759904577053 
636	 0.169852696690837 
637	 0.169600355865907 
638	 0.170117352429854 
639	 0.171012894729417 
640	 0.171370279925771 
641	 0.171378942651464 
642	 0.171123665019261 
643	 0.170749985418838 
644	 0.170661194446078 
645	 0.171161954420706 
646	 0.171508150216426 
647	 0.171632519536275 
648	 0.171814765264902 
649	 0.171832340941401 
650	 0.171557987316846 
651	 0.17074602286212 
652	 0.170054007473422 
653	 0.170252271433713 
654	 0.170169663439373 
655	 0.169487720755708 
656	 0.168424377570657 
657	 0.166722512111836 
658	 0.164571145938644 
659	 0.163561071428255 
660	 0.163008120384849 
661	 0.161573760574095 
662	 0.160259427757746 
663	 0.159141432498097 
664	 0.157397600115936 
665	 0.155494116536082 
666	 0.153884228794966 
667	 0.15302223004538 
668	 0.152469638848329 
669	 0.150909849957033 
670	 0.149549596044474 
671	 0.148904585083791 
672	 0.149236619633821 
673	 0.14933990164087 
674	 0.14789080440643 
675	 0.147852334449889 
676	 0.14907309751572 
677	 0.148801191772039 
678	 0.149173893959397 
679	 0.15103629887989 
680	 0.151684599970002 
681	 0.152015070213495 
682	 0.153940832732319 
683	 0.156101854766502 
684	 0.158186709777705 
685	 0.160626136899259 
686	 0.163524595795154 
687	 0.166911233042981 
688	 0.170502882641795 
689	 0.174013478060881 
690	 0.177731884181152 
691	 0.181823002185141 
692	 0.18632387797686 
693	 0.190684970428765 
694	 0.195238786379414 
695	 0.200112645999888 
696	 0.204422029600666 
697	 0.208244075852239 
698	 0.212444520874527 
699	 0.216531950871839 
700	 0.220261162120456 
701	 0.22404847658483 
702	 0.227773043002326 
703	 0.23124887521177 
704	 0.234334559503916 
705	 0.237100676540772 
706	 0.239660157585807 
707	 0.242547190106612 
708	 0.245950944674844 
709	 0.248439632290212 
710	 0.250397619927883 
711	 0.252855076335837 
712	 0.255772648678552 
713	 0.258783378689804 
714	 0.260359730815805 
715	 0.261460415542711 
716	 0.263134167502272 
717	 0.265512402266153 
718	 0.268298875148551 
719	 0.269914313524209 
720	 0.271410083282812 
721	 0.273021564725525 
722	 0.274147197292869 
723	 0.275524478381078 
724	 0.277894977671376 
725	 0.279529195170769 
726	 0.280371115870357 
727	 0.282066780971201 
728	 0.283503793598423 
729	 0.284298736435232 
730	 0.285826499892003 
731	 0.287523950211596 
732	 0.288427938604851 
733	 0.289430310532135 
734	 0.290649841257016 
735	 0.291697579579587 
736	 0.292716030186584 
737	 0.293762093437313 
738	 0.294757134601118 
739	 0.29581030875314 
740	 0.297167237767792 
741	 0.298140179724599 
742	 0.298668827352388 
743	 0.299465356386843 
744	 0.300426897600188 
745	 0.301439439844889 
746	 0.302397447924264 
747	 0.303299193728508 
748	 0.304240513802224 
749	 0.305035287841007 
750	 0.305694179320371 
751	 0.306620752912978 
752	 0.307763402395941 
753	 0.30899355625893 
754	 0.309341177176866 
755	 0.309284936516045 
756	 0.311078376957664 
757	 0.311110208124341 
758	 0.30823412065819 
759	 0.307889801077757 
760	 0.31158504026225 
761	 0.318049227755468 
762	 0.320626578018895 
763	 0.319700499251156 
764	 0.321287436545859 
765	 0.323006927003855 
766	 0.323817027556393 
767	 0.323166847015597 
768	 0.322400813340036 
769	 0.323050587632322 
770	 0.323495433942593 
771	 0.323661292193158 
772	 0.324654760054348 
773	 0.326015444847303 
774	 0.327355173163204 
775	 0.328218972259036 
776	 0.328751842681413 
777	 0.329373057705224 
778	 0.329931775674225 
779	 0.330462570799506 
780	 0.331184098052647 
781	 0.332018463912755 
782	 0.332897222128985 
783	 0.333805570617241 
784	 0.334848447317418 
785	 0.336349745612862 
786	 0.337034077115703 
787	 0.336863440535439 
788	 0.337825473003273 
789	 0.339234783289311 
790	 0.34033644269519 
791	 0.341214556335891 
792	 0.341968394139202 
793	 0.342871910409311 
794	 0.343629505664994 
795	 0.344171579015603 
796	 0.34472261375887 
797	 0.345102171689787 
798	 0.345183986213833 
799	 0.345990002538019 
800	 0.347533547084669 
801	 0.349414602014591 
802	 0.350489254498404 
803	 0.350511445906694 
804	 0.35123956848199 
805	 0.352145811150162 
806	 0.352558572748171 
807	 0.353440893714371 
808	 0.354613273412633 
809	 0.354982767825412 
810	 0.355459181086153 
811	 0.356282069901305 
812	 0.356286964365862 
813	 0.356302301986241 
814	 0.357521506424933 
815	 0.359062686562748 
816	 0.360969564643715 
817	 0.364362557949753 
818	 0.3662978625456 
819	 0.365766266741114 
820	 0.365037362767562 
821	 0.365126486629452 
822	 0.366963507380905 
823	 0.369582293751169 
824	 0.371640111819844 
825	 0.370453721545273 
826	 0.369591164017512 
827	 0.370616875122589 
828	 0.373002636596686 
829	 0.374634250244382 
830	 0.373155838581906 
831	 0.373537648630534 
832	 0.376043853885133 
833	 0.378257461680668 
834	 0.379183370839316 
835	 0.378612273727855 
836	 0.378545019264545 
837	 0.378992708361598 
838	 0.379747976561428 
839	 0.380949842947761 
840	 0.382158132576227 
841	 0.381966171471082 
842	 0.382878408534262 
843	 0.385275445006384 
844	 0.384617191426744 
845	 0.383322592477332 
846	 0.384396341314077 
847	 0.384417659990788 
848	 0.383589096534306 
849	 0.384552102275984 
850	 0.385151239598169 
851	 0.384960243255314 
852	 0.386604361146852 
853	 0.389433667150836 
854	 0.39235615940135 
855	 0.393183380897906 
856	 0.392075295225124 
857	 0.390356541912697 
858	 0.390429569770946 
859	 0.392526441305493 
860	 0.392678071407364 
861	 0.392150691101192 
862	 0.392357482126969 
863	 0.392686552660047 
864	 0.393432133265679 
865	 0.395419853009381 
866	 0.397822065695081 
867	 0.399933415482538 
868	 0.400416689370441 
869	 0.400624590256993 
870	 0.401673825545878 
871	 0.402670579462989 
872	 0.403157751327498 
873	 0.402361185258498 
874	 0.403473769747207 
875	 0.406661667164821 
876	 0.408291487403708 
877	 0.408948918763472 
878	 0.40936805089478 
879	 0.411553870901627 
880	 0.414471541568451 
881	 0.416012549914432 
882	 0.41664393705233 
883	 0.416869530671363 
884	 0.41798448989125 
885	 0.419607069825044 
886	 0.421244812221364 
887	 0.421226126530332 
888	 0.42062221293246 
889	 0.421071652877909 
890	 0.421221533387159 
891	 0.421139430410654 
892	 0.421937100700759 
893	 0.42293798347444 
894	 0.423747783876579 
895	 0.423684805399169 
896	 0.425036559525117 
897	 0.430280903235097 
898	 0.43482255637697 
899	 0.437842256753925 
900	 0.440457545425256 
901	 0.441464127805329 
902	 0.440647946472558 
903	 0.438487752637455 
904	 0.436520713536178 
905	 0.436133278417996 
906	 0.438608828880051 
907	 0.442149846735339 
908	 0.443280805196111 
909	 0.442915672803047 
910	 0.442055262289379 
911	 0.443431825762081 
912	 0.445569602126177 
913	 0.447478425987781 
914	 0.448837619249247 
915	 0.450239569871498 
916	 0.4523787654044 
917	 0.452078024326829 
918	 0.450214328724028 
919	 0.45103426312766 
920	 0.450919897360578 
921	 0.448902811419478 
922	 0.446577774570767 
923	 0.445403568860467 
924	 0.446264329492603 
925	 0.445197262192036 
926	 0.441704822083555 
927	 0.436069392823087 
928	 0.43541155773205 
929	 0.441166192324144 
930	 0.444839848608377 
931	 0.446424741672924 
932	 0.446769752696853 
933	 0.455150068379187 
934	 0.46837095151929 
935	 0.478994203937051 
936	 0.476275854108807 
937	 0.462741424342231 
938	 0.450290931955906 
939	 0.448122539777582 
940	 0.455346325337102 
941	 0.453407870631696 
942	 0.451345379322851 
943	 0.455766940044189 
944	 0.460515035509613 
945	 0.462950733821794 
946	 0.460358151060773 
947	 0.461122303593242 
948	 0.464105687835613 
949	 0.458840949164941 
950	 0.448787693778463 
951	 0.439545658705622 
952	 0.452422871456849 
953	 0.465687282155233 
954	 0.460118694188521 
955	 0.452035015949242 
956	 0.447662474312243 
957	 0.452587562212058 
958	 0.460981423252244 
959	 0.467935820300754 
960	 0.464503634297324 
961	 0.459968069083824 
962	 0.459109355769639 
963	 0.459143415551373 
964	 0.460097628208234 
965	 0.461677003587292 
966	 0.456196304623729 
967	 0.447989406178882 
968	 0.44754310630955 
969	 0.448574191630077 
970	 0.449471607726437 
971	 0.450406236053822 
972	 0.453375423414491 
973	 0.458686307890902 
974	 0.460922516771854 
975	 0.461722976001176 
976	 0.463409854600156 
977	 0.463364314039011 
978	 0.460074930881546 
979	 0.450333390730316 
980	 0.451567175048028 
981	 0.463749512763865 
982	 0.466735273893729 
983	 0.462941328604022 
984	 0.456082239528282 
985	 0.459071261157127 
986	 0.466174402671868 
987	 0.469631998291471 
988	 0.469717797737615 
989	 0.467811014916765 
990	 0.466582121533424 
991	 0.470016729583999 
992	 0.475233564338649 
993	 0.467672269376101 
994	 0.45816714718881 
995	 0.454078686100882 
996	 0.462688675435194 
997	 0.469517123052039 
998	 0.461392346219217 
999	 0.461325727830044 
1000	 0.467418359176451 
1001	 0.469648427147706 
1002	 0.467866369213945 
1003	 0.464854616679356 
1004	 0.469831005411891 
1005	 0.478014651799862 
1006	 0.48488583455629 
1007	 0.48060764260995 
1008	 0.474351702805125 
1009	 0.473255653613966 
1010	 0.467150992894976 
1011	 0.464109522373117 
1012	 0.476177639183049 
1013	 0.47935033535347 
1014	 0.47444487740668 
1015	 0.476592512212507 
1016	 0.477907852346388 
1017	 0.476205785291196 
1018	 0.469570825800625 
1019	 0.475892419507655 
1020	 0.499933251370254 
1021	 0.507791608876259 
1022	 0.498957617629986 
1023	 0.479473079848512 
1024	 0.480273342249546 
1025	 0.491984490170578 
1026	 0.490068229679461 
1027	 0.489180096309474 
1028	 0.489433151053182 
1029	 0.480301315945193 
1030	 0.476786503341853 
1031	 0.484827054455184 
1032	 0.507141832689168 
1033	 0.513975852836104 
1034	 0.492424211039032 
1035	 0.487230720703627 
1036	 0.495531138774562 
1037	 0.50805043993026 
1038	 0.511288260919694 
1039	 0.506212256262508 
1040	 0.499929694950807 
1041	 0.499276383093086 
1042	 0.50140442926946 
1043	 0.491726836127842 
1044	 0.484823063044576 
1045	 0.486651423888293 
1046	 0.499146953448377 
1047	 0.503915931355462 
1048	 0.490940009496088 
1049	 0.473783648699457 
1050	 0.468917654846213 
1051	 0.48818920390145 
1052	 0.499606827664391 
1053	 0.498677327715858 
1054	 0.487006176785515 
1055	 0.479550380297582 
1056	 0.485256163420137 
1057	 0.520321488209158 
1058	 0.514970823581635 
1059	 0.468931580375114 
1060	 0.454487432862889 
1061	 0.474303737538597 
1062	 0.513580413700107 
1063	 0.478987937621134 
1064	 0.450263969196978 
1065	 0.482225491192799 
1066	 0.50609923517141 
1067	 0.504588603915938 
1068	 0.473989946457915 
1069	 0.490171562874497 
1070	 0.517907757952934 
1071	 0.479094489073356 
1072	 0.466794369994491 
1073	 0.492822526968241 
1074	 0.527248373899831 
1075	 0.516934954518358 
