Wavelength	SHSI00089.asd
325	 0.110805556553653 
326	 0.108966801380343 
327	 0.108390438278569 
328	 0.115135530087344 
329	 0.119864630949842 
330	 0.11827694418363 
331	 0.10550515784451 
332	 9.85154109877887E-02 
333	 0.111892925985838 
334	 0.11351273769349 
335	 0.106078150920288 
336	 0.109019907961802 
337	 0.113411179841182 
338	 0.115546740070127 
339	 0.110592283738599 
340	 0.107165358084123 
341	 0.111687559851282 
342	 0.112139707049537 
343	 0.109555991199487 
344	 0.109171375032154 
345	 0.110336278241036 
346	 0.112282838534874 
347	 0.112490369427204 
348	 0.112991949347227 
349	 0.114598766363869 
350	 0.11129771306175 
351	 0.107257387404687 
352	 0.109844079582358 
353	 0.112573807164396 
354	 0.113917426002025 
355	 0.114903700140284 
356	 0.115396519729857 
357	 0.115267470822894 
358	 0.113798251598358 
359	 0.112787642925216 
360	 0.11490992868631 
361	 0.11641907346856 
362	 0.116505755214261 
363	 0.115946514229309 
364	 0.115391900387624 
365	 0.115165665032985 
366	 0.114832758633429 
367	 0.113920537929478 
368	 0.111846697694548 
369	 0.112433758903379 
370	 0.115051929440299 
371	 0.114525041615162 
372	 0.114310904711328 
373	 0.115701020467778 
374	 0.114183993153132 
375	 0.111617502889504 
376	 0.111127100742285 
377	 0.11049879730947 
378	 0.109851327934639 
379	 0.111345988466572 
380	 0.111886317290576 
381	 0.110274395142778 
382	 0.10981215658226 
383	 0.110027070844085 
384	 0.109870619836162 
385	 0.108566034460774 
386	 0.106922124803921 
387	 0.10807576772938 
388	 0.108338227840182 
389	 0.106618918417867 
390	 0.107172406337849 
391	 0.108362842297256 
392	 0.107911866417252 
393	 0.106598659934855 
394	 0.105097844057397 
395	 0.10467096196963 
396	 0.105175052607116 
397	 0.106084210265383 
398	 0.105355696694065 
399	 0.10383103570573 
400	 0.102544135170961 
401	 0.101996356457763 
402	 0.102126695295544 
403	 0.102654951561194 
404	 0.102785718846408 
405	 0.102288023223489 
406	 0.102138215863638 
407	 0.102007552087698 
408	 0.101398619782085 
409	 0.100426807474307 
410	 9.95389495290459E-02 
411	 9.99528723180523E-02 
412	 9.99795390652507E-02 
413	 9.90556897235822E-02 
414	 9.91780647783143E-02 
415	 9.94749377335736E-02 
416	 9.86061742657586E-02 
417	 9.80727262560236E-02 
418	 9.81491293083083E-02 
419	 9.86314973707557E-02 
420	 9.87313485082397E-02 
421	 9.80915055527172E-02 
422	 0.097550652330025 
423	 9.72319025373276E-02 
424	 9.71407890674959E-02 
425	 9.72515931155001E-02 
426	 9.73885094089849E-02 
427	 9.69859275734216E-02 
428	 9.67028463421235E-02 
429	 9.69104389984651E-02 
430	 9.69093858725801E-02 
431	 9.66452287653401E-02 
432	 9.62030094784328E-02 
433	 9.56984562016957E-02 
434	 9.52897046374185E-02 
435	 0.095282255882772 
436	 9.54292813136165E-02 
437	 9.55573015369103E-02 
438	 9.57094432804209E-02 
439	 9.59088189026582E-02 
440	 9.62365983365018E-02 
441	 9.62044481918936E-02 
442	 9.58255533306287E-02 
443	 0.095800177376086 
444	 9.59276421574556E-02 
445	 9.60446790244944E-02 
446	 9.64415190029984E-02 
447	 9.70040300358972E-02 
448	 0.097450767324696 
449	 9.75172557997383E-02 
450	 9.72937502080848E-02 
451	 9.77160675793536E-02 
452	 9.83517718504108E-02 
453	 9.87247032037663E-02 
454	 9.90426421378803E-02 
455	 9.92928321457235E-02 
456	 9.93672989482911E-02 
457	 0.099356961568659 
458	 9.93372793573061E-02 
459	 9.94677849571727E-02 
460	 9.95724375375904E-02 
461	 9.94435113983188E-02 
462	 9.98806839567217E-02 
463	 0.100702666345118 
464	 0.100797294829511 
465	 0.100835261702233 
466	 0.101141750459773 
467	 0.101426845730825 
468	 0.10174077538526 
469	 0.102197368597529 
470	 0.102408715901861 
471	 0.102445059502346 
472	 0.102933309225915 
473	 0.1034029698147 
474	 0.103577329880452 
475	 0.103844115543003 
476	 0.10411512990123 
477	 0.10414143083058 
478	 0.104269990607256 
479	 0.104490927365312 
480	 0.104334512200468 
481	 0.10406657920095 
482	 0.103941538665298 
483	 0.10417379364728 
484	 0.104631433185056 
485	 0.104905614822883 
486	 0.105230889024699 
487	 0.105571980857689 
488	 0.105434713004905 
489	 0.105139154693801 
490	 0.105041916851566 
491	 0.104916927385889 
492	 0.104930902802644 
493	 0.105656051383635 
494	 0.106269810870623 
495	 0.106461443250539 
496	 0.106795005213545 
497	 0.107272094201945 
498	 0.107827750264717 
499	 0.108414357621634 
500	 0.109048048687797 
501	 0.10988738951158 
502	 0.110547498154662 
503	 0.110863910709643 
504	 0.111529070636233 
505	 0.112396965770703 
506	 0.113053501443633 
507	 0.114017489743145 
508	 0.115274466604847 
509	 0.116218826595548 
510	 0.11693634246145 
511	 0.117538503597519 
512	 0.118278976627896 
513	 0.119259712426333 
514	 0.120651845798411 
515	 0.121715364800641 
516	 0.122332429591037 
517	 0.123551078455737 
518	 0.124919856823656 
519	 0.125864165245228 
520	 0.126474817073997 
521	 0.127008288222697 
522	 0.128097670665039 
523	 0.129166235127887 
524	 0.130025018947431 
525	 0.131210570476594 
526	 0.132602412166558 
527	 0.13394905597295 
528	 0.135096592762895 
529	 0.135987177721051 
530	 0.136583560866763 
531	 0.13748707636835 
532	 0.139017914845333 
533	 0.140110981904983 
534	 0.140926628511621 
535	 0.142105582071232 
536	 0.143226977792294 
537	 0.144249160069751 
538	 0.14555748273224 
539	 0.14688287803913 
540	 0.147943548612431 
541	 0.148794245438489 
542	 0.149556515117493 
543	 0.150519588208544 
544	 0.151488224115046 
545	 0.152444780527547 
546	 0.153763358857358 
547	 0.155094968557667 
548	 0.155950075356196 
549	 0.156802241276785 
550	 0.157760975517245 
551	 0.158787117744532 
552	 0.159711652383375 
553	 0.16045056517648 
554	 0.161284390365194 
555	 0.162200192293777 
556	 0.163107112709075 
557	 0.163941571079548 
558	 0.1646333747565 
559	 0.165002612323473 
560	 0.165400683660563 
561	 0.166141876625081 
562	 0.1668983986451 
563	 0.16755442058124 
564	 0.167987740089584 
565	 0.168389680610424 
566	 0.168805409046795 
567	 0.168984082059584 
568	 0.169077363555403 
569	 0.169302934510245 
570	 0.169351690026639 
571	 0.169262024105249 
572	 0.169401344809248 
573	 0.169602531550464 
574	 0.169752782048485 
575	 0.169801855414586 
576	 0.169815288455406 
577	 0.169925390003068 
578	 0.170038311307886 
579	 0.170180185021822 
580	 0.170601795348529 
581	 0.170950043712582 
582	 0.170937054309708 
583	 0.171090214418144 
584	 0.171361703029897 
585	 0.171350218539734 
586	 0.171448225759518 
587	 0.171723850356321 
588	 0.171560239847155 
589	 0.171322141560369 
590	 0.171553231302056 
591	 0.171867467171363 
592	 0.172104447700038 
593	 0.17207396354237 
594	 0.172168404455998 
595	 0.172550553194098 
596	 0.172506319647543 
597	 0.172304686590028 
598	 0.172576449834425 
599	 0.17287539123822 
600	 0.173073400402247 
601	 0.173248462066684 
602	 0.173348031673377 
603	 0.173310320374421 
604	 0.172957875391337 
605	 0.172375284009093 
606	 0.171833655345636 
607	 0.171221793953085 
608	 0.170550748370278 
609	 0.170051819960663 
610	 0.169651953188643 
611	 0.169229147062628 
612	 0.168799433927339 
613	 0.168336197740351 
614	 0.167782568187674 
615	 0.167145242743917 
616	 0.166447223739994 
617	 0.165774452229819 
618	 0.165215329185277 
619	 0.164870665001418 
620	 0.164660382852367 
621	 0.16452164376653 
622	 0.164368808173641 
623	 0.164106293502819 
624	 0.163683223334521 
625	 0.163517981533811 
626	 0.163597928696303 
627	 0.163684217459556 
628	 0.163733239164962 
629	 0.163696469834511 
630	 0.163506920633746 
631	 0.16338347235934 
632	 0.163591429040925 
633	 0.163544754001186 
634	 0.163268274941144 
635	 0.16331496838789 
636	 0.163442703937797 
637	 0.163521686570445 
638	 0.163712917038278 
639	 0.163942830936585 
640	 0.164057274582699 
641	 0.164088804775574 
642	 0.164106019843277 
643	 0.164361318809523 
644	 0.164641195100669 
645	 0.164736799385741 
646	 0.164544088772519 
647	 0.164180736610518 
648	 0.164075624399907 
649	 0.163582928496125 
650	 0.162607462782718 
651	 0.162139238481527 
652	 0.161758960255965 
653	 0.16086332645902 
654	 0.159546610049073 
655	 0.157979555981094 
656	 0.157070005374695 
657	 0.155552516529347 
658	 0.152915783810152 
659	 0.150594684448002 
660	 0.148618254796504 
661	 0.146823993617683 
662	 0.144602711765404 
663	 0.141900297641374 
664	 0.139323237612314 
665	 0.137009222783874 
666	 0.135053068891503 
667	 0.133329148619748 
668	 0.131720573374418 
669	 0.129956254608146 
670	 0.128614987035608 
671	 0.127804839846974 
672	 0.126795980851598 
673	 0.125913639396885 
674	 0.125583467242067 
675	 0.125750764261269 
676	 0.126242639171315 
677	 0.12659278707947 
678	 0.127096897754777 
679	 0.12792237060251 
680	 0.129025259504589 
681	 0.13045094644429 
682	 0.132286585375698 
683	 0.13405502588432 
684	 0.135883247083182 
685	 0.138885093188326 
686	 0.142751753493938 
687	 0.147151817392928 
688	 0.151857641209513 
689	 0.156598230890295 
690	 0.162035075110199 
691	 0.167188155912675 
692	 0.17207675643639 
693	 0.177767637178442 
694	 0.183784083711894 
695	 0.189312232599797 
696	 0.194827272556367 
697	 0.200303585560776 
698	 0.205693627144109 
699	 0.211187455794609 
700	 0.216649189837347 
701	 0.221252757901369 
702	 0.225447306777053 
703	 0.230015521445535 
704	 0.23413725872212 
705	 0.23775161562487 
706	 0.241094660866557 
707	 0.244284400844945 
708	 0.247448431310415 
709	 0.250956774106482 
710	 0.254354060576131 
711	 0.256729505345902 
712	 0.258985383777133 
713	 0.261380767764785 
714	 0.263763865826123 
715	 0.265975463811231 
716	 0.267999409001082 
717	 0.270304486176165 
718	 0.272845441508867 
719	 0.274691739788145 
720	 0.276474992613554 
721	 0.278267564533731 
722	 0.279652175941107 
723	 0.281134725905249 
724	 0.283159537407114 
725	 0.284548087564334 
726	 0.285227120898898 
727	 0.286200192110168 
728	 0.287438822187035 
729	 0.288856246654627 
730	 0.289792068084361 
731	 0.290507335894778 
732	 0.291469254524165 
733	 0.292134724423214 
734	 0.292523073086917 
735	 0.292983850047161 
736	 0.293638615183867 
737	 0.294505113331706 
738	 0.295086737973586 
739	 0.295589469026587 
740	 0.296549531092992 
741	 0.297264553089956 
742	 0.297614392991623 
743	 0.29805255755118 
744	 0.298652966293415 
745	 0.299425652762986 
746	 0.299753382028029 
747	 0.299865550053046 
748	 0.300585372443491 
749	 0.301303546041974 
750	 0.301809996796811 
751	 0.302253451229231 
752	 0.302578359443193 
753	 0.302749528216802 
754	 0.30345803545496 
755	 0.304452540456166 
756	 0.304696008052767 
757	 0.304381455968833 
758	 0.30378709426968 
759	 0.304798256697521 
760	 0.308053183832033 
761	 0.310961512182799 
762	 0.312035630272592 
763	 0.311742819220497 
764	 0.311920988414793 
765	 0.311729876951318 
766	 0.311129555645084 
767	 0.311115115413955 
768	 0.311177705900452 
769	 0.310642383183467 
770	 0.310790976094669 
771	 0.311617209833838 
772	 0.311911893454155 
773	 0.312163272035399 
774	 0.312692918641187 
775	 0.313334362897803 
776	 0.313985028466046 
777	 0.314546157668965 
778	 0.314630416527012 
779	 0.31442233526602 
780	 0.31519514951857 
781	 0.316041520995308 
782	 0.316212421727942 
783	 0.316019621533605 
784	 0.315842908635811 
785	 0.316361920939646 
786	 0.316897755552134 
787	 0.317309418306141 
788	 0.318119606967834 
789	 0.318803769732503 
790	 0.318877009726503 
791	 0.318927570860515 
792	 0.319026923759839 
793	 0.319023825879839 
794	 0.319126027280714 
795	 0.319519266497244 
796	 0.320804536422882 
797	 0.321610647121289 
798	 0.320670357362306 
799	 0.320423798566176 
800	 0.320942528165306 
801	 0.32098896459061 
802	 0.32120862009188 
803	 0.321761985289045 
804	 0.322249543039314 
805	 0.322662858866275 
806	 0.323035846206535 
807	 0.323428894602362 
808	 0.323931865043664 
809	 0.324801551748483 
810	 0.325366233944972 
811	 0.325468219463772 
812	 0.326132288287887 
813	 0.327307962710628 
814	 0.328761138285968 
815	 0.329549964255679 
816	 0.329730900752942 
817	 0.330493496551528 
818	 0.331136752331653 
819	 0.331427341433463 
820	 0.331763823735657 
821	 0.332150969671373 
822	 0.332551351311745 
823	 0.332977052234307 
824	 0.333467346631782 
825	 0.3342509432986 
826	 0.334587049071241 
827	 0.334353941152047 
828	 0.334826868774665 
829	 0.335538785770951 
830	 0.335771555504214 
831	 0.336087570320308 
832	 0.336459544987093 
833	 0.336438501397326 
834	 0.336666266775544 
835	 0.337159899458545 
836	 0.336292334480736 
837	 0.335395329563915 
838	 0.336040487327553 
839	 0.336143507001352 
840	 0.335681195616328 
841	 0.335931756500462 
842	 0.335992339761362 
843	 0.335591749799433 
844	 0.335427545649453 
845	 0.335543646457865 
846	 0.33588276398846 
847	 0.3354861977952 
848	 0.334668292860953 
849	 0.334991349288867 
850	 0.335083503742206 
851	 0.334508426677022 
852	 0.33418728741038 
853	 0.334148915895534 
854	 0.33432044644186 
855	 0.334355038546794 
856	 0.334191828569689 
857	 0.333937382137907 
858	 0.333416745273021 
859	 0.332688514209719 
860	 0.332149324119376 
861	 0.332310590373986 
862	 0.333504335382096 
863	 0.333826974645698 
864	 0.333416959086804 
865	 0.333465356302335 
866	 0.333910817951979 
867	 0.334722796540581 
868	 0.335725738508405 
869	 0.336289474067434 
870	 0.336038201992868 
871	 0.336309831181463 
872	 0.337323882108391 
873	 0.33908404323215 
874	 0.340386058026111 
875	 0.341022291973626 
876	 0.341970698945234 
877	 0.343071551559212 
878	 0.344119321282892 
879	 0.344328233771673 
880	 0.344855791952142 
881	 0.347725384136982 
882	 0.348962310154015 
883	 0.34855821479004 
884	 0.350515847022694 
885	 0.352648037546243 
886	 0.353713542911226 
887	 0.354049124319555 
888	 0.354830392816164 
889	 0.357489255016079 
890	 0.358646362580636 
891	 0.358127236358183 
892	 0.357747711837671 
893	 0.359268100176156 
894	 0.363003552988151 
895	 0.364650130904275 
896	 0.3647275238173 
897	 0.364447593512592 
898	 0.366171396566573 
899	 0.368916384249587 
900	 0.368856908885133 
901	 0.368475189659607 
902	 0.368956342358652 
903	 0.3719055939038 
904	 0.373223366649133 
905	 0.37030593939798 
906	 0.37021622972503 
907	 0.372248262661915 
908	 0.373233874762914 
909	 0.373624226531335 
910	 0.373547916703113 
911	 0.37333103149031 
912	 0.374104190597889 
913	 0.375991328965851 
914	 0.37511667789921 
915	 0.373844067791563 
916	 0.375360669371408 
917	 0.375130999308214 
918	 0.37388631954384 
919	 0.376270812423085 
920	 0.377750805050699 
921	 0.376943944443354 
922	 0.375722447036776 
923	 0.374560802459483 
924	 0.373926541476487 
925	 0.374759378543901 
926	 0.375891584157259 
927	 0.37435064623796 
928	 0.373795431327737 
929	 0.375369716198804 
930	 0.377830008764785 
931	 0.37793289873762 
932	 0.373434933675746 
933	 0.370945049431354 
934	 0.372378732096899 
935	 0.378227800057771 
936	 0.382196200383803 
937	 0.381689633272301 
938	 0.375249645283 
939	 0.370311091286477 
940	 0.370022083750216 
941	 0.375767135926665 
942	 0.37814139338868 
943	 0.371365247717007 
944	 0.367489465150448 
945	 0.368670994497979 
946	 0.375197133873948 
947	 0.375190060990643 
948	 0.368572676907269 
949	 0.36544521779926 
950	 0.36629030504546 
951	 0.370253530002932 
952	 0.37155917624583 
953	 0.36870912971243 
954	 0.361706489479531 
955	 0.360323851425548 
956	 0.364047386859817 
957	 0.369059762297215 
958	 0.366759332998998 
959	 0.358788263893903 
960	 0.35817745700139 
961	 0.359508338928055 
962	 0.360362541295476 
963	 0.363622084001123 
964	 0.364554589000152 
965	 0.359041893672079 
966	 0.356080366130439 
967	 0.35647301461894 
968	 0.35877098909731 
969	 0.359678950917984 
970	 0.359290153328527 
971	 0.362493003795865 
972	 0.363772580438015 
973	 0.36111566087593 
974	 0.36280917782696 
975	 0.364528447075622 
976	 0.361095812402887 
977	 0.36223719613795 
978	 0.366143423282864 
979	 0.365147099866662 
980	 0.363297195638289 
981	 0.362540396072209 
982	 0.365711818411759 
983	 0.36753070859595 
984	 0.365875150201015 
985	 0.367273575720346 
986	 0.368452902312501 
987	 0.365749960115097 
988	 0.365331974764264 
989	 0.36663684701821 
990	 0.366258807579573 
991	 0.365531317266191 
992	 0.364970736642858 
993	 0.36497550730052 
994	 0.366558861921353 
995	 0.369687734559781 
996	 0.371125181386313 
997	 0.371072286034041 
998	 0.370133699441715 
999	 0.368416006743986 
1000	 0.368054623681969 
1001	 0.372530049867205 
1002	 0.37393714791358 
1003	 0.371540688972943 
1004	 0.369324950784537 
1005	 0.371627085704395 
1006	 0.378193881401764 
1007	 0.377682858719361 
1008	 0.375061489000482 
1009	 0.374117364864199 
1010	 0.367634294275204 
1011	 0.363890083527312 
1012	 0.37430749939156 
1013	 0.381353373990213 
1014	 0.380887870931523 
1015	 0.37285037317943 
1016	 0.36685405747367 
1017	 0.367594705285549 
1018	 0.377781135788872 
1019	 0.383518529423257 
1020	 0.378764880708126 
1021	 0.377856268420375 
1022	 0.381015570669081 
1023	 0.386610411197392 
1024	 0.386612659376414 
1025	 0.383242808958744 
1026	 0.38256887796607 
1027	 0.381575928800319 
1028	 0.38043055221597 
1029	 0.381900708995553 
1030	 0.378680512270876 
1031	 0.37149551634681 
1032	 0.375571032405716 
1033	 0.382390480473009 
1034	 0.385892382205005 
1035	 0.38640209629909 
1036	 0.38855539666461 
1037	 0.395843037858828 
1038	 0.390354603336096 
1039	 0.380118395949573 
1040	 0.384042811780359 
1041	 0.385254399758715 
1042	 0.38485278300923 
1043	 0.400264769541431 
1044	 0.398701136262901 
1045	 0.379515575279992 
1046	 0.392446616152919 
1047	 0.400070888545296 
1048	 0.383619292847515 
1049	 0.379203490739041 
1050	 0.38504742803148 
1051	 0.39364124071352 
1052	 0.369972137166909 
1053	 0.345801419440992 
1054	 0.375618307913778 
1055	 0.387923103029977 
1056	 0.378230546002674 
1057	 0.374652464123535 
1058	 0.379217484248006 
1059	 0.391027066915567 
1060	 0.40132393609236 
1061	 0.408225989058405 
1062	 0.406985745227422 
1063	 0.382999656647002 
1064	 0.355132028304287 
1065	 0.341507603577424 
1066	 0.350861953673383 
1067	 0.36444613087115 
1068	 0.364193430069577 
1069	 0.374825942812764 
1070	 0.38529955089704 
1071	 0.373366387065544 
1072	 0.371554194198423 
1073	 0.381991976437555 
1074	 0.389302443921973 
1075	 0.3928690622175 
