Wavelength	SHSI00070.asd
325	 9.52885587346465E-02 
326	 0.095897472898359 
327	 9.08872445128899E-02 
328	 8.71091688303449E-02 
329	 8.86924796413566E-02 
330	 9.40063264022461E-02 
331	 8.56424488134359E-02 
332	 7.96652249988371E-02 
333	 9.10958280461462E-02 
334	 9.34611200352703E-02 
335	 8.81530651224333E-02 
336	 8.89170153945257E-02 
337	 9.20396033021524E-02 
338	 0.094151057555793 
339	 8.37987349675638E-02 
340	 7.70779383378216E-02 
341	 8.62559263848293E-02 
342	 9.22082433521857E-02 
343	 9.24530314446181E-02 
344	 8.80088630030946E-02 
345	 8.58495586985904E-02 
346	 8.76402310383498E-02 
347	 9.12218309012544E-02 
348	 9.29006562323681E-02 
349	 9.07263480786008E-02 
350	 8.90532861623651E-02 
351	 8.99164759789874E-02 
352	 0.095687971365055 
353	 9.76048969019346E-02 
354	 9.51344156800792E-02 
355	 9.49637338907153E-02 
356	 9.59286209067706E-02 
357	 9.70818933912553E-02 
358	 9.69552872913305E-02 
359	 9.65470922265199E-02 
360	 9.76122543124391E-02 
361	 9.86015694232314E-02 
362	 9.91045231639228E-02 
363	 9.92400812218413E-02 
364	 9.87712121010124E-02 
365	 9.78737076977817E-02 
366	 9.84039955612571E-02 
367	 9.91633277209608E-02 
368	 9.83404549052645E-02 
369	 9.80946165978152E-02 
370	 9.86290763995383E-02 
371	 9.90062837131305E-02 
372	 9.88744640925663E-02 
373	 9.79907889470492E-02 
374	 9.63996602651182E-02 
375	 9.46623813223167E-02 
376	 9.34912504511101E-02 
377	 9.33629537079696E-02 
378	 9.41566999118671E-02 
379	 9.52397141090355E-02 
380	 9.56945144596035E-02 
381	 9.50092679735561E-02 
382	 9.33970792471576E-02 
383	 9.21039016391158E-02 
384	 9.26472678735061E-02 
385	 9.27988105445798E-02 
386	 9.22697670154975E-02 
387	 9.21911853151569E-02 
388	 9.10996840464541E-02 
389	 8.89918786656653E-02 
390	 8.97271063462927E-02 
391	 9.12425688713383E-02 
392	 9.08174097555841E-02 
393	 8.99811263802752E-02 
394	 8.91128507574303E-02 
395	 0.088313822320051 
396	 8.80380643113509E-02 
397	 8.81141907849692E-02 
398	 8.65620341093791E-02 
399	 8.49458191057347E-02 
400	 8.48899642840401E-02 
401	 8.51029454552113E-02 
402	 8.54006135780971E-02 
403	 8.61527615561441E-02 
404	 8.62696203055899E-02 
405	 0.085492467907788 
406	 8.52868730093003E-02 
407	 8.52662214661888E-02 
408	 0.084799089097848 
409	 8.41182844685199E-02 
410	 8.35646953906929E-02 
411	 8.40181816171002E-02 
412	 8.40995694675614E-02 
413	 0.083311094612737 
414	 8.30121061635989E-02 
415	 8.29385302532414E-02 
416	 8.25775971771027E-02 
417	 8.24574665049248E-02 
418	 8.26044531012441E-02 
419	 8.27824726439656E-02 
420	 0.082740916597853 
421	 8.23945358771906E-02 
422	 8.22337919271236E-02 
423	 8.21448937805806E-02 
424	 8.18708462641387E-02 
425	 8.17286813438261E-02 
426	 8.17518319156102E-02 
427	 8.17613874585582E-02 
428	 8.17858598472479E-02 
429	 8.18199365612167E-02 
430	 8.17579258842144E-02 
431	 8.14747334003149E-02 
432	 8.07902395059268E-02 
433	 0.080324657276725 
434	 8.01900449248806E-02 
435	 8.00183510747432E-02 
436	 8.00342919685021E-02 
437	 8.03509168366053E-02 
438	 8.06074935043849E-02 
439	 8.07397469800347E-02 
440	 8.07339069263264E-02 
441	 0.080793780737303 
442	 8.09166784792362E-02 
443	 8.07406695054844E-02 
444	 8.07240259846753E-02 
445	 8.12135332390619E-02 
446	 8.17289583423263E-02 
447	 8.21037814695707E-02 
448	 8.21737436264887E-02 
449	 8.21833510184936E-02 
450	 0.082267765449205 
451	 8.25714611027905E-02 
452	 8.29449193384392E-02 
453	 8.32343995501246E-02 
454	 8.35236017624047E-02 
455	 8.38078260469523E-02 
456	 8.40320376635059E-02 
457	 8.43227777466426E-02 
458	 8.46193273689204E-02 
459	 8.42693132239413E-02 
460	 8.38444745733319E-02 
461	 8.40661978465106E-02 
462	 8.44281203213201E-02 
463	 8.47628943506772E-02 
464	 8.49475726685583E-02 
465	 8.51139087837021E-02 
466	 8.52978548147382E-02 
467	 0.085168912104626 
468	 8.52358826903235E-02 
469	 8.62743354658043E-02 
470	 8.67102660138754E-02 
471	 8.64080068293255E-02 
472	 8.64699718268047E-02 
473	 8.66742840115451E-02 
474	 0.086891656922888 
475	 8.72420361853129E-02 
476	 8.75368159394495E-02 
477	 8.74184680930205E-02 
478	 8.75702269056724E-02 
479	 8.79840544672087E-02 
480	 8.77714144202872E-02 
481	 8.73243110888833E-02 
482	 0.087051604944033 
483	 8.76711651264457E-02 
484	 8.86811049260133E-02 
485	 8.85917810941938E-02 
486	 8.85022799504153E-02 
487	 8.86709423397417E-02 
488	 8.83110111894322E-02 
489	 8.79293432177684E-02 
490	 8.80632272119509E-02 
491	 8.82230576697928E-02 
492	 8.84170611915854E-02 
493	 8.89819164633632E-02 
494	 8.93621823312864E-02 
495	 8.93781545668765E-02 
496	 0.089598938299507 
497	 8.98875183236901E-02 
498	 8.99968682859796E-02 
499	 9.05670753554065E-02 
500	 9.14915419060792E-02 
501	 9.18762391501103E-02 
502	 9.22081849020463E-02 
503	 0.09275072875089 
504	 9.30873445913924E-02 
505	 0.093498051936001 
506	 9.45293367390003E-02 
507	 0.095468962420452 
508	 9.60990004982034E-02 
509	 0.096427568277155 
510	 9.68888997284669E-02 
511	 9.78238978443222E-02 
512	 9.90489011840723E-02 
513	 0.100224719828056 
514	 0.100627489035037 
515	 0.101162182013948 
516	 0.102136164350339 
517	 0.103291032294291 
518	 0.104112298592433 
519	 0.104120082881947 
520	 0.104348866876548 
521	 0.105029365563352 
522	 0.106151266853466 
523	 0.107206990493367 
524	 0.107969111847115 
525	 0.108697477059246 
526	 0.109511672839445 
527	 0.110531266792309 
528	 0.111450588230923 
529	 0.112203058244943 
530	 0.112882182316903 
531	 0.113683765179224 
532	 0.114684375947969 
533	 0.115233847296993 
534	 0.115615217167103 
535	 0.116557004174282 
536	 0.117548061728682 
537	 0.118478910914329 
538	 0.119629503421891 
539	 0.120699376719748 
540	 0.121392475476773 
541	 0.121922688889559 
542	 0.122406435647455 
543	 0.122988552646613 
544	 0.12370075898477 
545	 0.124569514147788 
546	 0.125636535338557 
547	 0.126600079106639 
548	 0.127075937776841 
549	 0.127641125590661 
550	 0.128403237336919 
551	 0.129179888812984 
552	 0.129941162013907 
553	 0.13065807257211 
554	 0.131289100495885 
555	 0.131946554332404 
556	 0.132872726922182 
557	 0.133537064643425 
558	 0.133861185537377 
559	 0.134357994493876 
560	 0.134896647170701 
561	 0.135348798828545 
562	 0.135950383434586 
563	 0.136570603514639 
564	 0.136773304809933 
565	 0.13689207918231 
566	 0.137090016815847 
567	 0.137450101670953 
568	 0.137791182504011 
569	 0.137874811925818 
570	 0.13797052640797 
571	 0.13811228872819 
572	 0.138146421904901 
573	 0.138288575434342 
574	 0.138611541969881 
575	 0.138554675624211 
576	 0.138317734338088 
577	 0.138402577664233 
578	 0.138498794773784 
579	 0.138556466260585 
580	 0.138773850471699 
581	 0.138968184652575 
582	 0.138984320701805 
583	 0.139010732236137 
584	 0.139108210244964 
585	 0.139374488556931 
586	 0.139448614339346 
587	 0.139250603076572 
588	 0.139316731497418 
589	 0.139487517779473 
590	 0.139487082178328 
591	 0.139517089579641 
592	 0.139633915709123 
593	 0.139851258777365 
594	 0.140153233602057 
595	 0.140466415649254 
596	 0.140321195659246 
597	 0.140009448155318 
598	 0.140128188303759 
599	 0.140459363126987 
600	 0.140821425589915 
601	 0.140731608682092 
602	 0.140513917220754 
603	 0.140473402072042 
604	 0.140523852679371 
605	 0.140479815763511 
606	 0.13989936441029 
607	 0.139290851548708 
608	 0.138856937408322 
609	 0.138429659120576 
610	 0.137989508103038 
611	 0.137525774449349 
612	 0.136941975571403 
613	 0.136307988297354 
614	 0.135934087455844 
615	 0.1355605838164 
616	 0.135018678624333 
617	 0.134285619502808 
618	 0.133637075131361 
619	 0.133521722810857 
620	 0.133594548090902 
621	 0.133624866823268 
622	 0.133179505883747 
623	 0.13261505578347 
624	 0.132296735368694 
625	 0.132443412384176 
626	 0.132783168535458 
627	 0.132511058708919 
628	 0.132213941931892 
629	 0.132149676896539 
630	 0.132393280845477 
631	 0.1325631468319 
632	 0.132193155133051 
633	 0.131947895252389 
634	 0.131980010419814 
635	 0.132208014206407 
636	 0.132444145232822 
637	 0.132549428006238 
638	 0.132475500389294 
639	 0.132334487686652 
640	 0.132322527106193 
641	 0.132428878891449 
642	 0.132637271651555 
643	 0.13289081566414 
644	 0.133059119456204 
645	 0.133039390955222 
646	 0.133016474445901 
647	 0.132995537043276 
648	 0.132998421393388 
649	 0.132363675938011 
650	 0.131117299266487 
651	 0.131009075177549 
652	 0.131141115910407 
653	 0.130276711175913 
654	 0.128931879207244 
655	 0.127456933240592 
656	 0.127051131781902 
657	 0.125848211782668 
658	 0.123078123479562 
659	 0.121146859107432 
660	 0.119764798143597 
661	 0.118082090226516 
662	 0.116067925923094 
663	 0.113791324310825 
664	 0.11164951159164 
665	 0.109777225421768 
666	 0.108275790638916 
667	 0.107101872241949 
668	 0.106079574980469 
669	 0.104790810608891 
670	 0.103797332346504 
671	 0.103229186024446 
672	 0.102539425779216 
673	 0.102003485633686 
674	 0.101966998423517 
675	 0.102020802845364 
676	 0.102128250236218 
677	 0.102500843564044 
678	 0.102919604805091 
679	 0.103343270176531 
680	 0.104358727675774 
681	 0.105691882373369 
682	 0.106795356019591 
683	 0.108183443487059 
684	 0.110038793821548 
685	 0.112535267185866 
686	 0.115556804614675 
687	 0.118933942086342 
688	 0.122325798284497 
689	 0.125610303638972 
690	 0.12943776792867 
691	 0.133371434457228 
692	 0.137442165228171 
693	 0.142061673094583 
694	 0.146631851219975 
695	 0.150354253119112 
696	 0.154403665273506 
697	 0.158732021389834 
698	 0.162784312474023 
699	 0.166677028292461 
700	 0.170349510901847 
701	 0.17370935833301 
702	 0.176813739384353 
703	 0.179784189914518 
704	 0.182637487519165 
705	 0.185329080508522 
706	 0.187503225261783 
707	 0.189548338408474 
708	 0.191696093011475 
709	 0.193597608998652 
710	 0.195321558530156 
711	 0.197077289405019 
712	 0.198850082327189 
713	 0.200502210269847 
714	 0.201457554347588 
715	 0.202406883959403 
716	 0.204049176093462 
717	 0.205515739517497 
718	 0.206672234260499 
719	 0.207633223902288 
720	 0.208156099737821 
721	 0.208447708740225 
722	 0.209667857152999 
723	 0.211263248480655 
724	 0.21248628947941 
725	 0.213051034411294 
726	 0.213113130445403 
727	 0.213511598170221 
728	 0.21434741430614 
729	 0.215526290667595 
730	 0.21589866886267 
731	 0.21599927661976 
732	 0.216738797026939 
733	 0.217140651919902 
734	 0.217121900093746 
735	 0.217042031774563 
736	 0.217260416766211 
737	 0.217967096939591 
738	 0.218535523616088 
739	 0.21896860335515 
740	 0.21949128209169 
741	 0.219608429435724 
742	 0.219422781263272 
743	 0.21997737895112 
744	 0.220724049195932 
745	 0.221163280954749 
746	 0.221352078595566 
747	 0.221437471571464 
748	 0.221779381476879 
749	 0.222004735682877 
750	 0.222055974695969 
751	 0.22239666822928 
752	 0.22267614178683 
753	 0.222524997389238 
754	 0.222775798984677 
755	 0.223314585913505 
756	 0.223389976424466 
757	 0.223014179210277 
758	 0.222314046141091 
759	 0.22266231196243 
760	 0.224708071447978 
761	 0.227500643597314 
762	 0.228534525858494 
763	 0.228005437646515 
764	 0.228132957426141 
765	 0.227974304046693 
766	 0.227412329495008 
767	 0.2272474048968 
768	 0.227294931413522 
769	 0.227321194235149 
770	 0.227107748297305 
771	 0.226800930989606 
772	 0.227110293355842 
773	 0.227632144384686 
774	 0.228054488426513 
775	 0.228201940804176 
776	 0.228302025238833 
777	 0.228839313703973 
778	 0.229122534496725 
779	 0.22907567458668 
780	 0.229346924118806 
781	 0.229575993059158 
782	 0.229472707349354 
783	 0.229196704543175 
784	 0.22901202247203 
785	 0.229389540229556 
786	 0.229931088640698 
787	 0.230409917605416 
788	 0.230445897161547 
789	 0.230606983334303 
790	 0.231352994950302 
791	 0.231259384734514 
792	 0.230692888351297 
793	 0.231206856334199 
794	 0.231604693438666 
795	 0.231583722391806 
796	 0.231928698988469 
797	 0.231977963947598 
798	 0.231133045940119 
799	 0.231239455998026 
800	 0.232119182592779 
801	 0.232303413873786 
802	 0.232258239141096 
803	 0.232181980055541 
804	 0.232330640233978 
805	 0.232549801614141 
806	 0.232664327497612 
807	 0.233080119323956 
808	 0.233646379921056 
809	 0.23365648414925 
810	 0.233956402694656 
811	 0.234696387587418 
812	 0.234268279659059 
813	 0.233776009709665 
814	 0.234824533685292 
815	 0.235730985328133 
816	 0.236228617274088 
817	 0.23701445866994 
818	 0.237526331658546 
819	 0.237617968586079 
820	 0.237819034101513 
821	 0.238193435235789 
822	 0.238737067403068 
823	 0.238569849760104 
824	 0.237991432253407 
825	 0.238409616471506 
826	 0.23887999722943 
827	 0.239013776665463 
828	 0.238918630728297 
829	 0.238880790849979 
830	 0.239222741335612 
831	 0.239281675328848 
832	 0.239179894061762 
833	 0.239736747881537 
834	 0.240095947187279 
835	 0.239934496891388 
836	 0.239716748107777 
837	 0.239523774371808 
838	 0.239391255038175 
839	 0.238976154581445 
840	 0.238420646030669 
841	 0.238245729731208 
842	 0.238514468198714 
843	 0.239093941962817 
844	 0.239080121031887 
845	 0.238717278752706 
846	 0.238383146381902 
847	 0.238139095655323 
848	 0.238065348184703 
849	 0.238339250000777 
850	 0.238401333941645 
851	 0.238096712685338 
852	 0.23800624077597 
853	 0.238320239358063 
854	 0.239101641311982 
855	 0.239065546781756 
856	 0.238295203530835 
857	 0.237653064563144 
858	 0.237091082167342 
859	 0.236730346406028 
860	 0.236953191171119 
861	 0.237373083593241 
862	 0.23759865596916 
863	 0.237738756360219 
864	 0.237841299326939 
865	 0.237919914498508 
866	 0.238620614651449 
867	 0.239788010293928 
868	 0.239741639495862 
869	 0.239236077147673 
870	 0.239006835058259 
871	 0.239144157728322 
872	 0.239811115583605 
873	 0.241310651523664 
874	 0.24202206350995 
875	 0.241810624753763 
876	 0.24242351220653 
877	 0.243357637338889 
878	 0.244114270857631 
879	 0.243751020655722 
880	 0.243495742278542 
881	 0.245530519870935 
882	 0.246417390028108 
883	 0.245877379720831 
884	 0.24649127748471 
885	 0.246871595615991 
886	 0.246519177425383 
887	 0.247533082253267 
888	 0.248930721029188 
889	 0.249147465152274 
890	 0.249635425942565 
891	 0.250070025099951 
892	 0.248011146552317 
893	 0.247821511298089 
894	 0.251067191485993 
895	 0.253016718228805 
896	 0.253510966583054 
897	 0.252866344532482 
898	 0.251808563663872 
899	 0.251284852104957 
900	 0.252882112715128 
901	 0.254606887636753 
902	 0.255455804503176 
903	 0.254663052167387 
904	 0.253413284779223 
905	 0.252782491329028 
906	 0.253401134824999 
907	 0.25459009881488 
908	 0.254965647699346 
909	 0.255672046405994 
910	 0.256638387312129 
911	 0.256559025673729 
912	 0.255912294307793 
913	 0.255165607801998 
914	 0.255156699005803 
915	 0.255554385183939 
916	 0.255843535623586 
917	 0.257064500860911 
918	 0.258290868927994 
919	 0.256255824272205 
920	 0.256308837011942 
921	 0.259188901191434 
922	 0.258489370510262 
923	 0.256448947120789 
924	 0.255455100230868 
925	 0.256167462049307 
926	 0.25709708807136 
927	 0.254536451757498 
928	 0.253063717719924 
929	 0.254354930881628 
930	 0.257809511786131 
931	 0.25851273004794 
932	 0.253208182665236 
933	 0.253410577566342 
934	 0.257022250009253 
935	 0.258082200580399 
936	 0.259839691579415 
937	 0.260782345960522 
938	 0.255639008762693 
939	 0.25125016174727 
940	 0.250311582811568 
941	 0.253500566006172 
942	 0.256126371389514 
943	 0.254807988607425 
944	 0.251148308176712 
945	 0.249013449823351 
946	 0.253804119930903 
947	 0.253518914409227 
948	 0.24822000437455 
949	 0.247907550470735 
950	 0.251980981542804 
951	 0.257642991359537 
952	 0.251720537808246 
953	 0.245080994465211 
954	 0.247434586375754 
955	 0.246909065116648 
956	 0.245274584186087 
957	 0.249064167395333 
958	 0.251369402102617 
959	 0.25020810166799 
960	 0.244348185098849 
961	 0.244673982325973 
962	 0.253361237018101 
963	 0.252548157637134 
964	 0.247733406988931 
965	 0.245894624451418 
966	 0.247428397326066 
967	 0.250306410465631 
968	 0.250566351681997 
969	 0.248458420292058 
970	 0.24566220852176 
971	 0.247818559984035 
972	 0.250799018660122 
973	 0.252188029626032 
974	 0.253025940227117 
975	 0.25371661210998 
976	 0.254470264281065 
977	 0.251825673543048 
978	 0.249255951736286 
979	 0.255534606661317 
980	 0.257401297704139 
981	 0.253471653247222 
982	 0.254454907146855 
983	 0.25520478538547 
984	 0.253573252948297 
985	 0.25486073957962 
986	 0.255816215732823 
987	 0.252775496622654 
988	 0.249018357859872 
989	 0.24680910651567 
990	 0.24923837626865 
991	 0.253039099621139 
992	 0.256802823414105 
993	 0.259961242692893 
994	 0.259057934128688 
995	 0.253651736681387 
996	 0.251613517981941 
997	 0.252438086188999 
998	 0.254591551609348 
999	 0.255979469190069 
1000	 0.255812047636611 
1001	 0.253586043004764 
1002	 0.251977454672076 
1003	 0.251349289369597 
1004	 0.24942954338053 
1005	 0.252549849128731 
1006	 0.260698456288214 
1007	 0.260840255303077 
1008	 0.257241204762771 
1009	 0.253957694668974 
1010	 0.250438274441001 
1011	 0.249004307648234 
1012	 0.25243827546225 
1013	 0.259952570337753 
1014	 0.265825930518882 
1015	 0.2577923301956 
1016	 0.247452473615786 
1017	 0.242218905462033 
1018	 0.253225761122405 
1019	 0.264004588673165 
1020	 0.264975157900828 
1021	 0.261096708158729 
1022	 0.257996119275 
1023	 0.26042289030229 
1024	 0.260040683170691 
1025	 0.256034893088577 
1026	 0.24939666986998 
1027	 0.252801335889124 
1028	 0.263273262293121 
1029	 0.262776633398696 
1030	 0.257485507847745 
1031	 0.252846478629955 
1032	 0.2653824649814 
1033	 0.26994565204986 
1034	 0.254016968152173 
1035	 0.246577921522577 
1036	 0.248753503627849 
1037	 0.257539615981036 
1038	 0.262723181815443 
1039	 0.261693200773945 
1040	 0.253954933440479 
1041	 0.254242672266236 
1042	 0.261743467082862 
1043	 0.262899878020811 
1044	 0.254284149515051 
1045	 0.240457113571686 
1046	 0.249897096439537 
1047	 0.257665835497574 
1048	 0.250744787312691 
1049	 0.252654420802712 
1050	 0.256141841680036 
1051	 0.25307609939503 
1052	 0.249945596350355 
1053	 0.250750099246889 
1054	 0.259054732618185 
1055	 0.25739785546031 
1056	 0.24667456103249 
1057	 0.237018929628963 
1058	 0.239483856763409 
1059	 0.25459124693769 
1060	 0.270019151228102 
1061	 0.272765959131323 
1062	 0.259032287311741 
1063	 0.242827147777049 
1064	 0.239245069479728 
1065	 0.255198915609814 
1066	 0.256418472913905 
1067	 0.249847666850842 
1068	 0.245943852058671 
1069	 0.231476739335892 
1070	 0.221137559148725 
1071	 0.238729923322558 
1072	 0.24494125005307 
1073	 0.23647065317464 
1074	 0.231796745589929 
1075	 0.22806437781134 
