Wavelength	SHSI00235.asd
325	 7.04317380177034E-02 
326	 6.75226560246011E-02 
327	 6.25971028320151E-02 
328	 7.03866417816988E-02 
329	 7.45804185361667E-02 
330	 7.08854437735996E-02 
331	 7.18996447663166E-02 
332	 7.38471826654964E-02 
333	 7.25569690351575E-02 
334	 7.16931706017829E-02 
335	 7.19456945513607E-02 
336	 7.38683659686151E-02 
337	 7.27941043398729E-02 
338	 0.068947374695918 
339	 6.99097355114602E-02 
340	 7.32536356118184E-02 
341	 7.62087051145991E-02 
342	 7.35612975224671E-02 
343	 6.94955497869146E-02 
344	 7.33490255128889E-02 
345	 7.61568324337297E-02 
346	 7.60704154143053E-02 
347	 7.55414336409069E-02 
348	 7.65774750837895E-02 
349	 7.95629864463465E-02 
350	 7.63639328862755E-02 
351	 7.20047476603169E-02 
352	 7.59437693218778E-02 
353	 7.71954154764737E-02 
354	 7.47840112220046E-02 
355	 7.53603938527326E-02 
356	 7.78211893384614E-02 
357	 8.09206723245898E-02 
358	 8.12019078564482E-02 
359	 7.97473161604653E-02 
360	 7.88766628920033E-02 
361	 7.75229672592035E-02 
362	 7.58915289868216E-02 
363	 7.48971816069993E-02 
364	 7.47716685134934E-02 
365	 7.56967728180286E-02 
366	 7.81534372521926E-02 
367	 0.080785327602352 
368	 8.17424600773463E-02 
369	 0.082406593510546 
370	 8.28497258483836E-02 
371	 8.18133977169783E-02 
372	 8.24293037249972E-02 
373	 8.56662333627497E-02 
374	 8.59435355622747E-02 
375	 8.33852261265646E-02 
376	 7.91560745747096E-02 
377	 0.077445490500705 
378	 7.86474323723893E-02 
379	 8.04968556724789E-02 
380	 8.10962762190315E-02 
381	 7.97460329627301E-02 
382	 8.00207185932916E-02 
383	 8.02672918784738E-02 
384	 7.79205474475269E-02 
385	 7.74250253425527E-02 
386	 0.078601913877017 
387	 7.74972528841944E-02 
388	 7.72786031843392E-02 
389	 7.87941885654796E-02 
390	 7.80698358234948E-02 
391	 7.78879067292496E-02 
392	 8.17437602479888E-02 
393	 8.18262510463427E-02 
394	 7.82403911438272E-02 
395	 7.62535564500498E-02 
396	 7.56728556198287E-02 
397	 0.075922118590632 
398	 7.42859566684801E-02 
399	 7.26733421805335E-02 
400	 7.30852984328619E-02 
401	 7.42847510132155E-02 
402	 7.56790219292011E-02 
403	 7.66128476840176E-02 
404	 7.67544377634113E-02 
405	 7.63049134960369E-02 
406	 7.75303632918491E-02 
407	 0.07871014820367 
408	 7.75752928501942E-02 
409	 7.69635128419841E-02 
410	 7.73173160433075E-02 
411	 7.80180220419837E-02 
412	 7.85103143891814E-02 
413	 7.84547606935576E-02 
414	 7.76680053316163E-02 
415	 7.69867067844932E-02 
416	 7.74605313235768E-02 
417	 7.80869693398808E-02 
418	 7.84107233449744E-02 
419	 7.78166988361538E-02 
420	 7.73305798302605E-02 
421	 7.75251355525063E-02 
422	 7.80998017138841E-02 
423	 0.078704213685579 
424	 7.89167207038842E-02 
425	 7.87172040549744E-02 
426	 7.84063633167978E-02 
427	 7.90712922385853E-02 
428	 7.97368239987051E-02 
429	 7.97096285932361E-02 
430	 7.90942084684693E-02 
431	 7.82746371242184E-02 
432	 7.78267037098583E-02 
433	 7.75656348874607E-02 
434	 7.74979450481674E-02 
435	 7.76776348063831E-02 
436	 0.078425996643009 
437	 7.97458371742245E-02 
438	 7.97254114480399E-02 
439	 7.88776076669963E-02 
440	 0.078620653431035 
441	 7.86282117714319E-02 
442	 7.89138553656183E-02 
443	 7.97000675978193E-02 
444	 8.06603004069321E-02 
445	 8.14550728374372E-02 
446	 8.14084366602777E-02 
447	 8.09204254877075E-02 
448	 8.10426543769661E-02 
449	 0.081616038178211 
450	 0.082463611736076 
451	 8.28474013861924E-02 
452	 8.31655181050174E-02 
453	 8.38295834072117E-02 
454	 0.084199931359637 
455	 8.42344736921223E-02 
456	 8.41612319558934E-02 
457	 8.41019175500524E-02 
458	 8.41458224365266E-02 
459	 0.084310989521406 
460	 8.45795426557398E-02 
461	 8.49240635195305E-02 
462	 8.52445179966476E-02 
463	 8.55156572239479E-02 
464	 8.57119702127792E-02 
465	 8.61606664088983E-02 
466	 8.69012035910505E-02 
467	 8.69868716095022E-02 
468	 0.086675463405216 
469	 8.65042746195225E-02 
470	 8.62968484256945E-02 
471	 0.086253808215631 
472	 8.71184344977198E-02 
473	 8.80301661729437E-02 
474	 0.088406433478792 
475	 8.84076743593696E-02 
476	 8.82401232389641E-02 
477	 8.82041694963653E-02 
478	 8.83610403487997E-02 
479	 8.86493184167552E-02 
480	 8.86478478705359E-02 
481	 8.87958138540529E-02 
482	 0.089428358473534 
483	 9.00569055135084E-02 
484	 9.04847430337508E-02 
485	 9.04561570328155E-02 
486	 9.04790084009613E-02 
487	 9.06002605157643E-02 
488	 8.99706229952935E-02 
489	 8.92862464748256E-02 
490	 8.92976111598524E-02 
491	 9.01545293812953E-02 
492	 9.12614971490909E-02 
493	 9.09928788563751E-02 
494	 9.07348306280147E-02 
495	 9.10296966700878E-02 
496	 9.10977538249505E-02 
497	 9.14504202658803E-02 
498	 9.28191870581526E-02 
499	 9.37810929770846E-02 
500	 9.40249938771085E-02 
501	 9.38432872960933E-02 
502	 9.38474017926577E-02 
503	 9.43653246450933E-02 
504	 9.47019174307906E-02 
505	 0.094873427424274 
506	 9.50279941153521E-02 
507	 9.56234028315079E-02 
508	 9.66589998488693E-02 
509	 9.75145778010724E-02 
510	 9.83905497854955E-02 
511	 9.94011874651658E-02 
512	 9.97493073762037E-02 
513	 0.099927874846195 
514	 0.101431495735579 
515	 0.102686101162647 
516	 0.103189546668566 
517	 0.103726139142436 
518	 0.104000167200071 
519	 0.10369200417571 
520	 0.103634188387294 
521	 0.104065453521767 
522	 0.105088679577998 
523	 0.106211723604215 
524	 0.107205326990521 
525	 0.108361138811876 
526	 0.10933116940418 
527	 0.10959779931327 
528	 0.109699954326918 
529	 0.109970076838136 
530	 0.110952368758968 
531	 0.111966931648516 
532	 0.1125575033168 
533	 0.113030033194934 
534	 0.113482196316326 
535	 0.114002572279545 
536	 0.114625866731616 
537	 0.115356328425579 
538	 0.11610822750603 
539	 0.116915681257858 
540	 0.117783022972503 
541	 0.118170147163383 
542	 0.118262860721725 
543	 0.118803177587402 
544	 0.119515009485562 
545	 0.120257155947893 
546	 0.120857939391217 
547	 0.121343498179728 
548	 0.121775650209053 
549	 0.122063213436256 
550	 0.122252157767941 
551	 0.1225081190504 
552	 0.122918582214415 
553	 0.123538874926082 
554	 0.124336971780064 
555	 0.12507723749486 
556	 0.125330315194881 
557	 0.125875607177388 
558	 0.126717797430521 
559	 0.126649993492865 
560	 0.126502319937085 
561	 0.127059172498533 
562	 0.12770002256846 
563	 0.128319408127094 
564	 0.129079872489758 
565	 0.129182689548752 
566	 0.128524240852653 
567	 0.128646693703198 
568	 0.129242587752655 
569	 0.129728362744639 
570	 0.12965380514439 
571	 0.129218903606273 
572	 0.129563207836117 
573	 0.129952767666593 
574	 0.129977668481276 
575	 0.130108663050212 
576	 0.130449729097588 
577	 0.131086452553018 
578	 0.131597222390348 
579	 0.131880716501134 
580	 0.132240348892431 
581	 0.132522021453385 
582	 0.132604445800645 
583	 0.132831853579444 
584	 0.133160554494366 
585	 0.133267560004389 
586	 0.133592816785608 
587	 0.134187035020667 
588	 0.134220776763161 
589	 0.134012475458707 
590	 0.134080260222913 
591	 0.134092721187454 
592	 0.13408801100245 
593	 0.134392620061401 
594	 0.134770155927232 
595	 0.135078277031724 
596	 0.135378652621358 
597	 0.135716988972661 
598	 0.136199909308064 
599	 0.136270381690706 
600	 0.135945109679433 
601	 0.136116013829264 
602	 0.136325476865437 
603	 0.136189249906898 
604	 0.136512143353977 
605	 0.137082559137378 
606	 0.137016286715343 
607	 0.13686642139693 
608	 0.136895340081093 
609	 0.137329173276432 
610	 0.137674122095629 
611	 0.137301897482949 
612	 0.137101938076011 
613	 0.137082731230504 
614	 0.136441601730116 
615	 0.135966709331166 
616	 0.136147265217645 
617	 0.136751972666866 
618	 0.137181576313742 
619	 0.136460547223585 
620	 0.136148186115275 
621	 0.13653527582368 
622	 0.136659730015198 
623	 0.136533357882087 
624	 0.136237615591171 
625	 0.136409803106075 
626	 0.136873317263842 
627	 0.136751079427687 
628	 0.137105298626153 
629	 0.138171105199272 
630	 0.138825271189266 
631	 0.138750933444498 
632	 0.137727621671844 
633	 0.137542658448914 
634	 0.138364368804621 
635	 0.139186631894821 
636	 0.139639973050483 
637	 0.139550449971717 
638	 0.139723136663948 
639	 0.140016708628407 
640	 0.139949398554404 
641	 0.140173961102966 
642	 0.140671666254415 
643	 0.140450479088086 
644	 0.140238615844444 
645	 0.140651013036973 
646	 0.140645886945593 
647	 0.14035581610924 
648	 0.140686541399221 
649	 0.140827194844014 
650	 0.140523696218345 
651	 0.140233251874888 
652	 0.140163363812702 
653	 0.1405002174155 
654	 0.140660459467665 
655	 0.140370245918529 
656	 0.139368507922431 
657	 0.138052582245793 
658	 0.136858818984198 
659	 0.136427932325071 
660	 0.136178326360459 
661	 0.135098040984798 
662	 0.134112674633674 
663	 0.133291134000689 
664	 0.131752750462383 
665	 0.130308863596369 
666	 0.129605937254267 
667	 0.128766936137336 
668	 0.127750755717614 
669	 0.12678807265767 
670	 0.126035458327939 
671	 0.125643726345945 
672	 0.125948762334874 
673	 0.126355364990608 
674	 0.126177258192934 
675	 0.126180562578723 
676	 0.126399259514014 
677	 0.126362080861701 
678	 0.126459425521179 
679	 0.126946147593042 
680	 0.127954586606167 
681	 0.129221191016356 
682	 0.130296595514954 
683	 0.132069058645754 
684	 0.134460049042252 
685	 0.136290996335046 
686	 0.138085427773888 
687	 0.140332152414511 
688	 0.143463366761556 
689	 0.146911920184159 
690	 0.149833973487412 
691	 0.153631361472708 
692	 0.15842108284486 
693	 0.162258546068872 
694	 0.165741269514264 
695	 0.169431597416583 
696	 0.173070935832835 
697	 0.176533784107294 
698	 0.17967923382845 
699	 0.182880638485354 
700	 0.186248092886028 
701	 0.189531414740102 
702	 0.19262350219293 
703	 0.195457768985563 
704	 0.197985655062895 
705	 0.20032480041095 
706	 0.20273348505064 
707	 0.205156732997611 
708	 0.207529050985967 
709	 0.209746662158668 
710	 0.21172881516485 
711	 0.213277581862907 
712	 0.215507175194381 
713	 0.218368785248308 
714	 0.220125774761571 
715	 0.221138039608826 
716	 0.221899502378472 
717	 0.223242032610773 
718	 0.225317162759888 
719	 0.227526102196148 
720	 0.229041877944476 
721	 0.229694711405101 
722	 0.230536606650778 
723	 0.23177296530917 
724	 0.23350422942376 
725	 0.234945391881717 
726	 0.235995356980715 
727	 0.237481812986158 
728	 0.23833563009873 
729	 0.238360942109897 
730	 0.240170994268434 
731	 0.242219824024506 
732	 0.242035879675762 
733	 0.242537348665371 
734	 0.244131960738546 
735	 0.245873011064717 
736	 0.247098452393449 
737	 0.247378831368388 
738	 0.247653557000758 
739	 0.248280571485921 
740	 0.249652851314057 
741	 0.25059766833046 
742	 0.250948484574522 
743	 0.251759567041738 
744	 0.252658233444891 
745	 0.253313858400753 
746	 0.253960193205027 
747	 0.254630054791048 
748	 0.255287701266184 
749	 0.256103827945428 
750	 0.25713042928792 
751	 0.258316354262681 
752	 0.259330135545984 
753	 0.259849785102291 
754	 0.260309439610995 
755	 0.260845961720984 
756	 0.261793257290309 
757	 0.26135177119444 
758	 0.259058114525536 
759	 0.258875917008888 
760	 0.261946778700755 
761	 0.26703220069786 
762	 0.268547591523387 
763	 0.26738022515602 
764	 0.269593611177273 
765	 0.271436111118425 
766	 0.271703753811437 
767	 0.271787598253002 
768	 0.271882347494626 
769	 0.272045807540819 
770	 0.272414275270841 
771	 0.272990423388236 
772	 0.273617009508917 
773	 0.274329919243887 
774	 0.275108560048648 
775	 0.275541017563099 
776	 0.275936407259771 
777	 0.276965200292264 
778	 0.277946958157934 
779	 0.278659605272847 
780	 0.279094163067626 
781	 0.279757625962669 
782	 0.280961547125588 
783	 0.281549302060276 
784	 0.281717992911629 
785	 0.282312916124916 
786	 0.282667601094863 
787	 0.282839144622163 
788	 0.284091919587058 
789	 0.285330356332438 
790	 0.285521067389558 
791	 0.285665231165982 
792	 0.286283433519675 
793	 0.288302549770003 
794	 0.28938603330471 
795	 0.289050345682052 
796	 0.289715192448864 
797	 0.290592656322136 
798	 0.290789376988429 
799	 0.291061212939814 
800	 0.29170602594044 
801	 0.293166320051312 
802	 0.294408279664964 
803	 0.294982024377143 
804	 0.295133279593145 
805	 0.295307686470403 
806	 0.295939695688611 
807	 0.296303466363988 
808	 0.296540995137693 
809	 0.297501185558011 
810	 0.298425857362942 
811	 0.298934045545684 
812	 0.298975965942125 
813	 0.298818670296585 
814	 0.298867127191856 
815	 0.300528460366767 
816	 0.303308942270573 
817	 0.30448300056598 
818	 0.305329168963572 
819	 0.306220862404728 
820	 0.305948260703158 
821	 0.305906878901263 
822	 0.307756413778968 
823	 0.309721732158364 
824	 0.3107890779986 
825	 0.309484057431163 
826	 0.309106480550696 
827	 0.310734982089563 
828	 0.311295494989244 
829	 0.31154798759181 
830	 0.312745779158125 
831	 0.314676101480518 
832	 0.316498665088205 
833	 0.315951449020748 
834	 0.315931722151056 
835	 0.317425778318938 
836	 0.318247898392236 
837	 0.318385830757215 
838	 0.318083448324359 
839	 0.318323250339775 
840	 0.319282655223076 
841	 0.32086778723031 
842	 0.321920311445268 
843	 0.321877663487483 
844	 0.320930553569521 
845	 0.320342289300829 
846	 0.321409897922618 
847	 0.322244546381077 
848	 0.32243315450667 
849	 0.321991006339456 
850	 0.321619490158874 
851	 0.321985510255605 
852	 0.324651714216215 
853	 0.327280118387018 
854	 0.327381296396779 
855	 0.328282621391497 
856	 0.329482982245024 
857	 0.327868712240137 
858	 0.327491413929557 
859	 0.329112990298619 
860	 0.328990201181583 
861	 0.328219352864629 
862	 0.328057958600866 
863	 0.328382567177994 
864	 0.329052697187664 
865	 0.329557817660777 
866	 0.331594586271721 
867	 0.334679072328493 
868	 0.333893044664215 
869	 0.333478038786694 
870	 0.336483255368198 
871	 0.335676493444978 
872	 0.33326301566926 
873	 0.335577720551014 
874	 0.337709599474326 
875	 0.338570026253724 
876	 0.340119319101402 
877	 0.341231367953687 
878	 0.341379852803715 
879	 0.343045416310122 
880	 0.345333610073706 
881	 0.3462614968288 
882	 0.347252449518113 
883	 0.348218940819373 
884	 0.347409706643039 
885	 0.347445199745614 
886	 0.349482080844068 
887	 0.350361671068937 
888	 0.350577777465245 
889	 0.351239083266899 
890	 0.350972017025374 
891	 0.349865633784745 
892	 0.348983499805046 
893	 0.348685095964424 
894	 0.349462764268175 
895	 0.352253088111196 
896	 0.356160241575057 
897	 0.359791924030933 
898	 0.36102417158909 
899	 0.360879487765381 
900	 0.363400215674583 
901	 0.364741864084239 
902	 0.364272811476864 
903	 0.36555936837788 
904	 0.364467864096583 
905	 0.358864726754734 
906	 0.359855109992748 
907	 0.365230731641526 
908	 0.368151838666246 
909	 0.366375824613154 
910	 0.361694274499872 
911	 0.364253936122068 
912	 0.36789390725705 
913	 0.369022051193567 
914	 0.3692986420145 
915	 0.370698160803864 
916	 0.375169475477078 
917	 0.375088069740918 
918	 0.371458580355146 
919	 0.371240442754176 
920	 0.372096406455977 
921	 0.372554863844672 
922	 0.3687403998474 
923	 0.365921239801563 
924	 0.368381783692956 
925	 0.368642477913351 
926	 0.365458488349967 
927	 0.358696308515417 
928	 0.358354515582795 
929	 0.366289188333895 
930	 0.370619602842297 
931	 0.369612565428677 
932	 0.362879861502944 
933	 0.364696800706968 
934	 0.370904015104538 
935	 0.371605645872708 
936	 0.376639012866993 
937	 0.381246555437041 
938	 0.367902507172008 
939	 0.363089110292963 
940	 0.370807817960227 
941	 0.369773302209821 
942	 0.368835317903633 
943	 0.374216729613781 
944	 0.377574463753198 
945	 0.378128298170296 
946	 0.376588531356091 
947	 0.372862722028136 
948	 0.368476896897298 
949	 0.367442556019975 
950	 0.36651235475256 
951	 0.365042989384137 
952	 0.368243081074185 
953	 0.369938054400241 
954	 0.365300128953876 
955	 0.364924103004687 
956	 0.367944148250582 
957	 0.369254885496512 
958	 0.377420895057491 
959	 0.388816369156803 
960	 0.384992047536013 
961	 0.381903380703379 
962	 0.385780938335526 
963	 0.384483735353637 
964	 0.380809610219623 
965	 0.378240144813918 
966	 0.376296057677112 
967	 0.374394567090894 
968	 0.371089393800989 
969	 0.370753015960994 
970	 0.373441744272801 
971	 0.374700772927359 
972	 0.375572526562225 
973	 0.376983358567763 
974	 0.381001097479829 
975	 0.38492495432161 
976	 0.385619849871344 
977	 0.384227960282479 
978	 0.382638751498365 
979	 0.384369015441694 
980	 0.383623612051444 
981	 0.380389199830593 
982	 0.380794409577796 
983	 0.383803408600011 
984	 0.387570509625367 
985	 0.38511204152566 
986	 0.382090525586419 
987	 0.385001836692711 
988	 0.388443157026844 
989	 0.389478699346507 
990	 0.384092435465658 
991	 0.386333609050145 
992	 0.394656759443428 
993	 0.387877011499545 
994	 0.381335654053036 
995	 0.381762414933306 
996	 0.379364476448406 
997	 0.375921626146606 
998	 0.374315513199026 
999	 0.379836502395987 
1000	 0.387233747387338 
1001	 0.386596596381182 
1002	 0.384389456194764 
1003	 0.383765154937233 
1004	 0.388595968971763 
1005	 0.396207760074547 
1006	 0.402275911370803 
1007	 0.393206301063046 
1008	 0.385467916080058 
1009	 0.39101860117142 
1010	 0.390397865609955 
1011	 0.387916709765314 
1012	 0.392748320044178 
1013	 0.396296578588129 
1014	 0.39775981804983 
1015	 0.399762586919025 
1016	 0.398894538679502 
1017	 0.394190006213377 
1018	 0.384402195639472 
1019	 0.384620977448284 
1020	 0.39999571961168 
1021	 0.408331458854243 
1022	 0.403125503814444 
1023	 0.383802000265251 
1024	 0.389070743493874 
1025	 0.405131472653542 
1026	 0.398733935830044 
1027	 0.393054580213701 
1028	 0.393474279595071 
1029	 0.399929671349409 
1030	 0.396290205753744 
1031	 0.383337875937502 
1032	 0.393668352727952 
1033	 0.405409189179868 
1034	 0.403158270396571 
1035	 0.388991556699578 
1036	 0.379410634634267 
1037	 0.391189393017881 
1038	 0.402999238112579 
1039	 0.408412027101382 
1040	 0.404018324144996 
1041	 0.401819664956592 
1042	 0.402898676895626 
1043	 0.401624301372807 
1044	 0.394115266185319 
1045	 0.383937232203292 
1046	 0.392454237711875 
1047	 0.402745430856813 
1048	 0.403189360940801 
1049	 0.394606516938423 
1050	 0.390933439142942 
1051	 0.401643500566724 
1052	 0.376016827096826 
1053	 0.354056887061409 
1054	 0.40584796957154 
1055	 0.410395172615327 
1056	 0.377453460754705 
1057	 0.390689760719269 
1058	 0.416884061211679 
1059	 0.434559339838644 
1060	 0.404870492222558 
1061	 0.378608193155858 
1062	 0.37870175487328 
1063	 0.37665063030068 
1064	 0.372682165208992 
1065	 0.368754404638157 
1066	 0.376055436344338 
1067	 0.378899256452405 
1068	 0.362445957663552 
1069	 0.375046188812895 
1070	 0.391299920973878 
1071	 0.357722088114694 
1072	 0.330378229434686 
1073	 0.336234275659393 
1074	 0.392334573349325 
1075	 0.397767307650654 
