Wavelength	SHSI00036.asd
325	 5.87741942301799E-02 
326	 6.46053346076345E-02 
327	 5.40729403802885E-02 
328	 4.56183550716274E-02 
329	 0.043780240117983 
330	 0.048822888091058 
331	 5.24462428207973E-02 
332	 5.46330309731185E-02 
333	 5.60821059136925E-02 
334	 5.49526254548141E-02 
335	 5.32416368894881E-02 
336	 5.65044951600901E-02 
337	 5.70552852095731E-02 
338	 5.31468364793522E-02 
339	 4.80660602508761E-02 
340	 4.65733497729323E-02 
341	 0.051405930770002 
342	 5.19361131084784E-02 
343	 4.91825775096741E-02 
344	 4.80186876529698E-02 
345	 4.97951919059353E-02 
346	 5.27243495641454E-02 
347	 4.76487264565454E-02 
348	 4.53906455451859E-02 
349	 5.20369804619132E-02 
350	 5.41481303150913E-02 
351	 5.26340317561443E-02 
352	 5.16511726539676E-02 
353	 5.14620951184697E-02 
354	 5.22698648256159E-02 
355	 5.41434507869817E-02 
356	 5.49513997072102E-02 
357	 5.36943004020999E-02 
358	 5.30268301626412E-02 
359	 5.31377437668031E-02 
360	 5.38180851485432E-02 
361	 0.052615540970956 
362	 5.04844049194057E-02 
363	 5.31193666154584E-02 
364	 5.38464044719894E-02 
365	 0.050096893288502 
366	 5.01106746051696E-02 
367	 5.20708274890875E-02 
368	 5.24694412638862E-02 
369	 5.25532487585872E-02 
370	 5.25851968064392E-02 
371	 0.052675485006401 
372	 5.28209786971926E-02 
373	 5.31023419964008E-02 
374	 5.42409539431125E-02 
375	 5.47682840553414E-02 
376	 5.26992606763358E-02 
377	 5.01286797500632E-02 
378	 4.83038953313769E-02 
379	 4.89953743014482E-02 
380	 5.10671859113185E-02 
381	 5.31168346207934E-02 
382	 5.07882183042381E-02 
383	 4.79972391443997E-02 
384	 5.02700118630811E-02 
385	 0.049710299562259 
386	 4.67263046869287E-02 
387	 4.86578120871385E-02 
388	 5.02231799056037E-02 
389	 4.94229975618071E-02 
390	 4.99987100015522E-02 
391	 0.050617338344565 
392	 4.94391431858652E-02 
393	 4.95657467442858E-02 
394	 5.04287319886768E-02 
395	 4.84319135088934E-02 
396	 4.70132905745125E-02 
397	 4.73697309158878E-02 
398	 0.04730879528439 
399	 4.67994432235798E-02 
400	 0.046044436067179 
401	 4.61997939585438E-02 
402	 4.69003319027581E-02 
403	 0.046806361542472 
404	 4.64334439731588E-02 
405	 4.60728322111325E-02 
406	 4.61198923596652E-02 
407	 4.65213701976811E-02 
408	 4.71479584227326E-02 
409	 4.63847323057606E-02 
410	 4.48385690992194E-02 
411	 4.53340438756019E-02 
412	 4.57903111380098E-02 
413	 4.53404911825107E-02 
414	 4.52340693301801E-02 
415	 4.52750540793068E-02 
416	 0.045069142925148 
417	 4.47364002922887E-02 
418	 4.43621388548108E-02 
419	 4.40313354198895E-02 
420	 0.044129725991746 
421	 4.47698696488488E-02 
422	 0.045289676818317 
423	 4.52412824142717E-02 
424	 4.40991298162861E-02 
425	 4.39964820558096E-02 
426	 4.49078858756242E-02 
427	 4.45621539078388E-02 
428	 0.044147915817235 
429	 4.43484610165463E-02 
430	 0.044065511066558 
431	 4.35264331304504E-02 
432	 4.33237658533279E-02 
433	 4.33743942682833E-02 
434	 4.36030983243011E-02 
435	 4.38614366213907E-02 
436	 4.38643773606804E-02 
437	 4.34968101862228E-02 
438	 4.34745746736271E-02 
439	 4.36884468887339E-02 
440	 4.37441533934008E-02 
441	 4.37727295678475E-02 
442	 4.37815150400684E-02 
443	 0.043653130197193 
444	 4.36560682654901E-02 
445	 4.39649073765431E-02 
446	 4.39051615099599E-02 
447	 4.38282489364948E-02 
448	 4.48864954200339E-02 
449	 4.52080452296119E-02 
450	 4.44395774923865E-02 
451	 4.42135826011127E-02 
452	 4.45203971219765E-02 
453	 4.52105999757953E-02 
454	 4.55071067385518E-02 
455	 4.54394837797227E-02 
456	 4.56197205046024E-02 
457	 4.56512660375009E-02 
458	 4.54383622184586E-02 
459	 4.53048373299047E-02 
460	 4.53550755903916E-02 
461	 4.56634690429241E-02 
462	 4.57435719592526E-02 
463	 4.56417119769497E-02 
464	 4.58951283134596E-02 
465	 4.61200301708949E-02 
466	 4.61467459484873E-02 
467	 4.62625376359905E-02 
468	 4.64302310764036E-02 
469	 4.65467367332757E-02 
470	 4.67266724685499E-02 
471	 4.70195552053855E-02 
472	 4.76296264705613E-02 
473	 4.75783534430904E-02 
474	 0.046480044591798 
475	 0.046578245422339 
476	 4.74885316395384E-02 
477	 4.80407017149655E-02 
478	 4.78059852293649E-02 
479	 4.70022759591155E-02 
480	 4.72035757178554E-02 
481	 4.77241750280278E-02 
482	 4.79694184179587E-02 
483	 4.81493433153083E-02 
484	 4.83113341735365E-02 
485	 4.85718834120225E-02 
486	 4.84566505839118E-02 
487	 4.79120280377558E-02 
488	 4.76263067955786E-02 
489	 4.75750044890388E-02 
490	 4.76807115844366E-02 
491	 0.048252692730689 
492	 4.89025289746279E-02 
493	 4.84314913092129E-02 
494	 4.81792679976586E-02 
495	 4.87280031792159E-02 
496	 4.97621568278031E-02 
497	 5.04699311888471E-02 
498	 4.98743695999692E-02 
499	 0.049850788632304 
500	 5.05698469120886E-02 
501	 0.050823036085089 
502	 5.11869611900297E-02 
503	 5.19385304349825E-02 
504	 5.25500381279941E-02 
505	 5.27774514440154E-02 
506	 5.23026683885004E-02 
507	 5.24178300426544E-02 
508	 5.32646962740343E-02 
509	 5.36592498527808E-02 
510	 5.41979632909038E-02 
511	 5.52834493939765E-02 
512	 5.56514917967565E-02 
513	 5.55684669210588E-02 
514	 5.60859590924378E-02 
515	 5.70005012104204E-02 
516	 5.80458235143902E-02 
517	 5.80734230420899E-02 
518	 5.79565524830796E-02 
519	 5.87000204879821E-02 
520	 5.93709150708405E-02 
521	 5.98503512464336E-02 
522	 6.02934599482855E-02 
523	 6.11013767036742E-02 
524	 6.23272283698175E-02 
525	 6.29547173525474E-02 
526	 0.063249127674519 
527	 6.37308816684545E-02 
528	 6.44186811312578E-02 
529	 6.52086372637842E-02 
530	 6.56649257675109E-02 
531	 6.62093639435138E-02 
532	 6.71203227307192E-02 
533	 0.068206303505228 
534	 6.91730970298844E-02 
535	 6.95103343567309E-02 
536	 6.99299388331104E-02 
537	 7.05866575574979E-02 
538	 7.09344127125343E-02 
539	 7.15046087806636E-02 
540	 7.27663004947011E-02 
541	 7.34684033305273E-02 
542	 7.37121983304422E-02 
543	 7.44944186997698E-02 
544	 7.52247601294373E-02 
545	 7.56784562082822E-02 
546	 7.59625851864777E-02 
547	 7.63793625219557E-02 
548	 7.72929393718117E-02 
549	 7.81814766670751E-02 
550	 7.89019792568288E-02 
551	 7.95315766662921E-02 
552	 7.99509370308115E-02 
553	 8.01649706602177E-02 
554	 8.08547130005662E-02 
555	 8.17196128172365E-02 
556	 8.20013620913753E-02 
557	 8.25968862540891E-02 
558	 8.35546033926707E-02 
559	 8.37966457040486E-02 
560	 0.083711122328352 
561	 8.37294478695675E-02 
562	 8.40725802857054E-02 
563	 8.46436838291984E-02 
564	 8.50816443767891E-02 
565	 8.53988883002095E-02 
566	 8.55572255958288E-02 
567	 8.54360718452266E-02 
568	 8.53156678248007E-02 
569	 8.55554112202837E-02 
570	 8.56840859258693E-02 
571	 8.56488615947982E-02 
572	 8.57009237213969E-02 
573	 8.57417985198956E-02 
574	 8.57332779479705E-02 
575	 8.58681790390108E-02 
576	 0.086017773760259 
577	 8.59007974555835E-02 
578	 8.57900767170808E-02 
579	 8.57734053258955E-02 
580	 8.57582671721593E-02 
581	 8.59693619645152E-02 
582	 8.65503890291875E-02 
583	 8.67690909947507E-02 
584	 8.65839652261578E-02 
585	 8.61696857881062E-02 
586	 8.62149328342286E-02 
587	 8.68372154515282E-02 
588	 8.66736238531194E-02 
589	 0.086205000466964 
590	 8.62382607155824E-02 
591	 8.66497979435141E-02 
592	 8.71907019017049E-02 
593	 8.72274544637204E-02 
594	 8.70018410524346E-02 
595	 8.67260806070004E-02 
596	 8.68896349928868E-02 
597	 8.72411802766865E-02 
598	 8.72230804904196E-02 
599	 8.71603482125192E-02 
600	 8.71732801041053E-02 
601	 8.73741522014593E-02 
602	 8.75199954568958E-02 
603	 8.74028137021851E-02 
604	 8.72676135071211E-02 
605	 8.71260119801399E-02 
606	 8.68774688176496E-02 
607	 8.66276443584824E-02 
608	 8.64191564454767E-02 
609	 0.086210087372426 
610	 8.59970173025421E-02 
611	 8.57798693106648E-02 
612	 8.55441905805835E-02 
613	 0.085341978437356 
614	 8.53854246690567E-02 
615	 8.52883758372469E-02 
616	 8.48389799056563E-02 
617	 0.084441679854684 
618	 0.084050411053467 
619	 8.34406427563223E-02 
620	 8.32529491204912E-02 
621	 8.34716717324397E-02 
622	 8.31812289840705E-02 
623	 8.26556173352395E-02 
624	 8.22129490619051E-02 
625	 8.23039540882508E-02 
626	 8.27218166052425E-02 
627	 8.26701609685453E-02 
628	 8.27762507866968E-02 
629	 8.31716581383269E-02 
630	 8.32017269572117E-02 
631	 8.29380047805138E-02 
632	 8.25516335113389E-02 
633	 8.27711755276313E-02 
634	 8.34017433231635E-02 
635	 0.083225186239642 
636	 8.28032028867508E-02 
637	 0.082567674471722 
638	 0.083139695676658 
639	 8.39522483300051E-02 
640	 8.38741554578882E-02 
641	 8.35662696962875E-02 
642	 8.33722041514304E-02 
643	 8.39310751676784E-02 
644	 8.41552726507344E-02 
645	 8.31575263687842E-02 
646	 8.25479722109316E-02 
647	 8.25742118206741E-02 
648	 8.30472770790085E-02 
649	 8.34411275349748E-02 
650	 8.34345857251732E-02 
651	 8.29277533662826E-02 
652	 8.21544280236377E-02 
653	 0.081395547681599 
654	 8.09237709635518E-02 
655	 8.06884881717233E-02 
656	 8.04264771624277E-02 
657	 7.94562106667037E-02 
658	 7.75678203889559E-02 
659	 0.075844554854262 
660	 0.074458166944473 
661	 7.34746009395434E-02 
662	 7.25248618293029E-02 
663	 7.14618837232574E-02 
664	 7.02972107074193E-02 
665	 6.89314642203673E-02 
666	 0.067368914828658 
667	 6.67847352518866E-02 
668	 6.65938417882723E-02 
669	 6.47277296306582E-02 
670	 6.35215092180669E-02 
671	 6.36388475921935E-02 
672	 6.35904963086968E-02 
673	 0.063234404233684 
674	 6.25635311796211E-02 
675	 6.21602893579528E-02 
676	 6.21470984409994E-02 
677	 6.23619644482801E-02 
678	 6.28283925617119E-02 
679	 0.063523094423316 
680	 6.43393463015609E-02 
681	 6.49722451371107E-02 
682	 6.49263532904441E-02 
683	 0.066095456142951 
684	 6.85034656162986E-02 
685	 6.99894597806516E-02 
686	 0.071492011942293 
687	 7.38770814099462E-02 
688	 7.71981851208746E-02 
689	 8.06119314212036E-02 
690	 8.29106344461106E-02 
691	 8.59613175066643E-02 
692	 8.99861830446183E-02 
693	 9.24873129403289E-02 
694	 9.52226662637205E-02 
695	 9.98672137751657E-02 
696	 0.103397857708677 
697	 0.105957864215335 
698	 0.109692022883278 
699	 0.113496740890892 
700	 0.116737111447361 
701	 0.119168878310875 
702	 0.121394677905392 
703	 0.124298125341177 
704	 0.126898140731589 
705	 0.129079556380829 
706	 0.131039577571437 
707	 0.133533441889863 
708	 0.136817895030014 
709	 0.138720835020498 
710	 0.139817898025705 
711	 0.141738850227866 
712	 0.143611648749905 
713	 0.145195207416077 
714	 0.146613012631986 
715	 0.147756866749985 
716	 0.148598910265682 
717	 0.149543570938892 
718	 0.150845843301375 
719	 0.152748591372199 
720	 0.154010118533551 
721	 0.154465622898675 
722	 0.155933955338539 
723	 0.157540916395076 
724	 0.158119339796916 
725	 0.158883301393324 
726	 0.159890269190271 
727	 0.160556807932555 
728	 0.161429130611287 
729	 0.162638379964546 
730	 0.163109570492857 
731	 0.163406737550653 
732	 0.164440031770241 
733	 0.165231884049716 
734	 0.165705184728066 
735	 0.166306878105789 
736	 0.166945647004286 
737	 0.167555971404058 
738	 0.168243215997457 
739	 0.169086185580101 
740	 0.170247893282083 
741	 0.170857752546716 
742	 0.170894576865321 
743	 0.171507821787534 
744	 0.172311267497403 
745	 0.172930475811881 
746	 0.17322510237357 
747	 0.173385614452551 
748	 0.173948314752606 
749	 0.174461588237633 
750	 0.174772188421097 
751	 0.174947158871715 
752	 0.175252045423848 
753	 0.175919894311675 
754	 0.175818145540601 
755	 0.175336454174604 
756	 0.176352193111442 
757	 0.176873931392586 
758	 0.17616019026784 
759	 0.176166569998521 
760	 0.177063297440472 
761	 0.177699991581058 
762	 0.177187422269713 
763	 0.176458881894589 
764	 0.177700483200502 
765	 0.179084130068219 
766	 0.179894575735667 
767	 0.18041268584446 
768	 0.180942549103474 
769	 0.181812664495377 
770	 0.181985255327966 
771	 0.181606195019888 
772	 0.182226536050788 
773	 0.182605460007952 
774	 0.182085399929402 
775	 0.182602901852019 
776	 0.18361305489992 
777	 0.183639248176177 
778	 0.183880170062623 
779	 0.184582091661362 
780	 0.18534398068353 
781	 0.185581312448233 
782	 0.184989800434925 
783	 0.185408772764898 
784	 0.186350388513714 
785	 0.186131340816562 
786	 0.185685785531798 
787	 0.1854447913915 
788	 0.185971603229212 
789	 0.186393707668879 
790	 0.185959595663887 
791	 0.186391093373663 
792	 0.187318384262379 
793	 0.187053319447174 
794	 0.186931153863202 
795	 0.187203318278741 
796	 0.186507844822615 
797	 0.186279237703635 
798	 0.187868654253013 
799	 0.188443621291853 
800	 0.188018154910437 
801	 0.188217621645338 
802	 0.188349667992057 
803	 0.188359688441867 
804	 0.18921204816182 
805	 0.1900745469312 
806	 0.190036984760053 
807	 0.190199451868542 
808	 0.190596105134748 
809	 0.190643912713241 
810	 0.190707492517627 
811	 0.190858488315949 
812	 0.190501255404192 
813	 0.190118392830283 
814	 0.190427487836357 
815	 0.191544223437163 
816	 0.19290367732305 
817	 0.192661853303324 
818	 0.192647309224948 
819	 0.193505307237648 
820	 0.194023440160957 
821	 0.194106235051317 
822	 0.193764546170691 
823	 0.194210029489951 
824	 0.195503279121564 
825	 0.197205121961157 
826	 0.197852428397952 
827	 0.196993971989708 
828	 0.196093717903612 
829	 0.196047516195432 
830	 0.197651906743766 
831	 0.19829492701307 
832	 0.197828637744727 
833	 0.197626023049664 
834	 0.197746976130644 
835	 0.19819057245011 
836	 0.198551476418172 
837	 0.198577705232526 
838	 0.198068607972992 
839	 0.197877764889734 
840	 0.198182785564777 
841	 0.198999691137658 
842	 0.199301055199896 
843	 0.19871588510524 
844	 0.198157474330591 
845	 0.197587718412912 
846	 0.196911496959834 
847	 0.197080959051773 
848	 0.197857817011939 
849	 0.197945306149808 
850	 0.198327546056052 
851	 0.199118855352651 
852	 0.198710085974274 
853	 0.198059383429719 
854	 0.198267850980473 
855	 0.197948966707728 
856	 0.197146182925664 
857	 0.19652473148487 
858	 0.196406229784391 
859	 0.196803451344885 
860	 0.197153017395345 
861	 0.196858028764663 
862	 0.195545977049896 
863	 0.195514692386747 
864	 0.196522519743965 
865	 0.196850682449926 
866	 0.197772715201199 
867	 0.199040678966962 
868	 0.19773450245916 
869	 0.196572821909213 
870	 0.197798619469057 
871	 0.199821235035743 
872	 0.201574615038864 
873	 0.201582084936643 
874	 0.200941147920823 
875	 0.200452756404275 
876	 0.201691488051432 
877	 0.203149767057041 
878	 0.203812802861725 
879	 0.205080230870256 
880	 0.20642965413567 
881	 0.206755207931905 
882	 0.207653145623882 
883	 0.209104185268421 
884	 0.209415756630092 
885	 0.209907095514166 
886	 0.211214050925124 
887	 0.212251150631716 
888	 0.213001114532899 
889	 0.213595768840202 
890	 0.213886979392907 
891	 0.213823309772168 
892	 0.213163324497814 
893	 0.213284388517117 
894	 0.214657178805256 
895	 0.215502838833583 
896	 0.215444001121494 
897	 0.214441815694537 
898	 0.216227341790809 
899	 0.21960770109769 
900	 0.220000979027065 
901	 0.217280142046897 
902	 0.213482561480552 
903	 0.217804771292643 
904	 0.222240548491036 
905	 0.220936169517198 
906	 0.221754455089758 
907	 0.223743856221043 
908	 0.223296709173599 
909	 0.221468238207366 
910	 0.219423146580584 
911	 0.22002706724565 
912	 0.22250632189983 
913	 0.225765649049472 
914	 0.226551193081698 
915	 0.226150932885574 
916	 0.226618906074282 
917	 0.227746324586688 
918	 0.228923447616426 
919	 0.228766567678642 
920	 0.227396843932295 
921	 0.22569647681132 
922	 0.227789269052704 
923	 0.229672256537879 
924	 0.227732275781434 
925	 0.225508098830184 
926	 0.223047687630289 
927	 0.219022783440222 
928	 0.217613223434409 
929	 0.219452797139688 
930	 0.218545493423533 
931	 0.217362071525701 
932	 0.218746574560329 
933	 0.228321750957359 
934	 0.237071961031582 
935	 0.230767824302514 
936	 0.218592022410773 
937	 0.208895230182112 
938	 0.215922182387532 
939	 0.222415438145929 
940	 0.222924495192147 
941	 0.221294531594734 
942	 0.219628774387977 
943	 0.219241922375625 
944	 0.217771334007819 
945	 0.216093158331092 
946	 0.216102041123661 
947	 0.211552131829076 
948	 0.205325496638232 
949	 0.211291171392943 
950	 0.214886910278584 
951	 0.211901558005089 
952	 0.217227948874973 
953	 0.222359098486289 
954	 0.219488877263393 
955	 0.217546894348289 
956	 0.21900038773388 
957	 0.225651221303249 
958	 0.226842545674375 
959	 0.2212431110578 
960	 0.2130562064135 
961	 0.215140815374692 
962	 0.228639201573486 
963	 0.225587269370525 
964	 0.21861930266402 
965	 0.221106818723656 
966	 0.220557193204884 
967	 0.218486973289762 
968	 0.222090507960525 
969	 0.221709948924207 
970	 0.216849126102461 
971	 0.215469039452453 
972	 0.217177760891499 
973	 0.22030674103786 
974	 0.214941634934156 
975	 0.213407406929134 
976	 0.228642633785715 
977	 0.229032432981222 
978	 0.219190538725716 
979	 0.22167250224266 
980	 0.224443513962053 
981	 0.224557315870971 
982	 0.223352379262352 
983	 0.225050196014497 
984	 0.230272814359356 
985	 0.22765218292161 
986	 0.225285626389168 
987	 0.231820320943388 
988	 0.231774740772508 
989	 0.225894927504631 
990	 0.221040561921405 
991	 0.218636900453351 
992	 0.220172156022521 
993	 0.228904271873927 
994	 0.23095040685417 
995	 0.22271478390865 
996	 0.229600832982955 
997	 0.234790158761046 
998	 0.222303977788561 
999	 0.223309126408166 
1000	 0.232040724784911 
1001	 0.229469016810679 
1002	 0.225540877812088 
1003	 0.224109602959722 
1004	 0.230224708998734 
1005	 0.231726067910122 
1006	 0.225911054669997 
1007	 0.226300826484698 
1008	 0.230094969851398 
1009	 0.233994695783453 
1010	 0.236056065568781 
1011	 0.235025536119345 
1012	 0.230209895728603 
1013	 0.235122065326591 
1014	 0.244543775493745 
1015	 0.238850906692087 
1016	 0.234223037303725 
1017	 0.234148410303969 
1018	 0.22849871324123 
1019	 0.23477667848809 
1020	 0.254847072126023 
1021	 0.241303321660763 
1022	 0.225666915036973 
1023	 0.239925408210781 
1024	 0.239825479011144 
1025	 0.227774346108056 
1026	 0.220440915533674 
1027	 0.219493932780957 
1028	 0.226277101632921 
1029	 0.243037327684636 
1030	 0.248464596214339 
1031	 0.237628457027279 
1032	 0.223829914687724 
1033	 0.218645848474317 
1034	 0.228459781963072 
1035	 0.240963653038226 
1036	 0.246490676945052 
1037	 0.237654079424356 
1038	 0.236756397872756 
1039	 0.236341054557515 
1040	 0.217101175307253 
1041	 0.217955662800909 
1042	 0.238394957782372 
1043	 0.249162497296237 
1044	 0.238973884135093 
1045	 0.214569969264607 
1046	 0.223185252779502 
1047	 0.231058268104354 
1048	 0.221071957218152 
1049	 0.22804009742912 
1050	 0.233628379344375 
1051	 0.21980171148275 
1052	 0.223382127018951 
1053	 0.239771258954522 
1054	 0.252088452547657 
1055	 0.254274377791974 
1056	 0.252048283100915 
1057	 0.264028905593838 
1058	 0.258742946204165 
1059	 0.236527362812267 
1060	 0.233673830859781 
1061	 0.246197002873324 
1062	 0.2605675742351 
1063	 0.215001893226867 
1064	 0.192488965177494 
1065	 0.240543468734798 
1066	 0.242029475900444 
1067	 0.229382866084442 
1068	 0.248911029172955 
1069	 0.245073735982326 
1070	 0.22781110799207 
1071	 0.229498062743068 
1072	 0.245909580233743 
1073	 0.263352041347467 
1074	 0.25164363219609 
1075	 0.205512381049202 
