Wavelength	SHSI00368.asd
325	 6.15093063894828E-02 
326	 6.83835554175097E-02 
327	 7.01337758624323E-02 
328	 0.075698004858395 
329	 0.076624036694101 
330	 7.21700908695636E-02 
331	 0.07404058464438 
332	 7.63574367654007E-02 
333	 7.28111688738215E-02 
334	 0.063728291573808 
335	 5.52540287824543E-02 
336	 0.060390923755947 
337	 6.64776397670024E-02 
338	 6.89734380841045E-02 
339	 6.82738512654727E-02 
340	 6.63781916063165E-02 
341	 6.50166451527609E-02 
342	 0.064131924564241 
343	 6.41857358865341E-02 
344	 6.63064546955034E-02 
345	 6.54568179483878E-02 
346	 6.20541357205953E-02 
347	 0.06291310418709 
348	 6.49009838976451E-02 
349	 6.56959488397933E-02 
350	 6.55575876441969E-02 
351	 6.44216859800792E-02 
352	 6.19250778228347E-02 
353	 6.23219685514814E-02 
354	 6.54193695153813E-02 
355	 6.64368551291086E-02 
356	 6.69411878294906E-02 
357	 6.76053334490274E-02 
358	 6.55678030675859E-02 
359	 6.30240492983848E-02 
360	 6.36077717618766E-02 
361	 6.30610742346838E-02 
362	 6.12728570647632E-02 
363	 6.13133751848216E-02 
364	 6.16277388992933E-02 
365	 6.17096864737134E-02 
366	 6.44140454083863E-02 
367	 6.66199287329086E-02 
368	 6.39505315264492E-02 
369	 6.29520642008837E-02 
370	 6.41166410412912E-02 
371	 6.37087888150884E-02 
372	 6.28127284918611E-02 
373	 0.062156791924645 
374	 6.28692199146325E-02 
375	 6.33094887631775E-02 
376	 6.11808866385511E-02 
377	 6.02225900076337E-02 
378	 6.09227015227136E-02 
379	 6.16944505872422E-02 
380	 6.24192321687055E-02 
381	 6.30272203334524E-02 
382	 6.42749665079129E-02 
383	 6.44540311189777E-02 
384	 6.13498354260507E-02 
385	 6.05852061297887E-02 
386	 6.23074721923437E-02 
387	 0.062584218009926 
388	 6.15694600936205E-02 
389	 5.98594498268186E-02 
390	 6.06843268858333E-02 
391	 6.21317816315332E-02 
392	 6.17133430243655E-02 
393	 6.09155394506816E-02 
394	 6.03786196345151E-02 
395	 6.13720648447376E-02 
396	 6.03615293218219E-02 
397	 5.67876932906805E-02 
398	 0.055909316757671 
399	 5.66322951076051E-02 
400	 5.73051574059494E-02 
401	 5.75048350990496E-02 
402	 5.74134796474698E-02 
403	 5.78470087720349E-02 
404	 5.81165821395622E-02 
405	 0.057931744263559 
406	 5.71619828415771E-02 
407	 5.70915664797802E-02 
408	 5.92078366343205E-02 
409	 5.92853777273479E-02 
410	 5.75660013501461E-02 
411	 5.75555212173618E-02 
412	 5.76488158677827E-02 
413	 0.057317491706345 
414	 5.81889860563829E-02 
415	 5.90540569997595E-02 
416	 5.82341770554686E-02 
417	 0.057897308472627 
418	 5.82418006884629E-02 
419	 5.82489803006883E-02 
420	 5.80139517898952E-02 
421	 5.76970087659679E-02 
422	 5.81520595862097E-02 
423	 0.058694234137338 
424	 5.82178586313624E-02 
425	 5.78063490476054E-02 
426	 5.79132576671548E-02 
427	 5.92001776553277E-02 
428	 0.059889630240084 
429	 5.89794479469797E-02 
430	 5.85013012472742E-02 
431	 5.83608736341251E-02 
432	 5.79166841285177E-02 
433	 5.75736197689213E-02 
434	 5.74768071135888E-02 
435	 5.76909006824833E-02 
436	 5.81913829750777E-02 
437	 5.88613791903055E-02 
438	 5.88517357108108E-02 
439	 5.85142697990406E-02 
440	 5.87335061760558E-02 
441	 5.88151072771927E-02 
442	 5.86166570215303E-02 
443	 5.83716409675161E-02 
444	 5.83243705764567E-02 
445	 5.86331384350919E-02 
446	 5.88536294957152E-02 
447	 5.90115432697603E-02 
448	 5.93843007738803E-02 
449	 5.95189512525598E-02 
450	 5.93887091408921E-02 
451	 5.96842832440936E-02 
452	 5.99757463007176E-02 
453	 5.98280897300193E-02 
454	 5.98819227593897E-02 
455	 6.00605264150076E-02 
456	 5.98108197751492E-02 
457	 5.94580388264163E-02 
458	 5.92325405163726E-02 
459	 5.95728386201075E-02 
460	 6.00789705688024E-02 
461	 6.02381620078249E-02 
462	 6.00544752629258E-02 
463	 5.97814352949688E-02 
464	 6.02013656833023E-02 
465	 6.06264159544103E-02 
466	 6.06788271137976E-02 
467	 6.04867587272822E-02 
468	 6.01476285189236E-02 
469	 5.97779811375643E-02 
470	 5.98473757117286E-02 
471	 6.02562482269876E-02 
472	 6.02093418507587E-02 
473	 6.00067587167961E-02 
474	 5.98835589472039E-02 
475	 6.00924727398795E-02 
476	 6.04293832265009E-02 
477	 6.04995075113606E-02 
478	 6.03233310339542E-02 
479	 6.00047510394329E-02 
480	 5.99647974657286E-02 
481	 5.99040997430432E-02 
482	 5.96249866338205E-02 
483	 5.98752360601732E-02 
484	 6.04330276383049E-02 
485	 6.04725161412061E-02 
486	 6.05305273386499E-02 
487	 0.060695311438035 
488	 6.04578984674514E-02 
489	 6.01459401732313E-02 
490	 6.01184408325327E-02 
491	 6.03122690577101E-02 
492	 6.05933268258315E-02 
493	 0.060669047279743 
494	 6.06183738004916E-02 
495	 6.05245310693091E-02 
496	 6.06749632464541E-02 
497	 6.09566922083451E-02 
498	 0.061190447144134 
499	 6.09768449930436E-02 
500	 6.05245650563242E-02 
501	 6.08622045850372E-02 
502	 6.13450727381221E-02 
503	 6.15581902765959E-02 
504	 6.15797615270789E-02 
505	 6.15607202813033E-02 
506	 6.17500411530985E-02 
507	 6.17211848639626E-02 
508	 6.15500006455355E-02 
509	 6.19808740437049E-02 
510	 6.26583402346491E-02 
511	 6.32381513440146E-02 
512	 6.33337112503007E-02 
513	 6.32357371070283E-02 
514	 6.38099083977736E-02 
515	 6.42458616802302E-02 
516	 6.42849528768359E-02 
517	 6.42011903564356E-02 
518	 6.42410425747117E-02 
519	 6.46301040151646E-02 
520	 6.50766710866244E-02 
521	 6.54855987514548E-02 
522	 0.065821110840974 
523	 6.61025038526731E-02 
524	 6.63621088856046E-02 
525	 6.67444032300969E-02 
526	 6.71206426119749E-02 
527	 6.72874979239267E-02 
528	 0.067405268851916 
529	 6.75586085939518E-02 
530	 6.78676998856994E-02 
531	 6.82175164012851E-02 
532	 6.85288495693644E-02 
533	 6.88230203864486E-02 
534	 0.069081679662861 
535	 6.92542738336888E-02 
536	 0.069544293067496 
537	 6.99571773162509E-02 
538	 7.02290737241644E-02 
539	 7.02767532538975E-02 
540	 7.00663170769685E-02 
541	 7.01630850030985E-02 
542	 7.05877646547433E-02 
543	 7.11228462935965E-02 
544	 7.13476977127152E-02 
545	 0.071173869552602 
546	 0.07138744711077 
547	 7.16457191196555E-02 
548	 7.14096003542441E-02 
549	 7.15948705632486E-02 
550	 7.21269798618252E-02 
551	 7.19263670159284E-02 
552	 7.18282405074593E-02 
553	 7.22927084083338E-02 
554	 7.24495057993526E-02 
555	 7.24264262406219E-02 
556	 0.072702687534732 
557	 7.27971746974904E-02 
558	 7.26596061231097E-02 
559	 7.27488380496018E-02 
560	 7.30023074932673E-02 
561	 7.33163263525172E-02 
562	 0.073389681187583 
563	 7.31828585780148E-02 
564	 0.072666908215107 
565	 7.25909106932417E-02 
566	 7.31341281939794E-02 
567	 7.32130417221195E-02 
568	 0.072980065950064 
569	 7.27642583834692E-02 
570	 7.28688923540633E-02 
571	 7.31428289719531E-02 
572	 7.27363656529817E-02 
573	 7.24700718575631E-02 
574	 7.27571552038511E-02 
575	 7.25834047153758E-02 
576	 7.21977516190523E-02 
577	 7.22997580408103E-02 
578	 7.24848387630379E-02 
579	 7.25772693261134E-02 
580	 7.23775681728074E-02 
581	 7.22069349281003E-02 
582	 7.23290134770604E-02 
583	 7.22592565880166E-02 
584	 7.20377298345239E-02 
585	 7.20157130362245E-02 
586	 0.071875806105264 
587	 7.15850321795615E-02 
588	 7.17091985584521E-02 
589	 7.20337984277808E-02 
590	 7.22015787970158E-02 
591	 7.21044778480543E-02 
592	 7.17752635117137E-02 
593	 7.13761994773841E-02 
594	 7.11812117256243E-02 
595	 7.13335987317164E-02 
596	 7.15135950983374E-02 
597	 7.16097618478863E-02 
598	 7.15189989254327E-02 
599	 7.14322847737546E-02 
600	 7.14030705384741E-02 
601	 7.13594626277152E-02 
602	 7.13254889474981E-02 
603	 7.13155945309657E-02 
604	 7.11729680771116E-02 
605	 7.10484750929929E-02 
606	 7.14708927664731E-02 
607	 0.071518593884209 
608	 7.09293131464338E-02 
609	 7.05982373274271E-02 
610	 7.05375847755157E-02 
611	 7.06465189595731E-02 
612	 7.02995017386884E-02 
613	 0.069706955466364 
614	 7.01683102507324E-02 
615	 7.04818486371267E-02 
616	 7.00020847846799E-02 
617	 6.99012456176902E-02 
618	 7.00425926472321E-02 
619	 6.99079599214687E-02 
620	 6.98054076871991E-02 
621	 6.97936683700802E-02 
622	 0.069762357534079 
623	 0.069675624626702 
624	 6.95188339637934E-02 
625	 6.94992686949292E-02 
626	 6.95872189284934E-02 
627	 6.96533908007832E-02 
628	 6.94027036533667E-02 
629	 6.88807668992702E-02 
630	 0.069128596334075 
631	 6.96547137887477E-02 
632	 0.069739805926225 
633	 0.069465949127616 
634	 6.89687419498104E-02 
635	 6.85564685861298E-02 
636	 6.85706134732532E-02 
637	 6.91443186955547E-02 
638	 6.95883814471185E-02 
639	 6.96853640880657E-02 
640	 6.92290507510116E-02 
641	 0.068916674715284 
642	 6.88979370800814E-02 
643	 6.86903743066787E-02 
644	 6.83766967663554E-02 
645	 6.80638693497762E-02 
646	 6.80627496103251E-02 
647	 6.81992908543193E-02 
648	 6.78630165249831E-02 
649	 6.74891974726547E-02 
650	 6.72870581577497E-02 
651	 6.73627925146688E-02 
652	 6.74812568532002E-02 
653	 6.73556839657922E-02 
654	 6.71680759487911E-02 
655	 6.69477940039173E-02 
656	 6.67033543141451E-02 
657	 6.63652839422597E-02 
658	 6.59397503386877E-02 
659	 6.55854067197717E-02 
660	 6.54204523399582E-02 
661	 6.56428028492395E-02 
662	 6.55325997367633E-02 
663	 6.49167102419532E-02 
664	 6.40124150739794E-02 
665	 6.35082433223826E-02 
666	 6.38715001452222E-02 
667	 6.35435448710888E-02 
668	 6.27462670460858E-02 
669	 0.062721929718925 
670	 0.062704285667797 
671	 6.24673275938178E-02 
672	 6.22638675255455E-02 
673	 6.22509955552811E-02 
674	 6.25683208672149E-02 
675	 0.062552489349303 
676	 6.22605911098613E-02 
677	 6.23323635438674E-02 
678	 6.26271745990526E-02 
679	 6.29936594529034E-02 
680	 6.28766681415192E-02 
681	 6.25910086894829E-02 
682	 6.27111699142971E-02 
683	 6.33602144359902E-02 
684	 6.43435684495306E-02 
685	 6.47525807301275E-02 
686	 0.065138666112898 
687	 6.59658027832873E-02 
688	 6.66485605013027E-02 
689	 6.72419363994223E-02 
690	 6.82258877541621E-02 
691	 6.93386636315105E-02 
692	 7.04305427547237E-02 
693	 7.10394503807201E-02 
694	 7.18504535192543E-02 
695	 7.35012944815544E-02 
696	 7.44954865622649E-02 
697	 7.50284558237092E-02 
698	 7.65910274172057E-02 
699	 7.77652973307584E-02 
700	 0.078069920824406 
701	 7.92173418155268E-02 
702	 8.07133878788342E-02 
703	 8.16330714621349E-02 
704	 8.24073645241148E-02 
705	 8.31042640225655E-02 
706	 8.35310899283925E-02 
707	 8.41813716476119E-02 
708	 8.52865965737688E-02 
709	 8.59398256251563E-02 
710	 8.62293448173058E-02 
711	 8.65196469272358E-02 
712	 8.73082296970776E-02 
713	 8.84062743250209E-02 
714	 8.81765791595399E-02 
715	 8.77910033696233E-02 
716	 0.088389203781671 
717	 8.92927033265153E-02 
718	 9.01873090472642E-02 
719	 9.04010094793123E-02 
720	 9.05195921135793E-02 
721	 9.08072596652201E-02 
722	 9.13301337310015E-02 
723	 9.17933526502012E-02 
724	 9.18206614172554E-02 
725	 9.15288283215535E-02 
726	 9.12637664876392E-02 
727	 9.19077732541139E-02 
728	 9.24942151667694E-02 
729	 9.25656514473835E-02 
730	 9.26705862798053E-02 
731	 9.28913928802059E-02 
732	 9.32555855326969E-02 
733	 9.33924923246915E-02 
734	 9.33115202005219E-02 
735	 9.32712930969153E-02 
736	 9.35691431407793E-02 
737	 9.43023217914953E-02 
738	 9.44790734298981E-02 
739	 9.43064662891052E-02 
740	 9.44348254755264E-02 
741	 9.46933379414932E-02 
742	 9.49860844377639E-02 
743	 9.51000069740778E-02 
744	 9.50725430481822E-02 
745	 9.49722989913138E-02 
746	 9.51606205330561E-02 
747	 9.54780354493461E-02 
748	 9.53871599292438E-02 
749	 9.52679506763375E-02 
750	 0.095259484274163 
751	 9.52873719413984E-02 
752	 9.54972178317336E-02 
753	 9.60098805518702E-02 
754	 9.60734221337654E-02 
755	 9.57807728649801E-02 
756	 9.59128089824458E-02 
757	 9.57755251034447E-02 
758	 9.51535214626469E-02 
759	 9.50668786930572E-02 
760	 9.59054798314702E-02 
761	 9.75586082411984E-02 
762	 9.72142608984101E-02 
763	 9.56012831602185E-02 
764	 9.57452814998095E-02 
765	 9.65852837438453E-02 
766	 9.74650450538798E-02 
767	 9.76729779556734E-02 
768	 9.74027022756349E-02 
769	 9.68438209182084E-02 
770	 9.68620433501949E-02 
771	 9.73799637894008E-02 
772	 9.72076933854559E-02 
773	 9.69757388244046E-02 
774	 9.70975402252271E-02 
775	 9.72834245081707E-02 
776	 9.74059455841405E-02 
777	 9.73006134175636E-02 
778	 9.73764500421358E-02 
779	 9.75718941335502E-02 
780	 9.69627432470901E-02 
781	 0.096835955903522 
782	 9.80381212331531E-02 
783	 9.80347302161745E-02 
784	 9.73469021774657E-02 
785	 9.80249654308533E-02 
786	 0.098404026720475 
787	 9.81182734514069E-02 
788	 9.81201517049694E-02 
789	 9.82556115986061E-02 
790	 9.83466895049108E-02 
791	 9.84859421919819E-02 
792	 9.86625029294767E-02 
793	 9.89123479354041E-02 
794	 9.85857257516296E-02 
795	 9.77261430833255E-02 
796	 9.78076933580752E-02 
797	 9.81796009587519E-02 
798	 9.81321009707475E-02 
799	 0.098498142362413 
800	 9.90088617905075E-02 
801	 9.84482793972449E-02 
802	 9.84079201302559E-02 
803	 9.92353077081313E-02 
804	 9.91152857468679E-02 
805	 0.098692735226516 
806	 0.098781282123823 
807	 9.86086298301445E-02 
808	 9.83437155436997E-02 
809	 9.89521359582857E-02 
810	 9.92731265807257E-02 
811	 9.88831881397328E-02 
812	 9.86234375213884E-02 
813	 9.85895242953103E-02 
814	 9.88128672743688E-02 
815	 9.91022253552292E-02 
816	 9.93144845508095E-02 
817	 9.91805870466782E-02 
818	 9.93761120412879E-02 
819	 9.99697723005821E-02 
820	 9.95081236893396E-02 
821	 9.90626248125879E-02 
822	 9.99774141074025E-02 
823	 0.10081713309122 
824	 0.101139425190956 
825	 0.100796739480225 
826	 0.100487170317579 
827	 0.100475535168523 
828	 0.100282189958991 
829	 9.99717561833233E-02 
830	 9.96938983631265E-02 
831	 0.100074676950449 
832	 0.100793962787917 
833	 0.100577504850128 
834	 0.100233325038703 
835	 0.100127359076588 
836	 0.100202267794123 
837	 0.100288878627789 
838	 0.100227323120673 
839	 0.101219559592684 
840	 0.102504937219864 
841	 0.101116854258488 
842	 0.100402494003402 
843	 0.101374822222227 
844	 0.100682663690267 
845	 9.99480890093051E-02 
846	 0.101152022415815 
847	 0.100922850248886 
848	 0.099570304897798 
849	 0.100091509094354 
850	 0.100446166537259 
851	 0.100020616217682 
852	 0.100139849089753 
853	 0.100807819358324 
854	 0.101828962354958 
855	 0.10192886767057 
856	 0.101282524199336 
857	 0.100971359748991 
858	 0.100943796852843 
859	 0.101101115952934 
860	 0.100778486050416 
861	 0.100538439314981 
862	 0.100910077520614 
863	 0.101163038879428 
864	 0.101139455010968 
865	 0.100773512626164 
866	 0.100684074329695 
867	 0.101004716286887 
868	 0.101181798693986 
869	 0.101201030361147 
870	 0.101156232220268 
871	 0.102001890152683 
872	 0.102995258416863 
873	 0.102411441680534 
874	 0.102170765661942 
875	 0.102764666702832 
876	 0.103826270266618 
877	 0.103694542546557 
878	 0.101635453461306 
879	 0.10187638541821 
880	 0.103095102535146 
881	 0.1021816076741 
882	 0.101863002947071 
883	 0.10249482318593 
884	 0.102675070209483 
885	 0.103126850283796 
886	 0.103942227384306 
887	 0.102939616554677 
888	 0.101723353137071 
889	 0.102647499514355 
890	 0.102833438614637 
891	 0.102056489595881 
892	 0.101797157561121 
893	 0.101729804612294 
894	 0.101806275215682 
895	 0.102474778256583 
896	 0.102734207853492 
897	 0.10150135438359 
898	 0.101075600392512 
899	 0.101746708249839 
900	 0.102941324907101 
901	 0.103519072155674 
902	 0.103113893793634 
903	 0.10229116854088 
904	 0.101666664606132 
905	 0.101590119387703 
906	 0.100546881813284 
907	 9.96199756544238E-02 
908	 0.1010694025987 
909	 0.102672248279002 
910	 0.103691625838386 
911	 0.104216853506518 
912	 0.104401188013904 
913	 0.104368139051159 
914	 0.104177220111685 
915	 0.103826647968624 
916	 0.103318353503352 
917	 0.103333031200037 
918	 0.103645529877615 
919	 0.103284340192248 
920	 0.10273317327193 
921	 0.102301761107802 
922	 0.102741560292144 
923	 0.102589726808824 
924	 0.10089582323582 
925	 0.103075668102033 
926	 0.106359697191771 
927	 0.102597946244412 
928	 0.101343876657825 
929	 0.104198577971557 
930	 0.100558456458155 
931	 9.81611334038177E-02 
932	 0.102763545141557 
933	 0.105238766400001 
934	 0.105760337742131 
935	 0.106728218866325 
936	 0.10407365689408 
937	 9.95717239671744E-02 
938	 9.90536381051225E-02 
939	 0.102803598828424 
940	 0.108383342102271 
941	 0.106627723562964 
942	 0.103396233372049 
943	 0.10282716237383 
944	 9.75040390537758E-02 
945	 9.36194751882718E-02 
946	 0.10226975555062 
947	 0.108553097229571 
948	 0.108493152807897 
949	 0.102316007427046 
950	 0.102478434903884 
951	 0.11064229021071 
952	 0.104257060590152 
953	 9.53441485422127E-02 
954	 9.60642143170816E-02 
955	 0.100092258379622 
956	 0.102851157335866 
957	 9.79563901561925E-02 
958	 0.100147174323669 
959	 0.108833076884501 
960	 0.109191776889391 
961	 0.109393682131037 
962	 0.11183592166912 
963	 0.106506676493798 
964	 0.102398507304577 
965	 0.108081801491581 
966	 0.110385772721634 
967	 0.107531007373366 
968	 0.100036646169187 
969	 0.098282325380304 
970	 0.102049851507695 
971	 9.79215028535422E-02 
972	 9.64692351963538E-02 
973	 0.102384338240171 
974	 0.104920003092707 
975	 0.104756720513781 
976	 0.103974324279335 
977	 0.104503892450019 
978	 0.105696326762409 
979	 0.105181161648368 
980	 0.103962987627564 
981	 0.103181391728763 
982	 0.105990915590015 
983	 0.107000463079452 
984	 0.104563837976509 
985	 0.108404567417638 
986	 0.11237864959269 
987	 0.109513476694213 
988	 0.104733528674954 
989	 0.10147596170428 
990	 0.104729407007247 
991	 0.104442777671608 
992	 0.10019164112891 
993	 0.1015005222233 
994	 0.104478778252802 
995	 0.106739771107812 
996	 0.107365720213412 
997	 0.105703729585505 
998	 0.10185546887495 
999	 0.102220265137663 
1000	 0.10345533419657 
1001	 9.78480325136254E-02 
1002	 9.74983313588905E-02 
1003	 0.102399465171651 
1004	 0.100986599399825 
1005	 0.102406691298272 
1006	 0.108022003727481 
1007	 0.105736437390268 
1008	 0.102034203695439 
1009	 0.102443176022474 
1010	 0.105119114798847 
1011	 0.105844765186157 
1012	 9.95570461904531E-02 
1013	 9.75834262056696E-02 
1014	 0.101014216206268 
1015	 0.105465023431355 
1016	 0.111342557281547 
1017	 0.116007632953982 
1018	 0.109671210396884 
1019	 0.104676517654138 
1020	 0.106884201653987 
1021	 0.103441110516422 
1022	 0.10025853696422 
1023	 0.103600688968614 
1024	 0.102984165712344 
1025	 0.103833938067272 
1026	 0.117305114716163 
1027	 0.120290528921149 
1028	 0.11166844271265 
1029	 0.105862476000641 
1030	 9.83413856286143E-02 
1031	 9.00777929464536E-02 
1032	 8.69614417730401E-02 
1033	 9.18919663846602E-02 
1034	 0.104111944107613 
1035	 0.107346670201448 
1036	 0.108232273570305 
1037	 0.114836441361201 
1038	 0.116492226805558 
1039	 0.11306398720579 
1040	 0.107635509232762 
1041	 0.101269578265407 
1042	 9.92651777131372E-02 
1043	 0.116611314274284 
1044	 0.124914894265652 
1045	 0.116724437405669 
1046	 0.112654170068662 
1047	 0.101942114833615 
1048	 8.46319850445351E-02 
1049	 0.098977046549153 
1050	 0.112984547235193 
1051	 9.57761796057992E-02 
1052	 8.58925061064298E-02 
1053	 9.21125589132243E-02 
1054	 0.11427869211953 
1055	 0.113736398048464 
1056	 0.101180110769834 
1057	 0.126288440796217 
1058	 0.127949681520109 
1059	 0.101501353378555 
1060	 0.102454528200158 
1061	 0.111601183192368 
1062	 0.117108003776338 
1063	 0.107019642384958 
1064	 9.72293086398222E-02 
1065	 0.099374577280015 
1066	 0.10085271180373 
1067	 9.62141948717549E-02 
1068	 8.13739706872443E-02 
1069	 6.38012642127789E-02 
1070	 6.47253804152156E-02 
1071	 0.10898776777885 
1072	 0.132203115570705 
1073	 0.129294248343601 
1074	 0.115365978985804 
1075	 0.126863729816643 
