Wavelength	SHSI00281.asd
325	 7.57537803524627E-02 
326	 7.29081055120419E-02 
327	 7.36809792605985E-02 
328	 8.16053152482467E-02 
329	 8.70767313578103E-02 
330	 8.68429182965803E-02 
331	 8.52927974119051E-02 
332	 8.49822623802956E-02 
333	 8.75350104488628E-02 
334	 8.33777241606217E-02 
335	 0.078059540186029 
336	 8.90614133322619E-02 
337	 9.28662901429535E-02 
338	 8.48647369564169E-02 
339	 7.86659024782818E-02 
340	 7.76257478978797E-02 
341	 8.28907612661681E-02 
342	 8.45887773966307E-02 
343	 8.44780653240459E-02 
344	 0.089397307706301 
345	 9.07106746642284E-02 
346	 8.77580343456095E-02 
347	 8.65837011813699E-02 
348	 8.75820785510784E-02 
349	 9.02424377205287E-02 
350	 0.089449566603929 
351	 8.75735590126745E-02 
352	 8.94286075837549E-02 
353	 8.95155116869749E-02 
354	 8.74301042135378E-02 
355	 8.64130366675166E-02 
356	 8.77038955546031E-02 
357	 9.14345124839331E-02 
358	 9.29625044786475E-02 
359	 9.22707621270644E-02 
360	 9.03481304525489E-02 
361	 8.89062050339805E-02 
362	 8.83155891814989E-02 
363	 8.77349985319127E-02 
364	 8.75251033225359E-02 
365	 8.77794317006398E-02 
366	 8.76980858932412E-02 
367	 8.82249192543845E-02 
368	 0.090737019871159 
369	 9.12490324691573E-02 
370	 8.98382484921754E-02 
371	 0.089921301620846 
372	 9.14384970195903E-02 
373	 9.37748141145257E-02 
374	 9.31279722003796E-02 
375	 0.09077555946348 
376	 8.90667688077164E-02 
377	 8.63260201794989E-02 
378	 8.37704428121494E-02 
379	 8.61994680401088E-02 
380	 8.87455113151457E-02 
381	 8.87570384512503E-02 
382	 0.087430792996849 
383	 8.59329147436987E-02 
384	 8.56245942542095E-02 
385	 8.74904020749656E-02 
386	 8.97212022599585E-02 
387	 8.67150954796893E-02 
388	 8.36510118167752E-02 
389	 8.28594094510488E-02 
390	 8.27744203016403E-02 
391	 8.37016652591693E-02 
392	 8.60593286138546E-02 
393	 8.68428249099239E-02 
394	 8.53309064077153E-02 
395	 8.14823588340332E-02 
396	 7.91904559011504E-02 
397	 7.95251858352569E-02 
398	 7.90532721971773E-02 
399	 7.81102005065737E-02 
400	 7.73338930844543E-02 
401	 7.72449977724784E-02 
402	 7.78939443681758E-02 
403	 0.079403342963599 
404	 0.079945054600939 
405	 7.91979626675067E-02 
406	 8.04677439117081E-02 
407	 8.21846838361365E-02 
408	 8.21204203214317E-02 
409	 8.07659503062018E-02 
410	 7.90691259061239E-02 
411	 7.91624696010701E-02 
412	 8.00431428364661E-02 
413	 8.08821242211131E-02 
414	 7.97411809484613E-02 
415	 7.84638215604281E-02 
416	 7.96221211115019E-02 
417	 7.96402791670518E-02 
418	 7.85444559063589E-02 
419	 0.079171336932735 
420	 7.96036019835735E-02 
421	 0.079018067370068 
422	 7.93614213963116E-02 
423	 8.01001474074278E-02 
424	 8.01922214668351E-02 
425	 0.079305465618685 
426	 7.80712066656887E-02 
427	 7.90491697751492E-02 
428	 8.02637033176943E-02 
429	 8.03662647824943E-02 
430	 8.00178271888068E-02 
431	 0.079304768926112 
432	 7.82098508396442E-02 
433	 7.79065350099363E-02 
434	 7.82250564775563E-02 
435	 7.71875098326778E-02 
436	 7.67602544072607E-02 
437	 0.078069779514704 
438	 7.85953837021029E-02 
439	 0.078422987473006 
440	 7.83954291497437E-02 
441	 7.85202855801701E-02 
442	 7.87433536095302E-02 
443	 7.86167247539703E-02 
444	 7.86988129591762E-02 
445	 7.93656052597654E-02 
446	 0.079421972781173 
447	 7.90567573841594E-02 
448	 7.90711348922662E-02 
449	 0.079565118001843 
450	 8.03336199591767E-02 
451	 8.00009739800316E-02 
452	 7.98535474930857E-02 
453	 8.11364547749074E-02 
454	 8.14542107050267E-02 
455	 8.09187215923844E-02 
456	 8.11692013773198E-02 
457	 8.15189481090838E-02 
458	 8.16818765346996E-02 
459	 8.15161867016814E-02 
460	 8.13501571736601E-02 
461	 8.15741208383889E-02 
462	 8.16448730589267E-02 
463	 8.16394380919332E-02 
464	 8.22337504960315E-02 
465	 8.26096413672291E-02 
466	 8.24194698829015E-02 
467	 8.25420993935061E-02 
468	 8.26721486345374E-02 
469	 8.22298849845415E-02 
470	 8.18933906675353E-02 
471	 8.19607266901158E-02 
472	 0.082803502780153 
473	 8.34408136240908E-02 
474	 8.33120745789495E-02 
475	 8.34296187513522E-02 
476	 8.36221296224744E-02 
477	 8.33421411528618E-02 
478	 8.30701830492676E-02 
479	 8.30373607444222E-02 
480	 0.083533351699971 
481	 8.40169412317619E-02 
482	 8.40806984528984E-02 
483	 8.43790727673469E-02 
484	 8.48683423362905E-02 
485	 8.52604685010555E-02 
486	 8.50646771614484E-02 
487	 8.42749729857831E-02 
488	 8.38974607059039E-02 
489	 8.38359820925306E-02 
490	 8.39035266822363E-02 
491	 8.40257203077861E-02 
492	 8.41161244419369E-02 
493	 8.39447648847933E-02 
494	 8.42258440940962E-02 
495	 8.51165523274408E-02 
496	 8.54937681488474E-02 
497	 0.085641920275983 
498	 8.60686622390949E-02 
499	 8.67817514178722E-02 
500	 8.74317273764576E-02 
501	 8.68390098747673E-02 
502	 8.62323760202338E-02 
503	 0.086360075055441 
504	 8.66601004704564E-02 
505	 8.70113273536099E-02 
506	 8.73121785546327E-02 
507	 8.79289591770641E-02 
508	 8.88705895654936E-02 
509	 8.97534013808396E-02 
510	 9.05711878585472E-02 
511	 9.12883203965976E-02 
512	 9.13808860937733E-02 
513	 9.13700436823496E-02 
514	 0.092709951766061 
515	 9.37454022976699E-02 
516	 9.39638706358746E-02 
517	 9.42578728600858E-02 
518	 9.44323144104803E-02 
519	 9.42419747781056E-02 
520	 9.40359720668762E-02 
521	 9.42201818438074E-02 
522	 9.57000505850374E-02 
523	 0.096957306304231 
524	 9.73878607758472E-02 
525	 9.81732193562576E-02 
526	 9.90339031525127E-02 
527	 9.93991644021354E-02 
528	 9.97502511616331E-02 
529	 0.100252337751143 
530	 0.100986191646696 
531	 0.101892250913591 
532	 0.102828128401171 
533	 0.102899749652101 
534	 0.102621828821942 
535	 0.103236095734815 
536	 0.103887673157932 
537	 0.104420078457828 
538	 0.105365449992575 
539	 0.106342918305096 
540	 0.106944695957705 
541	 0.106974457172964 
542	 0.106775291608585 
543	 0.107267684841425 
544	 0.108098365132643 
545	 0.109005158578191 
546	 0.109320648528698 
547	 0.109467947719743 
548	 0.110077169515101 
549	 0.110571192649091 
550	 0.110886270748365 
551	 0.111293637847142 
552	 0.111712150863472 
553	 0.112091641621367 
554	 0.112422971930487 
555	 0.112817718189649 
556	 0.113498822833196 
557	 0.114085141656499 
558	 0.114430883986022 
559	 0.114546614224441 
560	 0.114654414568996 
561	 0.114954148066554 
562	 0.11526010197402 
563	 0.115611538366297 
564	 0.116284593930438 
565	 0.116524391500203 
566	 0.116189151494656 
567	 0.116507691486615 
568	 0.11712583039116 
569	 0.117448926367771 
570	 0.117308363164786 
571	 0.116844381459414 
572	 0.116647861549848 
573	 0.116787224318207 
574	 0.117271237978739 
575	 0.117734500803865 
576	 0.118063949448333 
577	 0.118160936687287 
578	 0.118415678160516 
579	 0.118795322648814 
580	 0.118546964018972 
581	 0.118309704057115 
582	 0.118641360713689 
583	 0.118933493807968 
584	 0.119043116642001 
585	 0.118821521268016 
586	 0.119029916762298 
587	 0.119796134131107 
588	 0.119719263017928 
589	 0.119424604974064 
590	 0.119886272814462 
591	 0.119893307051389 
592	 0.119478259930481 
593	 0.119689204384757 
594	 0.119840658324829 
595	 0.119640580393386 
596	 0.120114564152952 
597	 0.120912262815825 
598	 0.121247988041354 
599	 0.12092920653 
600	 0.120252687688237 
601	 0.120893467532874 
602	 0.121416771615431 
603	 0.120640829165452 
604	 0.120838356254254 
605	 0.12179472613984 
606	 0.122001832662543 
607	 0.121750271813054 
608	 0.121220362487854 
609	 0.121090874302333 
610	 0.121034596637444 
611	 0.120562699693686 
612	 0.120639851009033 
613	 0.121050899910109 
614	 0.120259514222894 
615	 0.119638787149172 
616	 0.11988037583374 
617	 0.119176573859301 
618	 0.118313109525769 
619	 0.119058255749075 
620	 0.119621809380873 
621	 0.119547551814578 
622	 0.11940419842475 
623	 0.119259635419059 
624	 0.119178552881073 
625	 0.119335604749328 
626	 0.119609495517376 
627	 0.119560333153327 
628	 0.119778970429913 
629	 0.120387786639131 
630	 0.120701021476748 
631	 0.120610712883717 
632	 0.12008181949459 
633	 0.119844619518456 
634	 0.120038165985425 
635	 0.12047649233641 
636	 0.120613635618069 
637	 0.120233679897925 
638	 0.120528535438737 
639	 0.12112336585714 
640	 0.121052490929508 
641	 0.121235185987022 
642	 0.121682762699912 
643	 0.121210088495008 
644	 0.120734509563127 
645	 0.121037239230418 
646	 0.120933647602999 
647	 0.120593179710629 
648	 0.121095533224378 
649	 0.121410320445638 
650	 0.121115254721775 
651	 0.120286780455524 
652	 0.119790626689609 
653	 0.120604808953052 
654	 0.120776529591022 
655	 0.119938591430004 
656	 0.118789776781019 
657	 0.117422142158168 
658	 0.116116618462385 
659	 0.115720561698015 
660	 0.115577413702956 
661	 0.114558759879494 
662	 0.113226771834446 
663	 0.111819742249311 
664	 0.110643246414786 
665	 0.109587098483297 
666	 0.108553841473793 
667	 0.107678200970643 
668	 0.106969397196428 
669	 0.106428066385596 
670	 0.10571034754525 
671	 0.104881178193448 
672	 0.10511453276374 
673	 0.105498071592503 
674	 0.10491695489033 
675	 0.104673579762244 
676	 0.104953273805733 
677	 0.105392415182783 
678	 0.105789620719845 
679	 0.10610412536136 
680	 0.107018657008852 
681	 0.10810855363287 
682	 0.108562193429749 
683	 0.109688320413864 
684	 0.111623027756751 
685	 0.113469892982218 
686	 0.115219386031422 
687	 0.116917360683198 
688	 0.119821879941739 
689	 0.123176765691879 
690	 0.125417825094009 
691	 0.127993046184533 
692	 0.131326197293318 
693	 0.134904316513562 
694	 0.13840553904307 
695	 0.141384025131024 
696	 0.144210819592314 
697	 0.147067469785934 
698	 0.150372825597984 
699	 0.153362180796139 
700	 0.155735830834867 
701	 0.158557456943516 
702	 0.161578833836324 
703	 0.164325106807477 
704	 0.166517250869534 
705	 0.168344627270578 
706	 0.170587397387028 
707	 0.172846093226031 
708	 0.174871630948009 
709	 0.176963484139723 
710	 0.179044255984492 
711	 0.180886670518824 
712	 0.182729338319109 
713	 0.18459506379756 
714	 0.186386074872365 
715	 0.18764672066619 
716	 0.188075590462942 
717	 0.189187081921598 
718	 0.191028952398396 
719	 0.192220707830925 
720	 0.193336123929857 
721	 0.194498589685228 
722	 0.195587189192838 
723	 0.196975668582927 
724	 0.198994896868564 
725	 0.200150066799972 
726	 0.200430033413018 
727	 0.201282184475894 
728	 0.202160669692944 
729	 0.202925659840799 
730	 0.204421057491544 
731	 0.205899102194455 
732	 0.206244952808846 
733	 0.207080151557811 
734	 0.208533030711365 
735	 0.209729504968855 
736	 0.210529251264246 
737	 0.210888250521778 
738	 0.211655043537381 
739	 0.212798880596643 
740	 0.214040028921818 
741	 0.21490696168119 
742	 0.215361931070698 
743	 0.216044782422815 
744	 0.216693564579402 
745	 0.217095647711621 
746	 0.217564625654186 
747	 0.218246525507114 
748	 0.21943549092951 
749	 0.220206845300003 
750	 0.220375619786199 
751	 0.221021290076473 
752	 0.221906432326074 
753	 0.222679908835142 
754	 0.223009238383971 
755	 0.223140583308974 
756	 0.224229657501231 
757	 0.223952775202855 
758	 0.221618906967143 
759	 0.221364168209073 
760	 0.223976393814257 
761	 0.227705036914054 
762	 0.228844738661161 
763	 0.228248386955412 
764	 0.230577357802677 
765	 0.232516427326516 
766	 0.232964438679159 
767	 0.233103290644233 
768	 0.233203955517356 
769	 0.233420769491376 
770	 0.233764245579124 
771	 0.234240655731092 
772	 0.234767670913051 
773	 0.235606172179673 
774	 0.23682116011928 
775	 0.237350682765098 
776	 0.237658535272339 
777	 0.238909850135862 
778	 0.239581469967572 
779	 0.239554494895223 
780	 0.240358474024709 
781	 0.241284767267509 
782	 0.241752059561937 
783	 0.242122894197227 
784	 0.242568894330305 
785	 0.243365224150726 
786	 0.243843017174425 
787	 0.243901086371778 
788	 0.244135475006917 
789	 0.244834299948049 
790	 0.246147738986219 
791	 0.246871660567003 
792	 0.247125491186294 
793	 0.247850356056496 
794	 0.248208984361545 
795	 0.248232221978513 
796	 0.24963256863317 
797	 0.25076301628251 
798	 0.250035609036314 
799	 0.250320586419972 
800	 0.25164987003391 
801	 0.252582795219848 
802	 0.253113707344188 
803	 0.253361167700633 
804	 0.254456084516915 
805	 0.255335934409322 
806	 0.254874188449875 
807	 0.255334367080051 
808	 0.256550673353352 
809	 0.25664147647456 
810	 0.256720110447533 
811	 0.257192521649394 
812	 0.257561625425234 
813	 0.257740371163234 
814	 0.257674609814042 
815	 0.25782814514739 
816	 0.258715299600765 
817	 0.261442680336593 
818	 0.263804502129073 
819	 0.264636548928463 
820	 0.26383336198901 
821	 0.263535473205697 
822	 0.266141172735296 
823	 0.268368315910768 
824	 0.269109359202423 
825	 0.267681924458556 
826	 0.267451954382733 
827	 0.269428293139157 
828	 0.269860348512381 
829	 0.269426474257086 
830	 0.269424019312353 
831	 0.270515834229477 
832	 0.272345377858023 
833	 0.273465960618545 
834	 0.274308640507602 
835	 0.274960398097118 
836	 0.274883782272787 
837	 0.275099467245585 
838	 0.276715921636258 
839	 0.277678637583569 
840	 0.277829120482714 
841	 0.278083646923712 
842	 0.278178901793048 
843	 0.278201789832056 
844	 0.279173629248828 
845	 0.279853362553574 
846	 0.278873734505997 
847	 0.278727966660896 
848	 0.279495923646674 
849	 0.279892778510047 
850	 0.279721726879785 
851	 0.279222930297148 
852	 0.280334440046178 
853	 0.282429876233824 
854	 0.284575838740386 
855	 0.286144452289187 
856	 0.28659587348779 
857	 0.284888029347823 
858	 0.284424858254219 
859	 0.285873961404291 
860	 0.285719152441773 
861	 0.285290077655284 
862	 0.285957041139647 
863	 0.286247300778143 
864	 0.286289732102527 
865	 0.286898472103099 
866	 0.288353156960318 
867	 0.290248460915252 
868	 0.290246904302428 
869	 0.290436746203145 
870	 0.292402328843004 
871	 0.293520126347484 
872	 0.29388486818058 
873	 0.29449558579141 
874	 0.294711127819047 
875	 0.294833999528576 
876	 0.29660592742723 
877	 0.298816902014115 
878	 0.300461856176777 
879	 0.300748683032456 
880	 0.301046252125606 
881	 0.303734709533832 
882	 0.305743783005728 
883	 0.306294847319271 
884	 0.305755397767163 
885	 0.305894397600315 
886	 0.307501048215546 
887	 0.308313375537172 
888	 0.308287247067587 
889	 0.307748152628733 
890	 0.307931125665154 
891	 0.308414708434091 
892	 0.306572682082594 
893	 0.305913128189894 
894	 0.307879825125424 
895	 0.309641999772642 
896	 0.311641469716358 
897	 0.3144892983422 
898	 0.31584368215356 
899	 0.316105308894725 
900	 0.317698927264136 
901	 0.318963235635795 
902	 0.319375053115118 
903	 0.319177524095974 
904	 0.318743383284498 
905	 0.318490159927099 
906	 0.319430769822572 
907	 0.320890405057498 
908	 0.321414708696566 
909	 0.320888683636878 
910	 0.320058912951871 
911	 0.322032757167182 
912	 0.323180009353773 
913	 0.322055096084131 
914	 0.323915437288815 
915	 0.327020688462741 
916	 0.328567953738068 
917	 0.329141208118824 
918	 0.328886111781625 
919	 0.32802005009224 
920	 0.326843205124854 
921	 0.325560969137066 
922	 0.324046922127326 
923	 0.323839641875821 
924	 0.3257939304759 
925	 0.323816465611945 
926	 0.318813277953846 
927	 0.314942029434894 
928	 0.315427567282414 
929	 0.320469108815756 
930	 0.323238473472357 
931	 0.32206628648618 
932	 0.31715124259372 
933	 0.32499729284479 
934	 0.336624218141609 
935	 0.335063526605683 
936	 0.33224795303739 
937	 0.329327342054049 
938	 0.320938023924073 
939	 0.315846717524911 
940	 0.316890603056155 
941	 0.324005509596186 
942	 0.327644968537252 
943	 0.321843614267275 
944	 0.319221172815044 
945	 0.320078073669054 
946	 0.32192591606956 
947	 0.322452525930273 
948	 0.321432424510621 
949	 0.320985239724108 
950	 0.319844389263933 
951	 0.318050422791859 
952	 0.318228112016553 
953	 0.32079176309225 
954	 0.325252110906181 
955	 0.323625525552387 
956	 0.320676265596353 
957	 0.327098834159012 
958	 0.33303131761505 
959	 0.334267996594025 
960	 0.32534360177806 
961	 0.323519883680431 
962	 0.333230064083521 
963	 0.328649386679359 
964	 0.324015995831138 
965	 0.333483605566593 
966	 0.336336783992973 
967	 0.33064147763229 
968	 0.319144594796549 
969	 0.317338044554527 
970	 0.325401531979106 
971	 0.325915323293171 
972	 0.324967944891641 
973	 0.3264537334543 
974	 0.333024694736418 
975	 0.337611453590327 
976	 0.332875232141132 
977	 0.332469580680734 
978	 0.335394044251563 
979	 0.333762262650974 
980	 0.33171794125518 
981	 0.331033277901439 
982	 0.33318706291489 
983	 0.336345679660566 
984	 0.338918013817353 
985	 0.338755392507667 
986	 0.337672401288462 
987	 0.337912200411018 
988	 0.340214126408518 
989	 0.341959828722159 
990	 0.3375390231962 
991	 0.338202533692387 
992	 0.343461671352134 
993	 0.338608412401973 
994	 0.337168454598872 
995	 0.343956891491598 
996	 0.345600727365456 
997	 0.340224073513849 
998	 0.328682310768454 
999	 0.329775713582554 
1000	 0.339566305340796 
1001	 0.345487149539254 
1002	 0.34566617308796 
1003	 0.342395320437723 
1004	 0.346050731722285 
1005	 0.351187001021062 
1006	 0.35361875205733 
1007	 0.344062758318453 
1008	 0.339987620244265 
1009	 0.352208366498929 
1010	 0.348860951023122 
1011	 0.340842155694157 
1012	 0.348798893081706 
1013	 0.353875005974778 
1014	 0.35342972360221 
1015	 0.350737378561029 
1016	 0.346694290261227 
1017	 0.343266131298242 
1018	 0.344773945919875 
1019	 0.351806857617104 
1020	 0.36223485431211 
1021	 0.363627086642621 
1022	 0.356300017809771 
1023	 0.344231298948177 
1024	 0.350367424298402 
1025	 0.36421249946667 
1026	 0.362397082790705 
1027	 0.353471657275816 
1028	 0.34281639959916 
1029	 0.340597056803448 
1030	 0.336329428530772 
1031	 0.332790348733224 
1032	 0.360070893013214 
1033	 0.382018724880803 
1034	 0.375481088195902 
1035	 0.358300931453628 
1036	 0.340616624739305 
1037	 0.33379913230345 
1038	 0.348540734727945 
1039	 0.369046531349256 
1040	 0.366238360608522 
1041	 0.350667197858521 
1042	 0.333317761987017 
1043	 0.337812513932346 
1044	 0.350933165951787 
1045	 0.364706993807119 
1046	 0.370585519378532 
1047	 0.358269000125654 
1048	 0.328145751188731 
1049	 0.316086678349885 
1050	 0.326050115559297 
1051	 0.35236411665573 
1052	 0.349438765288486 
1053	 0.335050815529753 
1054	 0.34755205919486 
1055	 0.348247769759645 
1056	 0.341099332872953 
1057	 0.355449581337693 
1058	 0.349706248209083 
1059	 0.327886503509228 
1060	 0.348067264991048 
1061	 0.369776434118717 
1062	 0.372109774589879 
1063	 0.362225630316783 
1064	 0.341752120354076 
1065	 0.317408513201639 
1066	 0.329967614865048 
1067	 0.358946139478058 
1068	 0.377213992493194 
1069	 0.348883760671843 
1070	 0.311045721585253 
1071	 0.327908170229972 
1072	 0.353948049657619 
1073	 0.360796106986063 
1074	 0.323810580358401 
1075	 0.306760703183197 
