Wavelength	SHSI00001.asd
325	 5.95469753520957E-02 
326	 6.08100554711061E-02 
327	 6.35124873867344E-02 
328	 5.46156442898157E-02 
329	 4.90968013007799E-02 
330	 5.18164590822119E-02 
331	 5.44072223375172E-02 
332	 5.75992366678877E-02 
333	 6.23405252160634E-02 
334	 6.42899288434224E-02 
335	 6.17081598970911E-02 
336	 5.04714002186159E-02 
337	 0.049462178772959 
338	 5.99575477729522E-02 
339	 5.91448749685577E-02 
340	 5.48281824617086E-02 
341	 0.054063858902962 
342	 5.23038829431023E-02 
343	 0.051190791569912 
344	 5.53172720148126E-02 
345	 5.45641699583986E-02 
346	 0.049607590488462 
347	 5.43813752607034E-02 
348	 5.76582401740398E-02 
349	 5.27747053362964E-02 
350	 5.04309227197506E-02 
351	 5.15796695278258E-02 
352	 5.57035009730067E-02 
353	 5.70983541332242E-02 
354	 5.55038017042392E-02 
355	 5.59794654624933E-02 
356	 5.68583502868577E-02 
357	 0.057001438851892 
358	 5.60663277427675E-02 
359	 0.05480872871799 
360	 5.43674068515209E-02 
361	 5.53452865703856E-02 
362	 5.69232322319341E-02 
363	 5.60442484530252E-02 
364	 5.54631262189298E-02 
365	 5.63233081789732E-02 
366	 5.58517883359766E-02 
367	 5.45546862002129E-02 
368	 5.34338516318434E-02 
369	 5.39568376116497E-02 
370	 5.54319450503568E-02 
371	 5.39148835209867E-02 
372	 5.45606512402705E-02 
373	 5.88084914536827E-02 
374	 5.60347856356016E-02 
375	 5.13097782505612E-02 
376	 5.29382718363101E-02 
377	 5.43659629937293E-02 
378	 5.44873580894751E-02 
379	 5.48791207069333E-02 
380	 5.50003920641792E-02 
381	 5.47351960475128E-02 
382	 5.51730027857935E-02 
383	 5.52152312630589E-02 
384	 5.33463921620728E-02 
385	 5.36901488415628E-02 
386	 5.55634571862878E-02 
387	 5.37866389340439E-02 
388	 5.27583488774992E-02 
389	 5.38527899730573E-02 
390	 5.26469746054742E-02 
391	 5.13124894800963E-02 
392	 5.27258345386986E-02 
393	 5.29823322346627E-02 
394	 0.052092697415431 
395	 5.27581757294767E-02 
396	 5.26237242462383E-02 
397	 5.09672754543975E-02 
398	 4.91064524583925E-02 
399	 4.83542463994972E-02 
400	 4.96875702868364E-02 
401	 4.99767769941281E-02 
402	 4.91963317192637E-02 
403	 4.86915380352455E-02 
404	 4.87354564866347E-02 
405	 4.93544923862014E-02 
406	 4.98438018742086E-02 
407	 4.98599259380419E-02 
408	 4.91115758717996E-02 
409	 4.89693744768809E-02 
410	 4.93815705656851E-02 
411	 4.91924610576283E-02 
412	 0.049160985395746 
413	 4.95799595012248E-02 
414	 5.00700953643223E-02 
415	 5.01074203108321E-02 
416	 4.90998043213441E-02 
417	 4.84023392859024E-02 
418	 4.82629941497624E-02 
419	 4.83513410199092E-02 
420	 4.82223452550074E-02 
421	 4.77136725878423E-02 
422	 4.74882388807182E-02 
423	 4.77977208041634E-02 
424	 4.89001992301802E-02 
425	 4.93336738416114E-02 
426	 4.88898111096895E-02 
427	 0.048274400432034 
428	 4.82075226249361E-02 
429	 4.89983690857432E-02 
430	 4.90698176626907E-02 
431	 4.85192317331493E-02 
432	 4.78709717969883E-02 
433	 4.77285838716093E-02 
434	 4.80273983728546E-02 
435	 4.78416669818688E-02 
436	 4.75542164750626E-02 
437	 4.74831531259651E-02 
438	 4.80361209764821E-02 
439	 4.87540846609139E-02 
440	 4.87232946940261E-02 
441	 4.84245628483373E-02 
442	 4.81255659243205E-02 
443	 4.82773496824066E-02 
444	 0.048540608450737 
445	 4.86360886134214E-02 
446	 0.048780051377829 
447	 4.90063285880839E-02 
448	 4.93450180165315E-02 
449	 4.95077711492082E-02 
450	 4.95210963655566E-02 
451	 5.00697422707166E-02 
452	 0.050626087839639 
453	 5.06375351932973E-02 
454	 5.03715063583521E-02 
455	 5.00274290375914E-02 
456	 4.99059595991118E-02 
457	 5.01918795941731E-02 
458	 5.08051115417734E-02 
459	 5.07486453939139E-02 
460	 5.06523306235176E-02 
461	 5.13360816790214E-02 
462	 5.18205362312844E-02 
463	 5.19934899394851E-02 
464	 5.23542009127629E-02 
465	 5.21000987455399E-02 
466	 5.10997510149775E-02 
467	 5.14869645132986E-02 
468	 5.23765005280604E-02 
469	 0.052134660445574 
470	 5.20469017821133E-02 
471	 5.23309301458276E-02 
472	 5.26282040203247E-02 
473	 5.26208062531188E-02 
474	 5.22245431366961E-02 
475	 0.052559019501158 
476	 5.31497076956022E-02 
477	 5.28928618984361E-02 
478	 0.052858291831098 
479	 5.31921340491403E-02 
480	 5.31286541475514E-02 
481	 5.30991873977181E-02 
482	 5.34438474827556E-02 
483	 5.37701753467611E-02 
484	 5.39143026759494E-02 
485	 5.36137982410574E-02 
486	 5.35681802629021E-02 
487	 5.39198550201284E-02 
488	 5.38619527524691E-02 
489	 5.37234007941683E-02 
490	 5.38830445089123E-02 
491	 5.42240882241111E-02 
492	 5.45189789206705E-02 
493	 0.054162022543538 
494	 5.40855697138027E-02 
495	 5.46394100398915E-02 
496	 5.51811524277471E-02 
497	 0.055660748451331 
498	 5.61024842798435E-02 
499	 5.63416716618963E-02 
500	 5.64346689240124E-02 
501	 5.66809627534991E-02 
502	 5.70504671905256E-02 
503	 5.74865689601724E-02 
504	 0.057635187664006 
505	 5.78875105618309E-02 
506	 0.059002540461689 
507	 5.95002454819004E-02 
508	 5.92818796773396E-02 
509	 0.059760490799032 
510	 0.060408823962695 
511	 0.060799408201116 
512	 6.13489448505821E-02 
513	 6.20406788403587E-02 
514	 6.27299410447855E-02 
515	 6.32119578127631E-02 
516	 6.34801333728384E-02 
517	 6.40271543940768E-02 
518	 6.45514350084882E-02 
519	 6.47169737879758E-02 
520	 6.52444561177039E-02 
521	 6.61546857148978E-02 
522	 6.71968771575761E-02 
523	 6.78567097689451E-02 
524	 6.80093993573286E-02 
525	 6.86354743532321E-02 
526	 6.94299128177034E-02 
527	 6.97994802798617E-02 
528	 7.04110475322799E-02 
529	 7.12480059125165E-02 
530	 7.16583513176002E-02 
531	 0.072178950268415 
532	 7.30972888290532E-02 
533	 7.35177479387584E-02 
534	 7.37314415353451E-02 
535	 7.45555309193202E-02 
536	 0.075423881464265 
537	 7.61714238791351E-02 
538	 7.69347646805207E-02 
539	 7.75020618324918E-02 
540	 7.76947763741434E-02 
541	 7.80969895172759E-02 
542	 7.87487023752343E-02 
543	 7.94157983674986E-02 
544	 8.01000435688138E-02 
545	 0.080770944847954 
546	 8.13330709091756E-02 
547	 8.18248299575653E-02 
548	 8.23060083211038E-02 
549	 8.27337974060125E-02 
550	 8.31411593651432E-02 
551	 8.35879654285147E-02 
552	 8.43602434175949E-02 
553	 8.55222219981876E-02 
554	 0.086041983833676 
555	 8.61352838756397E-02 
556	 8.64733303126202E-02 
557	 8.68917128043771E-02 
558	 8.73481695798263E-02 
559	 8.77845161396747E-02 
560	 8.81764086934681E-02 
561	 8.85075482841698E-02 
562	 8.88186261957399E-02 
563	 8.91405629534722E-02 
564	 8.95643000227049E-02 
565	 8.97957358608898E-02 
566	 8.97499398927062E-02 
567	 8.97481952785855E-02 
568	 8.97919714780032E-02 
569	 0.0898414413177 
570	 9.00422378677047E-02 
571	 9.03206346731561E-02 
572	 9.03370624339228E-02 
573	 9.02544232103742E-02 
574	 9.02135934183968E-02 
575	 9.05079595963802E-02 
576	 9.08540362691419E-02 
577	 9.06524914177973E-02 
578	 9.05177490748255E-02 
579	 9.06847777229303E-02 
580	 9.13129499437824E-02 
581	 9.16159683027704E-02 
582	 9.09850135163962E-02 
583	 9.08428308334229E-02 
584	 0.091190961092065 
585	 9.13166084203139E-02 
586	 0.091452930637378 
587	 9.16594869543462E-02 
588	 9.19062880172911E-02 
589	 9.19868627067228E-02 
590	 9.16486748109165E-02 
591	 9.16159085674741E-02 
592	 9.18871135517154E-02 
593	 9.18147557845371E-02 
594	 9.18244363147238E-02 
595	 9.21052811398657E-02 
596	 9.20356664400662E-02 
597	 9.19341575543951E-02 
598	 9.25139408411768E-02 
599	 9.29308846072947E-02 
600	 9.29739548257309E-02 
601	 9.30448417909967E-02 
602	 9.28420137635552E-02 
603	 0.092180549584482 
604	 9.23050309004159E-02 
605	 9.28957550157938E-02 
606	 9.25337112253238E-02 
607	 9.22891615531393E-02 
608	 9.24745545427581E-02 
609	 9.23778259972221E-02 
610	 9.19927859795848E-02 
611	 9.13998427104945E-02 
612	 9.07885991352527E-02 
613	 9.03624656792849E-02 
614	 9.05776611697948E-02 
615	 9.07030894929424E-02 
616	 9.03076707341337E-02 
617	 8.99227541881104E-02 
618	 0.089570505416606 
619	 8.91342294791195E-02 
620	 8.89125434318436E-02 
621	 8.89173423834524E-02 
622	 8.87386913112908E-02 
623	 8.87376380802997E-02 
624	 8.91941388461275E-02 
625	 0.089209733353032 
626	 8.88816562404593E-02 
627	 0.088913955696744 
628	 8.89807160273739E-02 
629	 8.90043875435545E-02 
630	 8.92530058343654E-02 
631	 0.089433481533238 
632	 8.91730539056867E-02 
633	 8.92167968573893E-02 
634	 8.95420118750441E-02 
635	 0.089425167752397 
636	 8.94419355496659E-02 
637	 8.98294694972769E-02 
638	 0.089569646883434 
639	 8.91125057569986E-02 
640	 8.94768400662771E-02 
641	 8.99910282913686E-02 
642	 9.04324088605422E-02 
643	 9.08717243773555E-02 
644	 9.10257893929915E-02 
645	 9.06926719353907E-02 
646	 9.06378789770438E-02 
647	 9.06969000853737E-02 
648	 8.99803406877625E-02 
649	 8.94597278509371E-02 
650	 0.089435700645578 
651	 8.91683931292972E-02 
652	 8.87817085216921E-02 
653	 8.84874007156414E-02 
654	 8.80074391509206E-02 
655	 8.72488288057637E-02 
656	 8.62379789028027E-02 
657	 8.52462432818565E-02 
658	 8.44528513044127E-02 
659	 8.34602616364421E-02 
660	 8.25215337237533E-02 
661	 8.21695945724905E-02 
662	 0.081422539829945 
663	 8.00314967890085E-02 
664	 7.83124509408266E-02 
665	 7.66083564918096E-02 
666	 7.52366885625192E-02 
667	 7.45226672387284E-02 
668	 7.40822868456751E-02 
669	 7.27721079559191E-02 
670	 7.19054275432713E-02 
671	 7.18284231656552E-02 
672	 7.15487605796237E-02 
673	 7.11948593245308E-02 
674	 7.10047534526553E-02 
675	 7.11199765472676E-02 
676	 7.13488909001201E-02 
677	 7.09572572239854E-02 
678	 7.07924396623985E-02 
679	 7.13433477802466E-02 
680	 7.25141231147018E-02 
681	 7.37933798305689E-02 
682	 7.44284014016166E-02 
683	 7.50666163184605E-02 
684	 7.60404284294925E-02 
685	 7.78849975013587E-02 
686	 8.00685295786777E-02 
687	 8.21357695779386E-02 
688	 8.48969138380689E-02 
689	 8.79344557011023E-02 
690	 9.06558693534839E-02 
691	 9.33723079641128E-02 
692	 9.62103979722276E-02 
693	 9.89240287044877E-02 
694	 0.101778939852681 
695	 0.1049263628044 
696	 0.107900095487824 
697	 0.110610675185008 
698	 0.113182620164045 
699	 0.115815936671796 
700	 0.118517103217141 
701	 0.120836446181161 
702	 0.122961810623733 
703	 0.125235327856889 
704	 0.127225927245318 
705	 0.128951459802782 
706	 0.130790200513653 
707	 0.132297696843738 
708	 0.133271786909143 
709	 0.13460600347692 
710	 0.136121302125461 
711	 0.137237197984998 
712	 0.138430619227078 
713	 0.139797192404915 
714	 0.141176142601989 
715	 0.142324218197441 
716	 0.143076272730803 
717	 0.14368567799242 
718	 0.144315759766592 
719	 0.145143115077936 
720	 0.145928612203107 
721	 0.146607547270294 
722	 0.147575856234942 
723	 0.148555584574616 
724	 0.149147139763906 
725	 0.149597053496279 
726	 0.149944426271791 
727	 0.150138275019048 
728	 0.150795661136838 
729	 0.152091808101741 
730	 0.1529304195111 
731	 0.153276547535952 
732	 0.153287018144146 
733	 0.153638090972036 
734	 0.154389472298728 
735	 0.155173276341024 
736	 0.155587557911998 
737	 0.155436684648566 
738	 0.155740012446667 
739	 0.156442840210014 
740	 0.157177603089931 
741	 0.157612897964936 
742	 0.157671837470559 
743	 0.157565680698664 
744	 0.157729633039792 
745	 0.158472588643226 
746	 0.158939929936367 
747	 0.159242141247623 
748	 0.160107482975356 
749	 0.160634874681137 
750	 0.160559459166448 
751	 0.160344516971964 
752	 0.160396559665122 
753	 0.161068010310072 
754	 0.161487184796543 
755	 0.161634200565543 
756	 0.162123961127758 
757	 0.162048109577644 
758	 0.161138543331022 
759	 0.160966441369027 
760	 0.161896030387705 
761	 0.163500953978985 
762	 0.163697286281555 
763	 0.163090773096951 
764	 0.164505731431472 
765	 0.165417720896236 
766	 0.165124758606663 
767	 0.164837453827036 
768	 0.164988314968338 
769	 0.166044307135431 
770	 0.166352170759269 
771	 0.165841502720836 
772	 0.165788839728709 
773	 0.166230354608604 
774	 0.16710606708472 
775	 0.167673400892979 
776	 0.167847526776248 
777	 0.167696187931446 
778	 0.167732728404206 
779	 0.168071038990118 
780	 0.168379415745088 
781	 0.168556030815531 
782	 0.168563296133658 
783	 0.168841258744994 
784	 0.169241135073408 
785	 0.169258549073213 
786	 0.169498407370929 
787	 0.170042513157329 
788	 0.170316322074216 
789	 0.170279354118303 
790	 0.169972521465242 
791	 0.170048863627253 
792	 0.170482654534752 
793	 0.170930749469654 
794	 0.171025787276679 
795	 0.170764458109644 
796	 0.170969197133621 
797	 0.171359545817483 
798	 0.17159613715412 
799	 0.171681583727496 
800	 0.171627586537814 
801	 0.171451395112854 
802	 0.17141605322769 
803	 0.171631294470319 
804	 0.171973106708378 
805	 0.172328536656357 
806	 0.172581352464876 
807	 0.172515179670289 
808	 0.172371384978647 
809	 0.172957373542097 
810	 0.173582851551182 
811	 0.173909599897835 
812	 0.173888909179392 
813	 0.17388488770202 
814	 0.174381784757216 
815	 0.175259424391309 
816	 0.176122161927213 
817	 0.175827047470653 
818	 0.176088246431348 
819	 0.177244828982424 
820	 0.176534196625853 
821	 0.175829371152053 
822	 0.177476514317797 
823	 0.178066413011929 
824	 0.177571280200307 
825	 0.178320344173002 
826	 0.178828105698835 
827	 0.178625652797882 
828	 0.178697529383127 
829	 0.178852407888511 
830	 0.178770306641318 
831	 0.179187194460372 
832	 0.179944844715297 
833	 0.180102580582104 
834	 0.18045691031513 
835	 0.181138072392776 
836	 0.180856944597272 
837	 0.180468418843639 
838	 0.181001624959527 
839	 0.180856791506426 
840	 0.180176647475356 
841	 0.180323213811917 
842	 0.180587888667184 
843	 0.180673570098467 
844	 0.180737424283906 
845	 0.180455827625683 
846	 0.179533279677636 
847	 0.179776175983445 
848	 0.180628756938031 
849	 0.179240774110413 
850	 0.178516119521937 
851	 0.179496987998381 
852	 0.180734164578367 
853	 0.181237334180139 
854	 0.18018646870145 
855	 0.179675501482595 
856	 0.179865610506071 
857	 0.179993664225823 
858	 0.180093904238902 
859	 0.180014125472616 
860	 0.179066997875564 
861	 0.178521757546981 
862	 0.179511489231653 
863	 0.180096527942182 
864	 0.180130917802506 
865	 0.180176951565398 
866	 0.180243848156008 
867	 0.180477367935526 
868	 0.18137695689786 
869	 0.182063519781987 
870	 0.181891766261433 
871	 0.181909850647808 
872	 0.182351809875559 
873	 0.183324241659662 
874	 0.184280468200451 
875	 0.18493259013482 
876	 0.18502638591789 
877	 0.185003818511125 
878	 0.185223643795652 
879	 0.185684528041266 
880	 0.186470719273516 
881	 0.187693004415194 
882	 0.188913340768418 
883	 0.18987530371 
884	 0.190317197780209 
885	 0.190410299440062 
886	 0.190354229779498 
887	 0.190693454724195 
888	 0.191090525109217 
889	 0.191027150943673 
890	 0.191132206868218 
891	 0.191667875187575 
892	 0.193029414343954 
893	 0.194022087216586 
894	 0.194173383214437 
895	 0.194611749441317 
896	 0.195387447386944 
897	 0.196395899722528 
898	 0.197071093441114 
899	 0.197470749702586 
900	 0.198059211815914 
901	 0.199119964656147 
902	 0.200277819229841 
903	 0.199757703686428 
904	 0.197880113118606 
905	 0.195433696590548 
906	 0.196624305259575 
907	 0.199654695343714 
908	 0.200184870375675 
909	 0.200549194369215 
910	 0.201165677360778 
911	 0.201363603175117 
912	 0.201471184873864 
913	 0.201539922142322 
914	 0.20034349834968 
915	 0.199732526052723 
916	 0.201971399611083 
917	 0.204754256622896 
918	 0.206260782366588 
919	 0.202927897731859 
920	 0.201233328962948 
921	 0.202959280803985 
922	 0.204104249607776 
923	 0.203626246306488 
924	 0.201054587060203 
925	 0.200778394431941 
926	 0.201817587256935 
927	 0.200281466994115 
928	 0.198886860331614 
929	 0.198472638392154 
930	 0.19838029127535 
931	 0.197799147916523 
932	 0.19660664020488 
933	 0.199563954078237 
934	 0.204481220902803 
935	 0.206475462870356 
936	 0.200010451028858 
937	 0.192735998085208 
938	 0.208049979321852 
939	 0.213437164914914 
940	 0.203299658218724 
941	 0.202850744986131 
942	 0.204358449944605 
943	 0.202134715916942 
944	 0.202166881790718 
945	 0.204065096532439 
946	 0.206133596432083 
947	 0.201777005799352 
948	 0.19404348309791 
949	 0.19768885932456 
950	 0.205035780729336 
951	 0.210490205501202 
952	 0.20563875023327 
953	 0.198655742227943 
954	 0.197361352162142 
955	 0.193484292977272 
956	 0.190396741974361 
957	 0.196208915524726 
958	 0.197476309065803 
959	 0.193253839608395 
960	 0.193050425080986 
961	 0.194223014441793 
962	 0.195540335558382 
963	 0.197484884376289 
964	 0.198842907106071 
965	 0.198559076193299 
966	 0.196574213886266 
967	 0.195434005690809 
968	 0.199889887964525 
969	 0.20380279053478 
970	 0.205074647563074 
971	 0.20376165913411 
972	 0.200274475430231 
973	 0.196895255556092 
974	 0.20584206401013 
975	 0.214086468226584 
976	 0.207158504253508 
977	 0.201581266008208 
978	 0.199883492231893 
979	 0.19991191820987 
980	 0.201390666186321 
981	 0.203915630793578 
982	 0.207636114549069 
983	 0.208010081397366 
984	 0.203406704606531 
985	 0.199206668085385 
986	 0.198689167664497 
987	 0.203986604537446 
988	 0.205083166220669 
989	 0.203449098365818 
990	 0.205923613501644 
991	 0.207660644167606 
992	 0.20738706942474 
993	 0.205678171037179 
994	 0.204658304681421 
995	 0.205060672674961 
996	 0.203834164128051 
997	 0.202822935973363 
998	 0.204056548993858 
999	 0.206535880135395 
1000	 0.208778956683557 
1001	 0.208554391294948 
1002	 0.206847092149708 
1003	 0.205741305352848 
1004	 0.211372531124949 
1005	 0.212422750170346 
1006	 0.20648887131258 
1007	 0.207399554439367 
1008	 0.207713665946988 
1009	 0.202921631416222 
1010	 0.210428810862224 
1011	 0.219982961887073 
1012	 0.215378712474763 
1013	 0.210826797849156 
1014	 0.210999723861557 
1015	 0.219779755905803 
1016	 0.219704769649081 
1017	 0.209463340924333 
1018	 0.208696721558654 
1019	 0.213827279243034 
1020	 0.220433765227893 
1021	 0.215975534754975 
1022	 0.209776323997161 
1023	 0.210895135790705 
1024	 0.205767842561803 
1025	 0.201881233164188 
1026	 0.214866471310533 
1027	 0.217277204026224 
1028	 0.208118685625538 
1029	 0.205278840477118 
1030	 0.20769050162493 
1031	 0.212570717354471 
1032	 0.206886044376759 
1033	 0.204070803486362 
1034	 0.210916574557831 
1035	 0.209525713702132 
1036	 0.211307031361288 
1037	 0.227357996174323 
1038	 0.225149507724471 
1039	 0.211810500825331 
1040	 0.20955330320442 
1041	 0.201828957768164 
1042	 0.19507505115979 
1043	 0.221263769872348 
1044	 0.23462763757928 
1045	 0.224854944395352 
1046	 0.224072337386992 
1047	 0.213662860860294 
1048	 0.187740914484028 
1049	 0.190269297105896 
1050	 0.202710229055538 
1051	 0.203630581169256 
1052	 0.211380176235866 
1053	 0.220918369401402 
1054	 0.223072538455532 
1055	 0.225120366887416 
1056	 0.218752906512077 
1057	 0.177400290052715 
1058	 0.168370788962075 
1059	 0.20334718162516 
1060	 0.228236096230642 
1061	 0.229707565923407 
1062	 0.208414265673897 
1063	 0.212908638404734 
1064	 0.22339232277156 
1065	 0.222412635955227 
1066	 0.20455912920566 
1067	 0.197765186102926 
1068	 0.227901231826534 
1069	 0.242196867029241 
1070	 0.235905474822202 
1071	 0.216281151179036 
1072	 0.21262082627884 
1073	 0.226177377456374 
1074	 0.24578953615239 
1075	 0.249891454586884 
