Wavelength	SHSI00163.asd
325	 6.45073685763598E-02 
326	 6.83241847589472E-02 
327	 0.060072893251388 
328	 6.11776237058889E-02 
329	 5.92112772631297E-02 
330	 5.14820177370884E-02 
331	 4.73584626530795E-02 
332	 4.91931280904358E-02 
333	 5.77986363640087E-02 
334	 6.03004997884908E-02 
335	 0.057342043102366 
336	 5.61458319775775E-02 
337	 5.54640012338899E-02 
338	 5.52551956362513E-02 
339	 5.58595366585603E-02 
340	 5.73261145190671E-02 
341	 5.92206088238826E-02 
342	 5.52480654570932E-02 
343	 5.13329463582824E-02 
344	 6.04904829885645E-02 
345	 0.066526162869853 
346	 6.57743657071939E-02 
347	 6.24471970232924E-02 
348	 5.91825219417504E-02 
349	 5.77628621962127E-02 
350	 5.72517909813522E-02 
351	 5.78174738692874E-02 
352	 6.02117064058198E-02 
353	 5.88722276313512E-02 
354	 5.50409414931816E-02 
355	 5.86833795549912E-02 
356	 6.23409757014939E-02 
357	 6.15753831620589E-02 
358	 6.08293933873362E-02 
359	 5.98705203730977E-02 
360	 5.74508724645527E-02 
361	 5.78971952272375E-02 
362	 6.04415962242529E-02 
363	 5.91400772774384E-02 
364	 5.74628459685753E-02 
365	 5.73668095398062E-02 
366	 5.82724459138806E-02 
367	 6.00248410361179E-02 
368	 6.24784810799982E-02 
369	 6.35148176664594E-02 
370	 6.30129021752486E-02 
371	 0.062157409193888 
372	 6.30427582978238E-02 
373	 0.065956273789624 
374	 6.44797122799012E-02 
375	 0.060760767858541 
376	 5.86794873979555E-02 
377	 5.84117396497052E-02 
378	 5.95322300762664E-02 
379	 6.03280711037886E-02 
380	 6.07897789366249E-02 
381	 6.10447726695323E-02 
382	 0.062863487800255 
383	 6.34605986670986E-02 
384	 5.91664520398988E-02 
385	 5.84672844270769E-02 
386	 6.09602599416871E-02 
387	 5.91422191759241E-02 
388	 5.69678514260673E-02 
389	 5.62760226690339E-02 
390	 5.67603619597554E-02 
391	 5.84189082938219E-02 
392	 6.11698797926694E-02 
393	 6.11619725679967E-02 
394	 5.87495371593053E-02 
395	 5.74853419854452E-02 
396	 0.057080543218789 
397	 5.70370968214284E-02 
398	 5.51856530335695E-02 
399	 5.37307330753936E-02 
400	 5.48548669677613E-02 
401	 5.48682822481846E-02 
402	 5.42913489828676E-02 
403	 5.63397532415824E-02 
404	 5.81129102362244E-02 
405	 5.84917931067695E-02 
406	 5.87910387637729E-02 
407	 5.89193573280244E-02 
408	 5.86357241057718E-02 
409	 5.74123451148737E-02 
410	 5.62575708281997E-02 
411	 5.84071459469878E-02 
412	 5.98192102946245E-02 
413	 5.88334058679545E-02 
414	 5.81720725713956E-02 
415	 5.79442766110534E-02 
416	 5.79186289801966E-02 
417	 5.80971365952021E-02 
418	 5.85366197120875E-02 
419	 5.96203496705031E-02 
420	 0.060083890136577 
421	 0.05935898889154 
422	 5.86441326599487E-02 
423	 5.83631191080802E-02 
424	 5.88831045452496E-02 
425	 5.92067986691824E-02 
426	 5.92096061114818E-02 
427	 5.95475857842793E-02 
428	 5.98049408700664E-02 
429	 0.059679114298483 
430	 5.90740993013936E-02 
431	 5.84678071098474E-02 
432	 0.058622181773994 
433	 5.88544670182394E-02 
434	 5.88858512443229E-02 
435	 0.058312751085775 
436	 5.83734202395196E-02 
437	 5.97068656550131E-02 
438	 6.01469494726662E-02 
439	 5.98826910487299E-02 
440	 5.98742169766264E-02 
441	 5.97104577375161E-02 
442	 5.94407857979682E-02 
443	 5.95891347479128E-02 
444	 0.059948132316502 
445	 6.03019423316574E-02 
446	 6.04063883025007E-02 
447	 6.02510057522072E-02 
448	 5.98426688328006E-02 
449	 5.98913469498047E-02 
450	 0.06051805534105 
451	 6.09152672455861E-02 
452	 6.12041381412211E-02 
453	 6.15472437212138E-02 
454	 6.18652262945573E-02 
455	 6.20163509486743E-02 
456	 6.16781630711918E-02 
457	 0.061195234981782 
458	 0.060804873149934 
459	 6.07362644625751E-02 
460	 6.11912652679386E-02 
461	 6.23260087774706E-02 
462	 6.22507000441331E-02 
463	 6.12392215082112E-02 
464	 6.15779423834665E-02 
465	 6.19450164327323E-02 
466	 6.17992788731212E-02 
467	 6.23873139643143E-02 
468	 6.28801060102919E-02 
469	 6.19204077173775E-02 
470	 6.11191829232032E-02 
471	 6.09090481511465E-02 
472	 6.10460020847024E-02 
473	 6.16050871982457E-02 
474	 6.24393796288308E-02 
475	 6.20954904414675E-02 
476	 6.13149692578084E-02 
477	 6.17316259778247E-02 
478	 6.21080582510953E-02 
479	 6.21814609002786E-02 
480	 6.23963233041717E-02 
481	 6.26663579134466E-02 
482	 6.29006861170512E-02 
483	 6.29224602724816E-02 
484	 6.28900888559694E-02 
485	 6.33283391015943E-02 
486	 6.32909723018183E-02 
487	 6.26093684889897E-02 
488	 6.24167724093404E-02 
489	 0.062142137530624 
490	 6.12289471636861E-02 
491	 6.16941631192925E-02 
492	 6.30152012776644E-02 
493	 6.27560629882088E-02 
494	 6.24382352773316E-02 
495	 6.26263105288938E-02 
496	 6.25186283571525E-02 
497	 6.25632069660294E-02 
498	 6.34129037102074E-02 
499	 6.38716452476493E-02 
500	 6.37803256459629E-02 
501	 6.37587645159252E-02 
502	 6.35943662648213E-02 
503	 6.32497817353855E-02 
504	 6.33462627313453E-02 
505	 6.36225320810057E-02 
506	 6.34983126256476E-02 
507	 6.36106952467002E-02 
508	 6.40900141478244E-02 
509	 6.46606646557599E-02 
510	 6.53893436532444E-02 
511	 6.62594088609692E-02 
512	 6.63747773444694E-02 
513	 6.62189367702363E-02 
514	 6.73128670562259E-02 
515	 6.82044003932433E-02 
516	 6.83811394692074E-02 
517	 6.82629722470292E-02 
518	 6.79089331383217E-02 
519	 0.067401186153597 
520	 6.75581975862378E-02 
521	 6.82031269012215E-02 
522	 6.83315200613093E-02 
523	 6.88225210200599E-02 
524	 6.99221791532213E-02 
525	 7.05144304486995E-02 
526	 7.07399448690381E-02 
527	 7.09821050312364E-02 
528	 7.08012313118845E-02 
529	 7.04712690221268E-02 
530	 7.11886551939771E-02 
531	 7.21014621310701E-02 
532	 7.25889979220081E-02 
533	 7.25659028252282E-02 
534	 7.23615860829493E-02 
535	 7.26316649408754E-02 
536	 7.29605722976211E-02 
537	 7.33156336010648E-02 
538	 7.41628491694914E-02 
539	 7.49403569166856E-02 
540	 7.50796042048424E-02 
541	 7.45447124741149E-02 
542	 0.073932723988043 
543	 7.48189083447766E-02 
544	 7.54864649164941E-02 
545	 0.075326643305378 
546	 0.075466953164565 
547	 7.57907803114571E-02 
548	 7.60128457729562E-02 
549	 7.61920095975302E-02 
550	 0.076350402506712 
551	 7.65598217116728E-02 
552	 7.66514555777769E-02 
553	 7.65995622161548E-02 
554	 7.71747077302738E-02 
555	 7.78934161944853E-02 
556	 7.76438530104358E-02 
557	 7.76799975079792E-02 
558	 7.81749285852379E-02 
559	 7.79632544121945E-02 
560	 0.077676042321352 
561	 7.79089779036329E-02 
562	 7.80606658176003E-02 
563	 7.81542572842587E-02 
564	 7.86602246919039E-02 
565	 7.85304266330542E-02 
566	 7.76255935301691E-02 
567	 7.79331195888488E-02 
568	 7.86653646878769E-02 
569	 7.85958490662633E-02 
570	 7.84990667885108E-02 
571	 7.84097936906171E-02 
572	 7.77547882286623E-02 
573	 0.077481449750285 
574	 7.80721612863809E-02 
575	 7.83666042519806E-02 
576	 7.83660860430775E-02 
577	 7.83729809182926E-02 
578	 7.85598067117035E-02 
579	 7.88762813453618E-02 
580	 7.87677930073419E-02 
581	 7.86927359726826E-02 
582	 7.90307149311525E-02 
583	 7.90175043248689E-02 
584	 7.87918597676707E-02 
585	 7.90987502171239E-02 
586	 7.92620371256618E-02 
587	 7.90766286735686E-02 
588	 7.90454172357318E-02 
589	 7.91704248189759E-02 
590	 7.93837347964136E-02 
591	 7.91885736256608E-02 
592	 7.87223512220547E-02 
593	 7.88280970489822E-02 
594	 7.88845741738508E-02 
595	 7.86080289518559E-02 
596	 7.87835194842716E-02 
597	 7.92476333452397E-02 
598	 7.95700552956946E-02 
599	 7.95367468066415E-02 
600	 7.92214439225942E-02 
601	 7.93432123104104E-02 
602	 7.94797359299047E-02 
603	 7.92757335438225E-02 
604	 7.94057446559476E-02 
605	 7.97730113424371E-02 
606	 7.98162467665407E-02 
607	 0.079922664533518 
608	 8.02089093462724E-02 
609	 8.04832741222023E-02 
610	 0.080577440892551 
611	 8.03146570263856E-02 
612	 8.00913354481081E-02 
613	 0.079957642493866 
614	 7.96441520087971E-02 
615	 7.95863386794726E-02 
616	 7.99338092619061E-02 
617	 7.95513319209364E-02 
618	 7.89985017268039E-02 
619	 7.95105940983118E-02 
620	 7.99240436238613E-02 
621	 7.99142791954006E-02 
622	 7.96960372063054E-02 
623	 7.95278971156945E-02 
624	 7.96336509700198E-02 
625	 0.079808092524673 
626	 0.080002512804741 
627	 8.01876561416378E-02 
628	 8.04741695276865E-02 
629	 8.08805447548686E-02 
630	 8.13721685175306E-02 
631	 8.14026748104256E-02 
632	 8.03445966365412E-02 
633	 7.99067857618103E-02 
634	 8.02946647199948E-02 
635	 8.07181340638127E-02 
636	 8.08178060673339E-02 
637	 8.04275027813349E-02 
638	 8.02482362215346E-02 
639	 8.03223640862824E-02 
640	 8.05636872583194E-02 
641	 8.05527429048758E-02 
642	 8.02262859524388E-02 
643	 7.99831183019369E-02 
644	 7.98693404009247E-02 
645	 7.98809273892125E-02 
646	 7.94692366882623E-02 
647	 0.079006765539141 
648	 7.98337486577196E-02 
649	 8.02528186958803E-02 
650	 7.97111000536405E-02 
651	 0.079320534326645 
652	 7.91989394501062E-02 
653	 7.93644820965852E-02 
654	 7.98443027583803E-02 
655	 8.02730205366869E-02 
656	 7.94279012829951E-02 
657	 7.83017444349617E-02 
658	 7.76548003612049E-02 
659	 7.77662529835893E-02 
660	 7.82231689436675E-02 
661	 7.83788796719655E-02 
662	 7.81346377952139E-02 
663	 7.76177147516077E-02 
664	 7.76057922443518E-02 
665	 0.077594372493528 
666	 7.71702455060682E-02 
667	 7.68354584341921E-02 
668	 7.66942293389334E-02 
669	 7.67687756116083E-02 
670	 7.68880561646724E-02 
671	 7.70123943842597E-02 
672	 7.74403019928615E-02 
673	 7.76086630985127E-02 
674	 7.69010387998973E-02 
675	 7.70986438390729E-02 
676	 7.80590478131462E-02 
677	 7.80952836435752E-02 
678	 7.77887191625263E-02 
679	 7.75471649120273E-02 
680	 7.79851670209187E-02 
681	 7.88080729961991E-02 
682	 7.94333696051017E-02 
683	 7.99553102952367E-02 
684	 8.05028953372259E-02 
685	 8.15595215530501E-02 
686	 8.29092717679418E-02 
687	 8.43159862289865E-02 
688	 8.56564273787665E-02 
689	 8.68159280068802E-02 
690	 8.78193660093821E-02 
691	 8.95650578301719E-02 
692	 9.21757141152268E-02 
693	 9.46202046278802E-02 
694	 9.66471741160411E-02 
695	 9.80136018086732E-02 
696	 9.95391814999421E-02 
697	 0.101527295394125 
698	 0.104459246077422 
699	 0.106884773640655 
700	 0.108282111145586 
701	 0.110771475833494 
702	 0.113577431977343 
703	 0.115348616691478 
704	 0.117050487088978 
705	 0.118971311860134 
706	 0.121204493805016 
707	 0.12326372510801 
708	 0.124811710783133 
709	 0.125886472933032 
710	 0.127102095237032 
711	 0.12955085170634 
712	 0.131941153994997 
713	 0.133775435063021 
714	 0.134943235311205 
715	 0.135979141719641 
716	 0.137475861591981 
717	 0.139471558834524 
718	 0.141764966567957 
719	 0.143471991000527 
720	 0.14399812546266 
721	 0.143750603226378 
722	 0.145238846602326 
723	 0.147360103883362 
724	 0.148695243007067 
725	 0.149910131705397 
726	 0.151084294715066 
727	 0.152401618184108 
728	 0.153535020368602 
729	 0.154382753267401 
730	 0.155553862825578 
731	 0.156582727645977 
732	 0.156757157546222 
733	 0.15738553548252 
734	 0.15858329225365 
735	 0.15966266738788 
736	 0.160439237901101 
737	 0.160843394825418 
738	 0.161751569293215 
739	 0.163015793244698 
740	 0.16413320168501 
741	 0.165030944077792 
742	 0.16564812152112 
743	 0.165912106276063 
744	 0.166345234858143 
745	 0.167335900630239 
746	 0.167915902944509 
747	 0.168343431010163 
748	 0.169680155383972 
749	 0.170969402795401 
750	 0.171859383906352 
751	 0.172567763477794 
752	 0.1731603651614 
753	 0.173699247583986 
754	 0.174105583377207 
755	 0.174573946726691 
756	 0.175852740032806 
757	 0.17613505436968 
758	 0.174929136573952 
759	 0.17568694328764 
760	 0.179176207771752 
761	 0.182685996050869 
762	 0.183866899844756 
763	 0.183465052419116 
764	 0.184540699645766 
765	 0.185739999826979 
766	 0.186466589093813 
767	 0.186563902007546 
768	 0.186526635660152 
769	 0.186884150813545 
770	 0.187352267866046 
771	 0.187938245572793 
772	 0.18884284119565 
773	 0.18993988524177 
774	 0.19109946914589 
775	 0.192064376216606 
776	 0.192741679225041 
777	 0.193042617164417 
778	 0.193577813977792 
779	 0.194549230041117 
780	 0.195868614072715 
781	 0.197077598524402 
782	 0.197811529777468 
783	 0.198250584002918 
784	 0.198708300176982 
785	 0.199751238603059 
786	 0.200853261555121 
787	 0.201780277757742 
788	 0.202305312520871 
789	 0.202904704585552 
790	 0.203988918791419 
791	 0.204767982752177 
792	 0.205425147176993 
793	 0.20683277667664 
794	 0.207835138118547 
795	 0.208203797691811 
796	 0.209096983351881 
797	 0.209928184557103 
798	 0.210116860083942 
799	 0.210951855150366 
800	 0.212354418187336 
801	 0.213429218916164 
802	 0.214282677129347 
803	 0.215014485010247 
804	 0.216204858732443 
805	 0.217220420414707 
806	 0.217403294967648 
807	 0.218074192750915 
808	 0.219282391953995 
809	 0.220344559751321 
810	 0.221374065067411 
811	 0.222232678822066 
812	 0.221939639309222 
813	 0.221713582323157 
814	 0.223231823669749 
815	 0.225107138339213 
816	 0.227008971690468 
817	 0.229247490242643 
818	 0.230896233609804 
819	 0.231472158796017 
820	 0.230639300006593 
821	 0.230602270540259 
822	 0.233837688947381 
823	 0.236334791571288 
824	 0.237121135900984 
825	 0.236517140487567 
826	 0.236804596985455 
827	 0.238725611715069 
828	 0.239690611361872 
829	 0.240130836736903 
830	 0.240884485189038 
831	 0.24221935751999 
832	 0.244000647920217 
833	 0.245811627145441 
834	 0.24668790950479 
835	 0.246511851639388 
836	 0.247217017328664 
837	 0.248472930558215 
838	 0.249707805594654 
839	 0.25076406133964 
840	 0.251674620877461 
841	 0.252700985608235 
842	 0.253897933843452 
843	 0.255007041145452 
844	 0.254352146178755 
845	 0.253721970199956 
846	 0.255184392498427 
847	 0.256816799073587 
848	 0.257867489126316 
849	 0.257328443033588 
850	 0.257123341965855 
851	 0.258243280198152 
852	 0.260856764074883 
853	 0.263569027893734 
854	 0.264881986619616 
855	 0.265671656715231 
856	 0.26585654852713 
857	 0.264471270019847 
858	 0.26504380335843 
859	 0.267926913410511 
860	 0.268032010927756 
861	 0.267536585401885 
862	 0.268690975516133 
863	 0.269474318112819 
864	 0.270194111389652 
865	 0.272353973181541 
866	 0.274691893503434 
867	 0.27656341215129 
868	 0.277479095141338 
869	 0.278236257653385 
870	 0.279404709648146 
871	 0.279461673472472 
872	 0.278985191626498 
873	 0.279378254990013 
874	 0.281109235527064 
875	 0.283853743229093 
876	 0.28563753293539 
877	 0.286709740535485 
878	 0.287535847084941 
879	 0.290054327594204 
880	 0.293185679887026 
881	 0.294773070232873 
882	 0.296086516823056 
883	 0.297189420809408 
884	 0.297106759263593 
885	 0.297324043328013 
886	 0.298569304221762 
887	 0.299339521776838 
888	 0.300147180626255 
889	 0.301854898348037 
890	 0.303298994899472 
891	 0.303914234105473 
892	 0.302794227910744 
893	 0.302045193201494 
894	 0.302900994779786 
895	 0.305236720539628 
896	 0.308862978150317 
897	 0.313225014228802 
898	 0.314451448817256 
899	 0.31412652286157 
900	 0.31870360601854 
901	 0.321845452910805 
902	 0.321491990080492 
903	 0.318444003919156 
904	 0.317217670731485 
905	 0.32067875725486 
906	 0.321495801914541 
907	 0.321251220326723 
908	 0.324796777014485 
909	 0.326965126797229 
910	 0.326771150420715 
911	 0.326302785438157 
912	 0.327510658603459 
913	 0.331007919259118 
914	 0.332349146694842 
915	 0.33366884937744 
916	 0.337953399311269 
917	 0.339243310776608 
918	 0.33749849686951 
919	 0.336008614387399 
920	 0.334996156842983 
921	 0.334192286794416 
922	 0.330496019854958 
923	 0.329036567315976 
924	 0.333697256955 
925	 0.334034328801044 
926	 0.33043713050268 
927	 0.327763749414348 
928	 0.326404156075542 
929	 0.326902473777684 
930	 0.329156276882559 
931	 0.330784793925529 
932	 0.331152897832083 
933	 0.344606573349134 
934	 0.357493942095983 
935	 0.348070876229645 
936	 0.34233411124505 
937	 0.343851079967786 
938	 0.343333942647804 
939	 0.341908123941792 
940	 0.341095796064669 
941	 0.348011078422604 
942	 0.350202956173664 
943	 0.340039032199416 
944	 0.335753259874997 
945	 0.337573195961056 
946	 0.341507276557251 
947	 0.347048353889821 
948	 0.351287809134819 
949	 0.348033071831903 
950	 0.340173230643765 
951	 0.331809872906515 
952	 0.336201560571629 
953	 0.344535068246585 
954	 0.347916358617022 
955	 0.345643753387681 
956	 0.342873740306109 
957	 0.348938784242184 
958	 0.355073732331715 
959	 0.357138676406953 
960	 0.349215607544129 
961	 0.346645808932444 
962	 0.354599106650257 
963	 0.357786444756007 
964	 0.355435716619019 
965	 0.34865805867845 
966	 0.348831366583382 
967	 0.351295603557108 
968	 0.342305227565685 
969	 0.341393909476425 
970	 0.349472447841784 
971	 0.349108398415971 
972	 0.348258020156216 
973	 0.351472255380525 
974	 0.35816764076403 
975	 0.363333399428865 
976	 0.361874242623838 
977	 0.36048272346035 
978	 0.35989569722855 
979	 0.358525011866409 
980	 0.35807129647411 
981	 0.35910663042572 
982	 0.362075589091072 
983	 0.362145923954722 
984	 0.35875379871159 
985	 0.366279211813265 
986	 0.372455353985324 
987	 0.36415679376387 
988	 0.366204071904057 
989	 0.373448900320354 
990	 0.366280514355862 
991	 0.366870199573365 
992	 0.375432921626631 
993	 0.368900921610663 
994	 0.365060947353523 
995	 0.371319595607036 
996	 0.375448345103401 
997	 0.373761927488732 
998	 0.365087809527073 
999	 0.367534055348681 
1000	 0.377182302918525 
1001	 0.382025981269454 
1002	 0.37804985697264 
1003	 0.370103964896539 
1004	 0.378358166078313 
1005	 0.38444482757302 
1006	 0.381414144220305 
1007	 0.375675074975305 
1008	 0.373383525169086 
1009	 0.377777747625095 
1010	 0.374251561349299 
1011	 0.370766787667812 
1012	 0.380491182285531 
1013	 0.3852627546063 
1014	 0.385526804591015 
1015	 0.392879252288405 
1016	 0.388130652486124 
1017	 0.37268802911252 
1018	 0.37519361150809 
1019	 0.385719842003106 
1020	 0.396312466652173 
1021	 0.396740013079377 
1022	 0.393839551282592 
1023	 0.395114619075634 
1024	 0.392391232062896 
1025	 0.390755721129514 
1026	 0.400143130014379 
1027	 0.395265828482522 
1028	 0.378679223076034 
1029	 0.377910429200707 
1030	 0.38142545800028 
1031	 0.386261888254158 
1032	 0.395864078020103 
1033	 0.40191445874935 
1034	 0.400516021280033 
1035	 0.405153347882403 
1036	 0.4051204614487 
1037	 0.390258119450189 
1038	 0.396997505674284 
1039	 0.410317868002921 
1040	 0.394733302720636 
1041	 0.388230542314975 
1042	 0.395706838262903 
1043	 0.405148225539917 
1044	 0.412357993820513 
1045	 0.415186223804472 
1046	 0.418175879609748 
1047	 0.409223071370933 
1048	 0.386690338074496 
1049	 0.384665462451735 
1050	 0.394019655741763 
1051	 0.40094022176818 
1052	 0.400898984543306 
1053	 0.398682897928387 
1054	 0.402992304987774 
1055	 0.408887883240119 
1056	 0.414680613854475 
1057	 0.419004338576733 
1058	 0.402700274897128 
1059	 0.37406687572074 
1060	 0.377193726894371 
1061	 0.397390818573166 
1062	 0.419103359372139 
1063	 0.402397918729183 
1064	 0.384343120261455 
1065	 0.393087717915042 
1066	 0.415777448296044 
1067	 0.428850745837493 
1068	 0.412979711006143 
1069	 0.403400116353202 
1070	 0.398134231625643 
1071	 0.378895430110778 
1072	 0.361157990960071 
1073	 0.359235260270563 
1074	 0.388298989649155 
1075	 0.389815201105234 
