Wavelength	SHSI00247.asd
325	 0.108870962293891 
326	 0.113072856754089 
327	 0.11913740201547 
328	 0.114654721070355 
329	 0.111542412676775 
330	 0.112948167154025 
331	 0.109204064588074 
332	 0.105881178845873 
333	 0.108230885871876 
334	 0.106492550174691 
335	 0.103060884240224 
336	 0.107593722572471 
337	 0.110120220533517 
338	 0.108712205838064 
339	 0.110034208867451 
340	 0.109563809364551 
341	 0.104183518702905 
342	 0.102174171294193 
343	 0.104044802742374 
344	 0.108338648580136 
345	 0.112122104972974 
346	 0.113663618493071 
347	 0.110059628777095 
348	 0.108308263564948 
349	 0.112272680577209 
350	 0.113515637039751 
351	 0.112661384170606 
352	 0.112365839204583 
353	 0.112135267796617 
354	 0.112377726693132 
355	 0.114553156459897 
356	 0.117191249156122 
357	 0.119051522858447 
358	 0.118403355052009 
359	 0.116558120525004 
360	 0.115732722973815 
361	 0.114798164832975 
362	 0.113635989761116 
363	 0.112194127567166 
364	 0.112310814200928 
365	 0.114661410592311 
366	 0.117020471812788 
367	 0.119180820526765 
368	 0.121213204855654 
369	 0.120647873305534 
370	 0.118546578137412 
371	 0.120004900748999 
372	 0.123444643031901 
373	 0.12715190669607 
374	 0.126628321724636 
375	 0.123396200852647 
376	 0.120304688461821 
377	 0.118347901965582 
378	 0.118013200857193 
379	 0.119537147832303 
380	 0.12138807924615 
381	 0.122467026799356 
382	 0.122161038582886 
383	 0.121236231201953 
384	 0.120783444205558 
385	 0.120430077730597 
386	 0.119754569812621 
387	 0.117604083076523 
388	 0.115910129593278 
389	 0.115524379529426 
390	 0.11538497174011 
391	 0.116778869360414 
392	 0.121160754521739 
393	 0.122127226759281 
394	 0.119601619065295 
395	 0.117738164384839 
396	 0.116389481694554 
397	 0.115363003499145 
398	 0.113352930836858 
399	 0.112000398207165 
400	 0.112878419437165 
401	 0.113563476526337 
402	 0.113948998392916 
403	 0.11512792288739 
404	 0.115876618537102 
405	 0.115921725792008 
406	 0.116931126884132 
407	 0.118264588695488 
408	 0.118970903916193 
409	 0.117546141095505 
410	 0.115148856706988 
411	 0.115902085631726 
412	 0.116845566783794 
413	 0.116592607717353 
414	 0.11586607683417 
415	 0.115450549272322 
416	 0.116242746684897 
417	 0.116492467650467 
418	 0.116348202774274 
419	 0.117824038585561 
420	 0.118552403707794 
421	 0.117477002080256 
422	 0.116801812918043 
423	 0.116766314291857 
424	 0.117320640362897 
425	 0.117292408645848 
426	 0.116839331762961 
427	 0.117786137339176 
428	 0.118804793672654 
429	 0.11891966600601 
430	 0.118021084498188 
431	 0.116772607372857 
432	 0.116242027362239 
433	 0.115945372256044 
434	 0.115780233672305 
435	 0.115686932883304 
436	 0.116200809143251 
437	 0.117496525730319 
438	 0.117797190510931 
439	 0.117456459908994 
440	 0.117645976220616 
441	 0.117430691725458 
442	 0.116945569936789 
443	 0.117703034878719 
444	 0.118978042413096 
445	 0.120063061320957 
446	 0.120404745610753 
447	 0.120210896640127 
448	 0.120128961592024 
449	 0.120262985515018 
450	 0.120731939441247 
451	 0.121680657675422 
452	 0.122662775672398 
453	 0.123249315609733 
454	 0.124004761436954 
455	 0.124764842851052 
456	 0.124783484882114 
457	 0.124877924659762 
458	 0.125255678842397 
459	 0.124888124727891 
460	 0.124717859471567 
461	 0.125885469344633 
462	 0.125981351958069 
463	 0.125290257982017 
464	 0.12653606465807 
465	 0.127470413280618 
466	 0.127121343249446 
467	 0.127415967631774 
468	 0.128121355552264 
469	 0.128597497481813 
470	 0.128438172460349 
471	 0.127882460157872 
472	 0.128125644826526 
473	 0.128675958199277 
474	 0.129216861998974 
475	 0.130008288957921 
476	 0.13051547773382 
477	 0.129758439428745 
478	 0.129400993643596 
479	 0.129768899572858 
480	 0.129823505827801 
481	 0.130141712869223 
482	 0.131150299088289 
483	 0.131964842985336 
484	 0.13247487122645 
485	 0.132820519221586 
486	 0.133138478225332 
487	 0.133321553860019 
488	 0.132602038442241 
489	 0.131494720221243 
490	 0.1306370018197 
491	 0.131479435181251 
492	 0.133271943787054 
493	 0.133295371929402 
494	 0.133093346334199 
495	 0.133362884901996 
496	 0.134124842595253 
497	 0.135031839213913 
498	 0.135629384130225 
499	 0.136139167913307 
500	 0.136588406320107 
501	 0.136875708107107 
502	 0.137325888109847 
503	 0.138040491215009 
504	 0.138155309900545 
505	 0.138152442089509 
506	 0.138994414943721 
507	 0.139881099240036 
508	 0.140607496403619 
509	 0.141210230770565 
510	 0.142301008873378 
511	 0.1441998524272 
512	 0.144771530437009 
513	 0.144627040152214 
514	 0.146070375354479 
515	 0.147389042380484 
516	 0.148011276298726 
517	 0.14835733840358 
518	 0.148640026673255 
519	 0.149072424151633 
520	 0.150021210424816 
521	 0.151225764262098 
522	 0.151759716827392 
523	 0.152531448260097 
524	 0.153875516624877 
525	 0.155009573050569 
526	 0.156011839305716 
527	 0.157119193304566 
528	 0.157589872388858 
529	 0.15767354705029 
530	 0.158855545340529 
531	 0.160161517827139 
532	 0.160922443537848 
533	 0.161379663058274 
534	 0.161739570951908 
535	 0.162293530459915 
536	 0.163198313701258 
537	 0.164398611350765 
538	 0.165335967066747 
539	 0.166186802372085 
540	 0.167121422584033 
541	 0.167616132397555 
542	 0.167875498621326 
543	 0.168640956626949 
544	 0.169718187657245 
545	 0.17090811945802 
546	 0.171502011738131 
547	 0.171860050969283 
548	 0.17253744784437 
549	 0.172976127027315 
550	 0.173213566441271 
551	 0.173790173579904 
552	 0.174466240446112 
553	 0.175131267697515 
554	 0.176272913361959 
555	 0.177369343373541 
556	 0.177323939210843 
557	 0.177589595898727 
558	 0.178444101362776 
559	 0.178785917752923 
560	 0.179116602309773 
561	 0.179888492144626 
562	 0.180216327953717 
563	 0.180385203765143 
564	 0.181666245855301 
565	 0.182453874450125 
566	 0.182231381602108 
567	 0.182300049056881 
568	 0.182533150673235 
569	 0.182616906544523 
570	 0.182660414817598 
571	 0.182783720584001 
572	 0.183336034675702 
573	 0.183711953519805 
574	 0.183637146373106 
575	 0.184151321812111 
576	 0.184867447954425 
577	 0.184791191080061 
578	 0.185063953183936 
579	 0.18582170541828 
580	 0.186002779709388 
581	 0.186139612387895 
582	 0.186697055544066 
583	 0.186970628883458 
584	 0.187036179702467 
585	 0.187424727172576 
586	 0.18775330454116 
587	 0.187897780955016 
588	 0.188064087795154 
589	 0.188275935732846 
590	 0.188528766172353 
591	 0.188280377115895 
592	 0.187832508600522 
593	 0.188598542379747 
594	 0.189064696806183 
595	 0.188525982208918 
596	 0.188945476791822 
597	 0.190013919997479 
598	 0.190813691072848 
599	 0.190671142642884 
600	 0.18981032144393 
601	 0.190307513625471 
602	 0.191092391346284 
603	 0.191181396897546 
604	 0.191392279127536 
605	 0.191646406984553 
606	 0.191437750177121 
607	 0.19095268016901 
608	 0.190370567878701 
609	 0.19028812252598 
610	 0.190251610078034 
611	 0.189632166797487 
612	 0.189320971486673 
613	 0.189322455388125 
614	 0.188883779869631 
615	 0.188511212029539 
616	 0.188460930818298 
617	 0.1881089925157 
618	 0.187733124070863 
619	 0.187953021791108 
620	 0.188160777857761 
621	 0.188100198777565 
622	 0.187501962006672 
623	 0.187089359193661 
624	 0.187483846423266 
625	 0.187867026062398 
626	 0.188050059458201 
627	 0.18792431456893 
628	 0.188190980166841 
629	 0.188952116818883 
630	 0.188984138719305 
631	 0.188611514124694 
632	 0.188375723244203 
633	 0.18811968913159 
634	 0.188047532431553 
635	 0.188894391076524 
636	 0.189507747656383 
637	 0.189334099676057 
638	 0.189956676692252 
639	 0.190973315984353 
640	 0.191321236334923 
641	 0.191451182160231 
642	 0.191468558135378 
643	 0.191246768544878 
644	 0.191232781526876 
645	 0.191762859232765 
646	 0.191806986008508 
647	 0.191575855323567 
648	 0.192290941899957 
649	 0.192342344214928 
650	 0.191292749181277 
651	 0.190557184021778 
652	 0.19025018852653 
653	 0.19033652279733 
654	 0.190017294695769 
655	 0.188995891152829 
656	 0.18723701252865 
657	 0.185411367043897 
658	 0.18403585120727 
659	 0.183018100220279 
660	 0.181948923703832 
661	 0.180251261915162 
662	 0.178368655249561 
663	 0.176510843220502 
664	 0.174979118309899 
665	 0.173374296864581 
666	 0.171403564896745 
667	 0.169835452438341 
668	 0.168744761930153 
669	 0.168038081411586 
670	 0.166929830247518 
671	 0.165374459839508 
672	 0.165037577715601 
673	 0.165083994636822 
674	 0.164423940954044 
675	 0.164061975922708 
676	 0.16416969187461 
677	 0.164560561383699 
678	 0.165114033971519 
679	 0.165772698672938 
680	 0.166658784390932 
681	 0.167860388546543 
682	 0.169501147200115 
683	 0.171267426168874 
684	 0.173203878989638 
685	 0.175982818925934 
686	 0.179322292329092 
687	 0.182911457559719 
688	 0.186889592154285 
689	 0.190768229786069 
690	 0.194302627131482 
691	 0.198441102506986 
692	 0.203374331333227 
693	 0.208070920291586 
694	 0.212451904983096 
695	 0.216338040178557 
696	 0.220636397365233 
697	 0.225264870391076 
698	 0.229765178794125 
699	 0.233579271870041 
700	 0.236540105761197 
701	 0.240253067221228 
702	 0.244098629430484 
703	 0.247020086907775 
704	 0.249543630490042 
705	 0.251988496127203 
706	 0.25483749559988 
707	 0.257555716279191 
708	 0.259806335579713 
709	 0.26199540523295 
710	 0.264181873193719 
711	 0.26637063683655 
712	 0.268333664342895 
713	 0.269940857651273 
714	 0.270928461329597 
715	 0.272207112043144 
716	 0.274660029674356 
717	 0.276520919528497 
718	 0.277750523426739 
719	 0.279578748051976 
720	 0.280273793367443 
721	 0.279866806665851 
722	 0.281119658671224 
723	 0.283186139256518 
724	 0.284934904536833 
725	 0.286082512935439 
726	 0.28670646513215 
727	 0.287724516385264 
728	 0.288563276908782 
729	 0.289149265968815 
730	 0.290978343684137 
731	 0.29287387599084 
732	 0.29305872677937 
733	 0.293464155238599 
734	 0.294408369823487 
735	 0.295259433326767 
736	 0.296198984782971 
737	 0.297274801395997 
738	 0.298164023981169 
739	 0.298773027211099 
740	 0.298986681568794 
741	 0.299517455683199 
742	 0.300450089271541 
743	 0.301075281043424 
744	 0.301569769246463 
745	 0.302097596280694 
746	 0.30248717361575 
747	 0.302800460381626 
748	 0.303201153564192 
749	 0.303842924620901 
750	 0.304708995408761 
751	 0.305360604353955 
752	 0.305931730901305 
753	 0.306582122728997 
754	 0.306753107944562 
755	 0.306765287345235 
756	 0.308169012686489 
757	 0.307694166846559 
758	 0.304333537041442 
759	 0.303747535764552 
760	 0.306907802642747 
761	 0.311609364386424 
762	 0.313156570915104 
763	 0.312396405546347 
764	 0.314980214604047 
765	 0.316570088066694 
766	 0.316014992784161 
767	 0.315810977499026 
768	 0.315728791867624 
769	 0.315238551616142 
770	 0.31542304470537 
771	 0.316267486136369 
772	 0.316668289210683 
773	 0.317135707149847 
774	 0.317963483840678 
775	 0.318663175326287 
776	 0.319041475319692 
777	 0.318857937694186 
778	 0.31920147919046 
779	 0.320159220743109 
780	 0.32051711922296 
781	 0.320780461788139 
782	 0.321358793037561 
783	 0.321910954754657 
784	 0.322413927507299 
785	 0.322941223884432 
786	 0.323360887048599 
787	 0.323625374170514 
788	 0.323660324972092 
789	 0.323969274467916 
790	 0.324957459182883 
791	 0.325562274125797 
792	 0.325932574657364 
793	 0.327045241227357 
794	 0.327566414096695 
795	 0.32724655112947 
796	 0.327478599304642 
797	 0.327639494830457 
798	 0.327133456062371 
799	 0.327975535828372 
800	 0.329698557838209 
801	 0.329959965339176 
802	 0.33025784113271 
803	 0.331037401810903 
804	 0.331616548052213 
805	 0.331746806005962 
806	 0.331262926314379 
807	 0.330960396247147 
808	 0.331149231238406 
809	 0.332185812214494 
810	 0.333119668554101 
811	 0.333411158248778 
812	 0.332837392456539 
813	 0.332193903345171 
814	 0.332571426236976 
815	 0.333857009802797 
816	 0.335799405295642 
817	 0.337753017441497 
818	 0.339205604150483 
819	 0.339771408424917 
820	 0.338846399883443 
821	 0.33829003349785 
822	 0.340238568517788 
823	 0.342557609250841 
824	 0.343873911645287 
825	 0.342067779463222 
826	 0.340936111219471 
827	 0.341903967361699 
828	 0.342835685155705 
829	 0.343311337614797 
830	 0.343103771722622 
831	 0.343792917533586 
832	 0.345164863742189 
833	 0.345599092358656 
834	 0.345736140001699 
835	 0.345882490919249 
836	 0.346204628188261 
837	 0.346605984107532 
838	 0.346944889230115 
839	 0.346791847362876 
840	 0.346478874001652 
841	 0.347074184093368 
842	 0.348496528826971 
843	 0.350140704663206 
844	 0.348825802740955 
845	 0.347037137268459 
846	 0.347757679650521 
847	 0.348399030467747 
848	 0.348411270619344 
849	 0.347729853867622 
850	 0.347346221009941 
851	 0.347699419296592 
852	 0.348211520365109 
853	 0.349395789863954 
854	 0.351708016229624 
855	 0.353362193403419 
856	 0.353599300105288 
857	 0.351390474696456 
858	 0.350531487812688 
859	 0.351750467602482 
860	 0.351047240218683 
861	 0.349914839189318 
862	 0.349975430572783 
863	 0.350497472810196 
864	 0.351453881618438 
865	 0.353036315706413 
866	 0.354906052346469 
867	 0.356583438041227 
868	 0.356884591162928 
869	 0.356987004284954 
870	 0.357750890638526 
871	 0.35713260331391 
872	 0.356008620112334 
873	 0.356560043699437 
874	 0.357626559132872 
875	 0.358875114197729 
876	 0.360421818051636 
877	 0.361695254169869 
878	 0.362420789791094 
879	 0.363754812113217 
880	 0.365365753334455 
881	 0.366486304969103 
882	 0.367009669984168 
883	 0.366869106325664 
884	 0.365707095797131 
885	 0.366039281775997 
886	 0.368858434048884 
887	 0.370352036724979 
888	 0.370771027282459 
889	 0.371039436232125 
890	 0.368970675565941 
891	 0.365782266576943 
892	 0.366671073280653 
893	 0.36720539657369 
894	 0.366232573016185 
895	 0.370182729851174 
896	 0.375108287833711 
897	 0.375809658359009 
898	 0.376456141793908 
899	 0.378114017504861 
900	 0.38157627597914 
901	 0.381711452077318 
902	 0.378291551266324 
903	 0.378563036890195 
904	 0.37866284138504 
905	 0.376007525981128 
906	 0.376705997037087 
907	 0.379328423434624 
908	 0.379769515008256 
909	 0.378993995664754 
910	 0.378037830339225 
911	 0.379900163169295 
912	 0.382086971860896 
913	 0.383260318265599 
914	 0.384963358189482 
915	 0.387249041831349 
916	 0.389927822633716 
917	 0.391463411522512 
918	 0.390913951968791 
919	 0.386511912082576 
920	 0.383662892193679 
921	 0.38373020052109 
922	 0.382429101126173 
923	 0.380291741224849 
924	 0.3781668210881 
925	 0.378693224504905 
926	 0.380349993110372 
927	 0.378888708109181 
928	 0.375273487413203 
929	 0.371799181492408 
930	 0.378060861184014 
931	 0.385280428370537 
932	 0.386010399435152 
933	 0.388325492454876 
934	 0.392833470791723 
935	 0.398514704397937 
936	 0.397419403785462 
937	 0.389796454214636 
938	 0.380496157863957 
939	 0.377942203312367 
940	 0.38316120126127 
941	 0.388258613408421 
942	 0.389313608378685 
943	 0.384554439190332 
944	 0.383580057214209 
945	 0.385982542045532 
946	 0.388853245717818 
947	 0.386770838544058 
948	 0.381521114048546 
949	 0.384097535900553 
950	 0.385459953007223 
951	 0.382598960679333 
952	 0.381815500364437 
953	 0.38232484726141 
954	 0.382821146466278 
955	 0.381493393937353 
956	 0.379523966406557 
957	 0.379258915890829 
958	 0.384035771151517 
959	 0.390845803140014 
960	 0.386689660945527 
961	 0.385756272840512 
962	 0.392694849976658 
963	 0.393163778448032 
964	 0.390090137126978 
965	 0.387355769491686 
966	 0.385645391638719 
967	 0.384133645420378 
968	 0.380485826719385 
969	 0.379444410765371 
970	 0.380716222500752 
971	 0.377947394518495 
972	 0.376364791233987 
973	 0.379151220270103 
974	 0.387240083074326 
975	 0.393554131834611 
976	 0.390780478548252 
977	 0.388558185999719 
978	 0.388352669102608 
979	 0.388781438244538 
980	 0.390938434860136 
981	 0.393234775251421 
982	 0.388789972629415 
983	 0.3876771348451 
984	 0.393903443497442 
985	 0.396975143288242 
986	 0.39333807255809 
987	 0.381930736693158 
988	 0.387146091901187 
989	 0.400291784578118 
990	 0.395289909444044 
991	 0.387741754927142 
992	 0.384147928695604 
993	 0.392357439869214 
994	 0.396817971416026 
995	 0.390862096664955 
996	 0.386236531289198 
997	 0.384379262742768 
998	 0.385831744682596 
999	 0.39056937358514 
1000	 0.394627342761078 
1001	 0.391988946448823 
1002	 0.38957338832493 
1003	 0.390018959143192 
1004	 0.394713758733521 
1005	 0.401990753074979 
1006	 0.40769030238991 
1007	 0.396586918679246 
1008	 0.389642887779869 
1009	 0.400967855901684 
1010	 0.399536814995942 
1011	 0.392918138564453 
1012	 0.397055563936349 
1013	 0.39627498633875 
1014	 0.392346149141731 
1015	 0.397457687247758 
1016	 0.403014594573613 
1017	 0.404425695539772 
1018	 0.393555548901776 
1019	 0.390400963695952 
1020	 0.4031428645291 
1021	 0.40907792129967 
1022	 0.401301445700406 
1023	 0.379677005791315 
1024	 0.392562798335969 
1025	 0.4188599205179 
1026	 0.41131271260285 
1027	 0.404491016913556 
1028	 0.404001595734681 
1029	 0.400591680266935 
1030	 0.396185354904078 
1031	 0.393689739950252 
1032	 0.404854528189592 
1033	 0.410857192460361 
1034	 0.402141201271973 
1035	 0.400233732812463 
1036	 0.406771835564628 
1037	 0.419641406154969 
1038	 0.422144442292095 
1039	 0.416407625258618 
1040	 0.412003890891998 
1041	 0.40592377626447 
1042	 0.402992812761992 
1043	 0.421132508757735 
1044	 0.419138757063767 
1045	 0.394737548048381 
1046	 0.409928486028868 
1047	 0.418252193409981 
1048	 0.396219541985783 
1049	 0.39133665165436 
1050	 0.392040360926959 
1051	 0.385417754131122 
1052	 0.396893526214966 
1053	 0.416577458869044 
1054	 0.4210477162674 
1055	 0.408187762291689 
1056	 0.396198044126492 
1057	 0.433930654664324 
1058	 0.432611555838237 
1059	 0.384550464901578 
1060	 0.354641470389918 
1061	 0.369152070804991 
1062	 0.420895605304391 
1063	 0.38856937107773 
1064	 0.35453246358019 
1065	 0.376548063895695 
1066	 0.383649503726828 
1067	 0.382026200664141 
1068	 0.388590927557499 
1069	 0.422171559775877 
1070	 0.438756321502389 
1071	 0.368662555315756 
1072	 0.333461967952518 
1073	 0.360500473097734 
1074	 0.421456611109949 
1075	 0.415521110658026 
