Wavelength	SHSI00257.asd
325	 0.100910192190717 
326	 8.29112138856233E-02 
327	 0.07488867398136 
328	 8.67852384364911E-02 
329	 9.53566713483433E-02 
330	 9.23967338624317E-02 
331	 8.65663721999711E-02 
332	 0.084724152078658 
333	 9.17814020891172E-02 
334	 9.34928791890579E-02 
335	 9.14698502209834E-02 
336	 9.67163641940133E-02 
337	 0.095760313096872 
338	 8.76341965210892E-02 
339	 8.62036951819838E-02 
340	 8.99284484961743E-02 
341	 9.60304310178928E-02 
342	 9.50329028375608E-02 
343	 9.17201456221994E-02 
344	 9.80568627715841E-02 
345	 0.102635187957161 
346	 0.102561148314015 
347	 9.87652550638693E-02 
348	 9.71391659172634E-02 
349	 0.10046227017223 
350	 0.097751939570506 
351	 9.29990132781188E-02 
352	 0.094546356383966 
353	 9.53524373346686E-02 
354	 9.48126593082428E-02 
355	 9.71623350930918E-02 
356	 0.10023463439847 
357	 0.102505901563322 
358	 0.104106102240177 
359	 0.103343105380647 
360	 9.77141694178752E-02 
361	 9.67524295486242E-02 
362	 0.100473968249224 
363	 0.100713611720607 
364	 9.97898658587015E-02 
365	 9.92811493636957E-02 
366	 0.100850847839048 
367	 0.103519030583418 
368	 0.10570563177689 
369	 0.106735786037545 
370	 0.1067788426884 
371	 0.106802365850239 
372	 0.108470026609496 
373	 0.111694393034608 
374	 0.109392622166959 
375	 0.105193296417008 
376	 0.104965820339612 
377	 0.103874102031075 
378	 0.102283329023735 
379	 0.104955313152151 
380	 0.107199478636519 
381	 0.106668911569276 
382	 0.10572513982614 
383	 0.104836598503533 
384	 0.104287559726539 
385	 0.103364866253796 
386	 0.102165900644664 
387	 0.101277436569031 
388	 0.100935737429384 
389	 0.101003687752481 
390	 9.95558890243393E-02 
391	 9.95447473873053E-02 
392	 0.104414447083285 
393	 0.106482797947935 
394	 0.104613206021133 
395	 0.10081368119425 
396	 9.80552707814305E-02 
397	 9.71768807990892E-02 
398	 9.51494250731291E-02 
399	 9.30182891371295E-02 
400	 9.20042755036467E-02 
401	 9.27156742737295E-02 
402	 9.46879403765688E-02 
403	 9.67337028337403E-02 
404	 9.84483955052352E-02 
405	 9.95942581389595E-02 
406	 0.1002259357344 
407	 0.100342847398207 
408	 9.99514395285454E-02 
409	 9.88645843842247E-02 
410	 9.76130412335346E-02 
411	 9.75820868286877E-02 
412	 9.79218210441564E-02 
413	 0.098161020252437 
414	 0.098123976692332 
415	 9.81017343713847E-02 
416	 9.84975725293183E-02 
417	 9.84657432227992E-02 
418	 9.80755918164385E-02 
419	 0.098124558239096 
420	 9.84716761654986E-02 
421	 9.89248453569054E-02 
422	 9.87037672753576E-02 
423	 0.098229408093503 
424	 9.82257830088147E-02 
425	 9.84499519923188E-02 
426	 9.88030934200005E-02 
427	 9.91313067994952E-02 
428	 9.94715133529484E-02 
429	 9.97466307495654E-02 
430	 9.93624841657798E-02 
431	 9.84103671255048E-02 
432	 9.71595720173833E-02 
433	 9.62146880505503E-02 
434	 0.095921695754676 
435	 9.66381048197585E-02 
436	 9.78787819388462E-02 
437	 9.91378658843971E-02 
438	 9.91737061147208E-02 
439	 9.85179293969322E-02 
440	 9.84546717000771E-02 
441	 9.86305025599517E-02 
442	 9.88997858593951E-02 
443	 9.88793686188097E-02 
444	 9.91513063783649E-02 
445	 0.100110223024365 
446	 0.100573131102568 
447	 0.100637453675841 
448	 0.100976577766086 
449	 0.101337159715445 
450	 0.10165676694397 
451	 0.101871252870777 
452	 0.102426668971166 
453	 0.103708364466265 
454	 0.104600273474618 
455	 0.104875732482597 
456	 0.104605039775869 
457	 0.104349126253346 
458	 0.104354832841112 
459	 0.104255734484767 
460	 0.104352198399048 
461	 0.104996867057302 
462	 0.104909802317648 
463	 0.104456439746595 
464	 0.105758864911008 
465	 0.106836757760758 
466	 0.106754086759594 
467	 0.106848178648971 
468	 0.10702926977363 
469	 0.106963109774208 
470	 0.10644665129873 
471	 0.105840532912951 
472	 0.10646886534721 
473	 0.107478386736228 
474	 0.108203639038611 
475	 0.108125177736821 
476	 0.107595981872257 
477	 0.10733452958451 
478	 0.107431678763117 
479	 0.107850563671471 
480	 0.108224746255979 
481	 0.108432629075631 
482	 0.10844397457514 
483	 0.109027751139992 
484	 0.10988781159162 
485	 0.110010203704034 
486	 0.110003516058782 
487	 0.109933463362015 
488	 0.109044259125461 
489	 0.108119562994068 
490	 0.107967570112506 
491	 0.108254931381456 
492	 0.10872874985828 
493	 0.108884922616452 
494	 0.109296559350987 
495	 0.11005542421525 
496	 0.110124374645726 
497	 0.11012969775845 
498	 0.110991379031032 
499	 0.111925239488686 
500	 0.112653187118858 
501	 0.112997492575965 
502	 0.113213188964383 
503	 0.113432869433401 
504	 0.113312789682344 
505	 0.113182548461064 
506	 0.113600809667631 
507	 0.114426328313062 
508	 0.115503941363218 
509	 0.116387553508689 
510	 0.117284466831442 
511	 0.118320508442575 
512	 0.118816284997832 
513	 0.119116898625024 
514	 0.120280648203989 
515	 0.121463868124109 
516	 0.122284030695796 
517	 0.122546162429986 
518	 0.122553704655053 
519	 0.122674008118339 
520	 0.123199308007536 
521	 0.12408770776181 
522	 0.125082845499367 
523	 0.125910795540396 
524	 0.126565065875538 
525	 0.128064155157422 
526	 0.129476456101892 
527	 0.129345716890136 
528	 0.129473670647556 
529	 0.130215124751407 
530	 0.131008903147466 
531	 0.13187555392031 
532	 0.132808291399645 
533	 0.133746567338453 
534	 0.134438274606655 
535	 0.134376121769538 
536	 0.134675829645671 
537	 0.135608293165772 
538	 0.136469274989611 
539	 0.137401039881814 
540	 0.138511935323676 
541	 0.138746745345676 
542	 0.138493572507157 
543	 0.139297315639861 
544	 0.140266961191995 
545	 0.140990317172041 
546	 0.141311618674896 
547	 0.141586040424666 
548	 0.142289290893998 
549	 0.143026925820363 
550	 0.143645819968511 
551	 0.143998607737072 
552	 0.144273853861446 
553	 0.144667321050122 
554	 0.145716054920687 
555	 0.146935395941385 
556	 0.147316573464059 
557	 0.147587086112736 
558	 0.147889649217016 
559	 0.147687575534789 
560	 0.14789981922277 
561	 0.149263981871283 
562	 0.14984116954888 
563	 0.149781662337766 
564	 0.15053439482529 
565	 0.151034047068121 
566	 0.150954222874048 
567	 0.15103478277452 
568	 0.15120927188953 
569	 0.151307379858232 
570	 0.151280365506191 
571	 0.151168396401809 
572	 0.151076114161377 
573	 0.151371939260236 
574	 0.1521733418622 
575	 0.152420361328023 
576	 0.152408725268261 
577	 0.152965496906485 
578	 0.15346811768927 
579	 0.153711972906342 
580	 0.153654000437605 
581	 0.153797662683387 
582	 0.154536335846585 
583	 0.155022699734072 
584	 0.155184279779887 
585	 0.155249765021193 
586	 0.155371176263197 
587	 0.155597893295158 
588	 0.155715674470411 
589	 0.155651485840472 
590	 0.155350125243403 
591	 0.155448911098544 
592	 0.15582959394088 
593	 0.155569723806955 
594	 0.155344252385922 
595	 0.1555571850829 
596	 0.156016594778839 
597	 0.156588469650167 
598	 0.157124075403274 
599	 0.157311162636447 
600	 0.157134303961287 
601	 0.157059962866783 
602	 0.156911734861326 
603	 0.156581567252727 
604	 0.156928220130301 
605	 0.157674016864413 
606	 0.157797579930995 
607	 0.157586303859912 
608	 0.1571774667327 
609	 0.156869712396224 
610	 0.156587282052585 
611	 0.156193492094418 
612	 0.155919625916207 
613	 0.1557179367505 
614	 0.155232334125949 
615	 0.15478387462123 
616	 0.154557736062003 
617	 0.154320633243767 
618	 0.154040955311294 
619	 0.153696316291693 
620	 0.153597781803412 
621	 0.153745996835232 
622	 0.153690720842044 
623	 0.153653477569242 
624	 0.153822751482506 
625	 0.15378856027941 
626	 0.153604879432094 
627	 0.153563162583912 
628	 0.153768701766947 
629	 0.154215406330613 
630	 0.154605717554946 
631	 0.154629204675523 
632	 0.153968102406036 
633	 0.153709621696321 
634	 0.154008394320926 
635	 0.154419339372871 
636	 0.154619225977831 
637	 0.154490653331194 
638	 0.154871599833605 
639	 0.15555380369208 
640	 0.155990287895569 
641	 0.156185400320103 
642	 0.156106722882081 
643	 0.155621313831774 
644	 0.15559209203893 
645	 0.156656940821354 
646	 0.156787655760566 
647	 0.156133942377133 
648	 0.156180137576185 
649	 0.156151762684961 
650	 0.1557974083171 
651	 0.155322651508404 
652	 0.154902822207326 
653	 0.154714052461402 
654	 0.154339844145329 
655	 0.153484227937384 
656	 0.15170964951427 
657	 0.149736518614439 
658	 0.148165263162295 
659	 0.147132524021378 
660	 0.146355446476654 
661	 0.145451754533272 
662	 0.144045671895577 
663	 0.142196843658483 
664	 0.140760340502785 
665	 0.139311669263934 
666	 0.137519453697346 
667	 0.136121211264662 
668	 0.135057030019524 
669	 0.133848041505687 
670	 0.132602461480258 
671	 0.131528238534805 
672	 0.131610999944298 
673	 0.131834465941702 
674	 0.130980139661539 
675	 0.130137053501045 
676	 0.129799126192569 
677	 0.130630624715333 
678	 0.131635004147367 
679	 0.132247788787263 
680	 0.1327058253621 
681	 0.133376170330311 
682	 0.134775378639303 
683	 0.136618371207963 
684	 0.138718897498733 
685	 0.14079739777787 
686	 0.143278146261006 
687	 0.146474229351201 
688	 0.149751765081882 
689	 0.152904158252246 
690	 0.15648799454004 
691	 0.160259228317094 
692	 0.16417229897951 
693	 0.168061833108925 
694	 0.171912573349953 
695	 0.175546710484916 
696	 0.17901503748361 
697	 0.182473206393953 
698	 0.186473814906786 
699	 0.190257093666279 
700	 0.193398335243343 
701	 0.196264635857488 
702	 0.199028417079376 
703	 0.201892074802468 
704	 0.20453284805872 
705	 0.206820977162641 
706	 0.208404450820678 
707	 0.210245274916448 
708	 0.212838935059837 
709	 0.214805236094911 
710	 0.216213243961332 
711	 0.217521006796734 
712	 0.219061760006593 
713	 0.220831719016396 
714	 0.222225619139716 
715	 0.223426340471821 
716	 0.224680765028905 
717	 0.225734237181689 
718	 0.226771556684009 
719	 0.228387328400998 
720	 0.22964729304307 
721	 0.230248349724625 
722	 0.230739941905273 
723	 0.231457368324477 
724	 0.232689657579299 
725	 0.233559795545949 
726	 0.234082396093486 
727	 0.235237617816008 
728	 0.236266078524749 
729	 0.236878454497363 
730	 0.237890421034217 
731	 0.239003053306144 
732	 0.239688372647533 
733	 0.240557680554316 
734	 0.241637530118918 
735	 0.242560608416334 
736	 0.24312427591163 
737	 0.243270956550439 
738	 0.244029717904561 
739	 0.2450986431837 
740	 0.245612028200428 
741	 0.246312695529213 
742	 0.247215117846444 
743	 0.247510982167338 
744	 0.247458607984113 
745	 0.247335906681696 
746	 0.247376429640761 
747	 0.247749723831389 
748	 0.248752109047441 
749	 0.249651684007374 
750	 0.2501900157907 
751	 0.250752720607858 
752	 0.251297785490079 
753	 0.251738380218842 
754	 0.251530181722652 
755	 0.251165687857949 
756	 0.252677560964085 
757	 0.252238828713286 
758	 0.248608959091906 
759	 0.247858766171169 
760	 0.250863562048316 
761	 0.255238761300036 
762	 0.256824560068495 
763	 0.256110461654263 
764	 0.257451230847677 
765	 0.258905341813393 
766	 0.259629156792203 
767	 0.25936420742709 
768	 0.258874748781902 
769	 0.258978427627699 
770	 0.259376530740213 
771	 0.259884547552606 
772	 0.2599914974648 
773	 0.260356802791362 
774	 0.261347346182218 
775	 0.262099106958679 
776	 0.262524465670456 
777	 0.262737622243219 
778	 0.26272826561355 
779	 0.262632836438267 
780	 0.262858393492344 
781	 0.263378612251667 
782	 0.264111344593247 
783	 0.264551786229546 
784	 0.26484891540709 
785	 0.265570397467123 
786	 0.265841364173786 
787	 0.265524601335593 
788	 0.265374610004866 
789	 0.26563237874984 
790	 0.266429140974629 
791	 0.266898466759934 
792	 0.267160207372366 
793	 0.268001316597743 
794	 0.268516769063002 
795	 0.268551591588825 
796	 0.269129669055333 
797	 0.26954709359204 
798	 0.269117046592721 
799	 0.269125475253479 
800	 0.269761733233055 
801	 0.270892341064383 
802	 0.271579279094864 
803	 0.271557955033348 
804	 0.272011912481137 
805	 0.272184757309813 
806	 0.271280269405535 
807	 0.27170393970183 
808	 0.273047898045618 
809	 0.272568590868806 
810	 0.272678204760391 
811	 0.273961135629873 
812	 0.273181506280746 
813	 0.271921059791688 
814	 0.272607833943275 
815	 0.2740344233468 
816	 0.275801378357304 
817	 0.27782400174639 
818	 0.278514619100985 
819	 0.277555067312479 
820	 0.277184338799263 
821	 0.277780182545747 
822	 0.279534789303532 
823	 0.280986122351971 
824	 0.281360023665118 
825	 0.279715724089263 
826	 0.278863247972249 
827	 0.27982824278306 
828	 0.280837823806813 
829	 0.281081589968007 
830	 0.279906011496435 
831	 0.281130950838365 
832	 0.283985914695356 
833	 0.283842739985952 
834	 0.283187479340836 
835	 0.283172698827684 
836	 0.284086979256967 
837	 0.284814669736307 
838	 0.284147550489418 
839	 0.284354416787114 
840	 0.285475816220158 
841	 0.286248481508882 
842	 0.286758653377551 
843	 0.286887380142078 
844	 0.286085650195534 
845	 0.285237702545279 
846	 0.28533739739412 
847	 0.285504565915453 
848	 0.285555746411896 
849	 0.285592497543885 
850	 0.285096521080624 
851	 0.284322649321307 
852	 0.285838286922775 
853	 0.288076215514293 
854	 0.289084696416069 
855	 0.288778436332668 
856	 0.287628413386563 
857	 0.286614577968532 
858	 0.287086847998389 
859	 0.288909459331403 
860	 0.28877610924324 
861	 0.287562648386261 
862	 0.28640074021536 
863	 0.286228302207976 
864	 0.287337870543272 
865	 0.290035224203623 
866	 0.291515213008549 
867	 0.291020125746499 
868	 0.290551354316414 
869	 0.290650452572819 
870	 0.291555236693406 
871	 0.291644535274274 
872	 0.291367235086955 
873	 0.292112144279132 
874	 0.292552721839591 
875	 0.29260112818429 
876	 0.293649480401572 
877	 0.294325698651344 
878	 0.293957333167332 
879	 0.295348560235098 
880	 0.297906060881102 
881	 0.300105350714749 
882	 0.299970725922185 
883	 0.29808220975385 
884	 0.29823842395533 
885	 0.300427282319805 
886	 0.303873689434461 
887	 0.303538651668414 
888	 0.301230469802572 
889	 0.300101476886005 
890	 0.298144863903398 
891	 0.296022526381746 
892	 0.296781373035387 
893	 0.298195319315407 
894	 0.299417004383408 
895	 0.302400967110748 
896	 0.304550142785503 
897	 0.302945334412582 
898	 0.303594172989847 
899	 0.306920185469742 
900	 0.310658751571386 
901	 0.312416740792195 
902	 0.311177136898209 
903	 0.30697345455374 
904	 0.304135851127752 
905	 0.305615369660382 
906	 0.305904950353851 
907	 0.306455483838547 
908	 0.31150810774005 
909	 0.311748521048321 
910	 0.307017712423016 
911	 0.307853223417769 
912	 0.309812749880094 
913	 0.310367112832506 
914	 0.310702541261222 
915	 0.311574167462831 
916	 0.313685599457545 
917	 0.314196171069904 
918	 0.31327096225993 
919	 0.313237109869509 
920	 0.311964344201885 
921	 0.309558393490985 
922	 0.310164018544538 
923	 0.311024289394669 
924	 0.309556651493286 
925	 0.307329330328844 
926	 0.304400241465063 
927	 0.300183995584276 
928	 0.300165538812973 
929	 0.304816971864028 
930	 0.304862702387 
931	 0.303858397360023 
932	 0.30545934890581 
933	 0.313675321712472 
934	 0.322070160694111 
935	 0.320697048788693 
936	 0.31492812368083 
937	 0.30832036289203 
938	 0.305296387518978 
939	 0.300162364348169 
940	 0.294452745778547 
941	 0.301932327090664 
942	 0.310798875135325 
943	 0.312178618172421 
944	 0.311402166677604 
945	 0.310805839383724 
946	 0.312984933871967 
947	 0.312550348416963 
948	 0.30915693700936 
949	 0.30661787479777 
950	 0.30334145785667 
951	 0.299818963443348 
952	 0.301564298102782 
953	 0.306378384617497 
954	 0.311367989681228 
955	 0.310680833679117 
956	 0.306571036737408 
957	 0.304640870458131 
958	 0.30719550741129 
959	 0.311594910480994 
960	 0.306022732270829 
961	 0.305368594407817 
962	 0.313887503713449 
963	 0.313550191865459 
964	 0.309115092080952 
965	 0.306666980778804 
966	 0.309604715739914 
967	 0.313545315088842 
968	 0.308803303725289 
969	 0.305085636260237 
970	 0.304831135089052 
971	 0.306426569959081 
972	 0.307741570668414 
973	 0.308114219270732 
974	 0.311618710734851 
975	 0.315828105698583 
976	 0.317693079298732 
977	 0.319023182950628 
978	 0.31887591217022 
979	 0.314386851375396 
980	 0.313624417993701 
981	 0.315969397413901 
982	 0.308255424184806 
983	 0.305599004943001 
984	 0.313876624210652 
985	 0.315352970715188 
986	 0.312822879666448 
987	 0.311220785200932 
988	 0.312013357362967 
989	 0.314829417728996 
990	 0.318068754628047 
991	 0.321986404880809 
992	 0.32362720781338 
993	 0.311886076706939 
994	 0.306307444992656 
995	 0.314041792803208 
996	 0.313378891582093 
997	 0.311171758022011 
998	 0.315026702534079 
999	 0.314890900151968 
1000	 0.311456050582168 
1001	 0.30873164509422 
1002	 0.307516957667215 
1003	 0.308958007390832 
1004	 0.315279398321843 
1005	 0.321075856908488 
1006	 0.323018607789862 
1007	 0.318294568984051 
1008	 0.316177952260567 
1009	 0.321991872683461 
1010	 0.315001271094268 
1011	 0.307575776448083 
1012	 0.319840315926273 
1013	 0.319115544555607 
1014	 0.310370682574431 
1015	 0.323515580161722 
1016	 0.331570469277646 
1017	 0.326785293380004 
1018	 0.311933833014222 
1019	 0.307371212351238 
1020	 0.320955382673073 
1021	 0.324421307051834 
1022	 0.321559860595237 
1023	 0.319140359766624 
1024	 0.319402598386215 
1025	 0.323747534600455 
1026	 0.333390663074327 
1027	 0.318417745724745 
1028	 0.290102041000286 
1029	 0.307669297546883 
1030	 0.312313234424032 
1031	 0.295598355336746 
1032	 0.318644684984989 
1033	 0.331206449220021 
1034	 0.308409270746346 
1035	 0.315498419512267 
1036	 0.328352752738191 
1037	 0.315817540445201 
1038	 0.303487703309808 
1039	 0.302394889422651 
1040	 0.322242004244115 
1041	 0.323444877883836 
1042	 0.307214877147386 
1043	 0.306176862037437 
1044	 0.308892886498035 
1045	 0.312599163267107 
1046	 0.322029004792464 
1047	 0.319201109092951 
1048	 0.298166412061408 
1049	 0.291958859280037 
1050	 0.302092768203718 
1051	 0.322711291236652 
1052	 0.325873650274056 
1053	 0.316149058887274 
1054	 0.308970622313138 
1055	 0.30949911926814 
1056	 0.317277306966487 
1057	 0.328474265366655 
1058	 0.323372108238467 
1059	 0.307154315619554 
1060	 0.318982654793183 
1061	 0.338851585310788 
1062	 0.348693156638128 
1063	 0.312858571876693 
1064	 0.280914828585416 
1065	 0.28762814514506 
1066	 0.30889538120828 
1067	 0.299646228326113 
1068	 0.224659222517994 
1069	 0.248700709661576 
1070	 0.318506602088201 
1071	 0.302895340257774 
1072	 0.28126890776112 
1073	 0.285210705955353 
1074	 0.341313265140031 
1075	 0.311529706919105 
