Wavelength	SHSI00192.asd
325	 8.35548486521411E-02 
326	 8.03595194995246E-02 
327	 5.77524023959921E-02 
328	 6.53897900896137E-02 
329	 7.24613904866094E-02 
330	 6.88493663575017E-02 
331	 6.59388734740885E-02 
332	 6.62035011220889E-02 
333	 7.06996846909209E-02 
334	 6.99622416845536E-02 
335	 0.065878611577869 
336	 6.64758422709471E-02 
337	 6.86231079386286E-02 
338	 7.01287135846715E-02 
339	 6.52158483290027E-02 
340	 6.14388802472887E-02 
341	 6.44067581970151E-02 
342	 6.54167721661678E-02 
343	 6.52343607271809E-02 
344	 6.79238749514775E-02 
345	 0.070353586198854 
346	 0.071272483011738 
347	 6.93870720195035E-02 
348	 6.72777112019883E-02 
349	 6.66630490815856E-02 
350	 6.60039055617678E-02 
351	 6.58364137394728E-02 
352	 0.067334025933486 
353	 6.85451799463835E-02 
354	 6.87909269886375E-02 
355	 6.73993826434741E-02 
356	 6.72866729781377E-02 
357	 6.97998349747193E-02 
358	 7.08480567883026E-02 
359	 6.97899588740378E-02 
360	 6.64665021122157E-02 
361	 6.60473623624732E-02 
362	 6.81483380199369E-02 
363	 6.70608474084286E-02 
364	 6.51004644361537E-02 
365	 6.39124258592761E-02 
366	 6.51155824608318E-02 
367	 6.78376700566588E-02 
368	 0.070688129256933 
369	 7.11762800852707E-02 
370	 6.94216934020981E-02 
371	 6.77105079896717E-02 
372	 6.81618565080592E-02 
373	 7.13324190747754E-02 
374	 7.22461948561361E-02 
375	 7.11506805519947E-02 
376	 6.92554323382878E-02 
377	 6.64197609401745E-02 
378	 6.42003724109175E-02 
379	 6.72533316530915E-02 
380	 6.98691430254585E-02 
381	 6.94194974236631E-02 
382	 7.07207711604819E-02 
383	 0.071318775837794 
384	 6.75617404046655E-02 
385	 0.066431698041721 
386	 6.78760077361714E-02 
387	 6.63835942639393E-02 
388	 0.065036283562013 
389	 6.51198632007503E-02 
390	 6.56229265645847E-02 
391	 6.68912044206891E-02 
392	 6.93451420599076E-02 
393	 6.91891799447317E-02 
394	 6.67578166636651E-02 
395	 6.54433599344747E-02 
396	 6.50132939383734E-02 
397	 0.065056705135378 
398	 6.39533400322176E-02 
399	 6.26475383087291E-02 
400	 6.21612919663388E-02 
401	 6.14670893611113E-02 
402	 6.10682476016433E-02 
403	 6.28035362514261E-02 
404	 6.44943452190828E-02 
405	 6.52148373425073E-02 
406	 6.55463596164109E-02 
407	 6.57979522023005E-02 
408	 6.62737676976387E-02 
409	 6.56278823055759E-02 
410	 6.43507998966366E-02 
411	 0.06452486870464 
412	 6.52560968516482E-02 
413	 6.58742362531065E-02 
414	 6.50158162620729E-02 
415	 0.064055600702062 
416	 6.48923770866596E-02 
417	 6.54526207903329E-02 
418	 6.54868626089526E-02 
419	 6.59354757204173E-02 
420	 6.58447038946375E-02 
421	 6.49417906155473E-02 
422	 0.065113290431658 
423	 6.57024666010037E-02 
424	 6.54476031138895E-02 
425	 6.53105008429256E-02 
426	 6.54862917421739E-02 
427	 6.58332044964539E-02 
428	 6.59845109972258E-02 
429	 6.57387348815974E-02 
430	 6.56291849970909E-02 
431	 6.55477744754918E-02 
432	 6.51742338560258E-02 
433	 6.52430950369619E-02 
434	 6.56273695124616E-02 
435	 6.50566570023606E-02 
436	 6.49742078933817E-02 
437	 0.06614201209813 
438	 6.60843806156225E-02 
439	 6.53806479929177E-02 
440	 6.57833932807725E-02 
441	 6.58270137952076E-02 
442	 6.54032579880917E-02 
443	 6.58338344643531E-02 
444	 6.65401593278743E-02 
445	 6.69800395341842E-02 
446	 6.69339360939645E-02 
447	 6.66249926187593E-02 
448	 6.66266364719023E-02 
449	 6.66654152809051E-02 
450	 0.066697903318042 
451	 6.68654415679642E-02 
452	 6.71787444456477E-02 
453	 6.76227942152721E-02 
454	 6.79162703897073E-02 
455	 6.79655406910481E-02 
456	 0.067690419150781 
457	 6.74455160975734E-02 
458	 6.74165160559442E-02 
459	 6.75907038622133E-02 
460	 6.78748476289166E-02 
461	 6.81482386253518E-02 
462	 6.78494978931867E-02 
463	 6.72642511842191E-02 
464	 6.76480573561309E-02 
465	 6.81556450372001E-02 
466	 6.83754067579725E-02 
467	 6.88320296435173E-02 
468	 6.89536390706352E-02 
469	 6.78619182766605E-02 
470	 6.73468737930051E-02 
471	 6.76854352280589E-02 
472	 6.79849310798414E-02 
473	 6.82406583471654E-02 
474	 6.84158103377032E-02 
475	 6.83849317345884E-02 
476	 6.82804966269422E-02 
477	 6.83881430506931E-02 
478	 6.79725868814603E-02 
479	 6.72732658547008E-02 
480	 6.81546197364037E-02 
481	 6.90789171463605E-02 
482	 6.88346900453909E-02 
483	 6.88848183351045E-02 
484	 6.92113946889281E-02 
485	 0.069210077851068 
486	 6.89471881864183E-02 
487	 6.84969936793514E-02 
488	 6.81648421003552E-02 
489	 6.78943035403071E-02 
490	 6.76376298755138E-02 
491	 6.83299595059541E-02 
492	 6.93800667577839E-02 
493	 6.87409869236201E-02 
494	 0.068151694378384 
495	 6.83299244079061E-02 
496	 0.068599179581606 
497	 6.89444013566356E-02 
498	 6.94221110802853E-02 
499	 6.98357516122797E-02 
500	 7.00581202367761E-02 
501	 0.06992393772033 
502	 6.95721296528666E-02 
503	 6.91893506621332E-02 
504	 6.94053514316868E-02 
505	 6.97836148922337E-02 
506	 6.94489059047163E-02 
507	 6.94817162669547E-02 
508	 6.99818024832652E-02 
509	 6.99319755655258E-02 
510	 0.070341332904248 
511	 7.18593226386592E-02 
512	 0.072203175208598 
513	 7.17729426047538E-02 
514	 7.24514383847846E-02 
515	 7.29480637223567E-02 
516	 7.28861231805845E-02 
517	 7.27788789820681E-02 
518	 7.26936274090927E-02 
519	 7.26579085113204E-02 
520	 0.072355855557572 
521	 7.20716657992348E-02 
522	 7.27269180675638E-02 
523	 7.33820012165644E-02 
524	 7.36596279460331E-02 
525	 7.42538946332911E-02 
526	 7.47192873989667E-02 
527	 7.43353079322124E-02 
528	 7.42418987396124E-02 
529	 7.45723634806034E-02 
530	 7.45856805111979E-02 
531	 7.49253308352122E-02 
532	 7.58911562724964E-02 
533	 0.076086374618404 
534	 7.58085245659114E-02 
535	 7.60545397876722E-02 
536	 7.62663350732313E-02 
537	 7.63381692377432E-02 
538	 0.076502159446587 
539	 7.68256872490841E-02 
540	 7.73254611780154E-02 
541	 7.73465198385659E-02 
542	 7.70414272713765E-02 
543	 0.077107303735636 
544	 7.75265083689869E-02 
545	 7.81558275679386E-02 
546	 7.80548975792731E-02 
547	 7.78374545231792E-02 
548	 7.84078112665494E-02 
549	 7.86896298595349E-02 
550	 7.85515142055441E-02 
551	 7.85126701290466E-02 
552	 7.83919207711563E-02 
553	 7.81833916499907E-02 
554	 0.078792993508428 
555	 7.96552185555857E-02 
556	 7.95036540303337E-02 
557	 7.93585432361635E-02 
558	 7.94599865094637E-02 
559	 7.93355920389944E-02 
560	 7.92306592402773E-02 
561	 7.93760086546981E-02 
562	 7.95720168053025E-02 
563	 7.97860836816797E-02 
564	 8.00664970979097E-02 
565	 8.02376907103751E-02 
566	 8.02434175460937E-02 
567	 8.02336767485617E-02 
568	 8.03444620307348E-02 
569	 8.07222900741183E-02 
570	 8.06587730748941E-02 
571	 8.02448832353612E-02 
572	 8.04728319112222E-02 
573	 8.05061489911242E-02 
574	 7.99521620075064E-02 
575	 8.00055033547192E-02 
576	 8.04263201300315E-02 
577	 8.04615612008832E-02 
578	 8.07095296057958E-02 
579	 8.11454481743835E-02 
580	 8.08910603343501E-02 
581	 8.06400299647409E-02 
582	 8.09905666478582E-02 
583	 8.11398247396555E-02 
584	 8.10439494266263E-02 
585	 8.09298310507473E-02 
586	 8.10383244428598E-02 
587	 8.14071967537408E-02 
588	 8.15156390772467E-02 
589	 8.14361820165501E-02 
590	 8.13355353103445E-02 
591	 8.11464910084893E-02 
592	 8.09885945696406E-02 
593	 8.13569322762127E-02 
594	 8.11318353173824E-02 
595	 7.99370520414111E-02 
596	 8.03844641520202E-02 
597	 8.17234830483219E-02 
598	 8.20661032737743E-02 
599	 8.20284625467501E-02 
600	 8.18494955177706E-02 
601	 8.19704395331803E-02 
602	 8.19473023229367E-02 
603	 8.14505107294336E-02 
604	 8.16439731285845E-02 
605	 8.22547664353406E-02 
606	 8.20540062180265E-02 
607	 8.18077482077587E-02 
608	 8.18206384090276E-02 
609	 8.20422179379595E-02 
610	 8.22737212432403E-02 
611	 8.22716590425409E-02 
612	 8.22376342103932E-02 
613	 8.21722910015599E-02 
614	 8.18498968732881E-02 
615	 8.18091412969444E-02 
616	 0.082265300396831 
617	 8.20267146524381E-02 
618	 8.16074180934604E-02 
619	 8.22091641312669E-02 
620	 8.23691917280526E-02 
621	 8.18705191182579E-02 
622	 0.081801983822601 
623	 8.18018452302264E-02 
624	 8.15481265876802E-02 
625	 8.15922724358463E-02 
626	 8.19144179738871E-02 
627	 8.21953197883618E-02 
628	 8.25265608895997E-02 
629	 0.082936507086809 
630	 8.35703833751776E-02 
631	 8.38694197133557E-02 
632	 8.31648954603116E-02 
633	 8.27539815241082E-02 
634	 8.28228836753465E-02 
635	 8.28429931372789E-02 
636	 8.26755514240729E-02 
637	 8.23293032941481E-02 
638	 8.26927930122664E-02 
639	 8.32762271941952E-02 
640	 8.30041243870126E-02 
641	 8.27820841314565E-02 
642	 8.28003664056453E-02 
643	 8.26081698838497E-02 
644	 8.23827264929306E-02 
645	 8.22982694523101E-02 
646	 8.23873448577459E-02 
647	 8.26321741967487E-02 
648	 8.30768779861962E-02 
649	 8.29117079133111E-02 
650	 8.20894781697298E-02 
651	 0.082360974746828 
652	 8.30594073008021E-02 
653	 8.32191894630584E-02 
654	 0.082922241338596 
655	 8.24554495114034E-02 
656	 8.30100263307249E-02 
657	 8.29436363103523E-02 
658	 8.15704894006928E-02 
659	 8.11553537339891E-02 
660	 8.14288005095198E-02 
661	 8.15842516752219E-02 
662	 8.15106082430185E-02 
663	 8.12144754142169E-02 
664	 8.10341888300298E-02 
665	 0.080979011884647 
666	 8.10175518680142E-02 
667	 8.07783942083507E-02 
668	 8.03692523078269E-02 
669	 8.02111354759389E-02 
670	 8.00105938164198E-02 
671	 7.98121550072982E-02 
672	 8.04744989994987E-02 
673	 8.09943442559301E-02 
674	 8.02070772883167E-02 
675	 0.08000319192334 
676	 8.05130964967031E-02 
677	 8.07651595355319E-02 
678	 8.08160557408794E-02 
679	 8.07631956154751E-02 
680	 8.12714003786195E-02 
681	 8.19054357762929E-02 
682	 8.18409082282085E-02 
683	 8.21627967084316E-02 
684	 8.30749805908448E-02 
685	 8.41909947577175E-02 
686	 8.50605839592927E-02 
687	 8.53156739644411E-02 
688	 8.61584154178389E-02 
689	 8.74078522668205E-02 
690	 8.82592263848229E-02 
691	 8.95983413163201E-02 
692	 0.09142439422526 
693	 9.23031879565082E-02 
694	 9.29478735411634E-02 
695	 9.41193443248036E-02 
696	 0.095028687889291 
697	 9.58541923717879E-02 
698	 9.75991997822175E-02 
699	 9.89876187831145E-02 
700	 9.95308079565371E-02 
701	 0.100626436280455 
702	 0.101988433657457 
703	 0.103020312813519 
704	 0.103931011830567 
705	 0.104822634513101 
706	 0.105858662373589 
707	 0.106841775150961 
708	 0.107623896330425 
709	 0.108106941404331 
710	 0.108630191139938 
711	 0.109824813922723 
712	 0.111046178818261 
713	 0.112031292238905 
714	 0.11268304727122 
715	 0.113152507163421 
716	 0.113630653554452 
717	 0.114379403587095 
718	 0.115369244008542 
719	 0.116201778087452 
720	 0.11643860170177 
721	 0.11618660138269 
722	 0.11652627215733 
723	 0.117197079951987 
724	 0.117848102830425 
725	 0.118591227362368 
726	 0.119418144911587 
727	 0.1205825051098 
728	 0.121080996158451 
729	 0.120640792759441 
730	 0.121288048935302 
731	 0.12210027908406 
732	 0.12151188436252 
733	 0.121661571390802 
734	 0.122639948031716 
735	 0.123010405734179 
736	 0.123334120271324 
737	 0.123948248335366 
738	 0.124502835714796 
739	 0.125040315170335 
740	 0.125759570011317 
741	 0.126117653558125 
742	 0.126063721782109 
743	 0.126104368924154 
744	 0.126405047485068 
745	 0.127021680755803 
746	 0.126920363374553 
747	 0.126639938508468 
748	 0.127993580543286 
749	 0.128937654707797 
750	 0.128853861080047 
751	 0.128785807488855 
752	 0.128996640365722 
753	 0.129646556622287 
754	 0.129702791210134 
755	 0.12948626813552 
756	 0.130768914313127 
757	 0.130841978726196 
758	 0.128828160962607 
759	 0.12875021690092 
760	 0.13131284499389 
761	 0.134604078242023 
762	 0.135209671179708 
763	 0.134045946637417 
764	 0.135288341405993 
765	 0.136840642300975 
766	 0.137660615832009 
767	 0.136987115614227 
768	 0.135901945937261 
769	 0.135586398873045 
770	 0.135794075377198 
771	 0.136336027496179 
772	 0.136624993292377 
773	 0.136937311013817 
774	 0.137426753748056 
775	 0.137698640263787 
776	 0.138024779673507 
777	 0.13905101377649 
778	 0.139320142291461 
779	 0.138758778855127 
780	 0.139024600012209 
781	 0.139603641780328 
782	 0.140042403722424 
783	 0.140380305645509 
784	 0.140758081695672 
785	 0.141513523008091 
786	 0.142036242465038 
787	 0.142171587891752 
788	 0.142263951569045 
789	 0.142414564036275 
790	 0.142698953716572 
791	 0.142947576113911 
792	 0.14332135010415 
793	 0.144353682147803 
794	 0.145046458259293 
795	 0.145058930860328 
796	 0.144729288280042 
797	 0.144554157844058 
798	 0.145012910597992 
799	 0.146220539285329 
800	 0.147551029832825 
801	 0.147305950221948 
802	 0.146931344643146 
803	 0.147094610920001 
804	 0.148031454804044 
805	 0.148840677097651 
806	 0.148593262774741 
807	 0.148615042068375 
808	 0.1490425785181 
809	 0.149480425043482 
810	 0.149664723747346 
811	 0.14949315755443 
812	 0.14920920166123 
813	 0.149325756464461 
814	 0.150457017472867 
815	 0.151502710916237 
816	 0.152297170332622 
817	 0.153498559235979 
818	 0.154132703542251 
819	 0.153866590101275 
820	 0.15318593740262 
821	 0.153157077853208 
822	 0.154931403261979 
823	 0.156915477463063 
824	 0.15814246876439 
825	 0.157404805220289 
826	 0.156524080197809 
827	 0.156376078144503 
828	 0.157082755459817 
829	 0.157668349230607 
830	 0.156990996269916 
831	 0.157585753437425 
832	 0.159303982463128 
833	 0.160197604033207 
834	 0.160418561603957 
835	 0.160116707398867 
836	 0.159912679862424 
837	 0.160255835728175 
838	 0.161512129103508 
839	 0.162100943977076 
840	 0.162073474580491 
841	 0.162573522082903 
842	 0.163586477627403 
843	 0.164707779850846 
844	 0.163470908243417 
845	 0.162225732747906 
846	 0.163674102585256 
847	 0.164004298052769 
848	 0.163186910307257 
849	 0.163472510776381 
850	 0.163821358467107 
851	 0.164099121704517 
852	 0.165800664315149 
853	 0.16746156134039 
854	 0.167513815500307 
855	 0.168575324377425 
856	 0.169759268917397 
857	 0.167358153582526 
858	 0.166289684652768 
859	 0.167676574180153 
860	 0.16788648762664 
861	 0.167357150784355 
862	 0.166765302825788 
863	 0.166901892713554 
864	 0.167827213316509 
865	 0.169314995994472 
866	 0.170335634454508 
867	 0.170668408294482 
868	 0.171471291660075 
869	 0.172321630312468 
870	 0.17273465980842 
871	 0.171580199697436 
872	 0.170053698054775 
873	 0.170709903300343 
874	 0.171419661501493 
875	 0.171931833081298 
876	 0.174226015007744 
877	 0.175115864048549 
878	 0.173024333302172 
879	 0.174585349777642 
880	 0.177841672027955 
881	 0.17816441343341 
882	 0.177546770960206 
883	 0.177014661487967 
884	 0.178380529667271 
885	 0.179541333993459 
886	 0.179398330198557 
887	 0.179520151955852 
888	 0.179331824568744 
889	 0.177919385395663 
890	 0.177626322703097 
891	 0.178459252338306 
892	 0.178615043350985 
893	 0.1783075352453 
894	 0.178086169439206 
895	 0.181041611726218 
896	 0.184073469323069 
897	 0.183348228415858 
898	 0.183054649398509 
899	 0.184079459720306 
900	 0.186506314645661 
901	 0.186507650801446 
902	 0.183789215844229 
903	 0.183172283364094 
904	 0.183487137164484 
905	 0.183790485088551 
906	 0.184898573242025 
907	 0.186657016687321 
908	 0.188674044741123 
909	 0.189377157946624 
910	 0.188473352925481 
911	 0.186626486602435 
912	 0.186966751145707 
913	 0.190591525092635 
914	 0.191759544244578 
915	 0.192042378873961 
916	 0.193993456999849 
917	 0.191915932738292 
918	 0.187886779790499 
919	 0.190737048287899 
920	 0.19170087870891 
921	 0.18851566748334 
922	 0.186348357509516 
923	 0.185151445610491 
924	 0.184655181587184 
925	 0.184751705715302 
926	 0.184937041921747 
927	 0.184224487810603 
928	 0.184153220137383 
929	 0.184753410570689 
930	 0.182882418169028 
931	 0.182643106078966 
932	 0.188002003709598 
933	 0.199770076465114 
934	 0.20689476941573 
935	 0.195053356517374 
936	 0.19210971862248 
937	 0.197863720972184 
938	 0.191908146785741 
939	 0.190037459512227 
940	 0.194945934858317 
941	 0.197748718109703 
942	 0.198194858896468 
943	 0.196496051809014 
944	 0.194937452883933 
945	 0.193968102118369 
946	 0.19361794418357 
947	 0.194077534944662 
948	 0.19548344677307 
949	 0.199030914869767 
950	 0.197562102705883 
951	 0.190017364665657 
952	 0.188356378523887 
953	 0.19174714392295 
954	 0.197714403706412 
955	 0.197972047035977 
956	 0.194970981567453 
957	 0.195401276970452 
958	 0.202281248161193 
959	 0.210843551089548 
960	 0.2024227702951 
961	 0.197574444980144 
962	 0.20385920192675 
963	 0.203425599209304 
964	 0.198278391016412 
965	 0.192327778153287 
966	 0.197300118189213 
967	 0.20468969272858 
968	 0.193835100961226 
969	 0.189244905559068 
970	 0.194164581818776 
971	 0.193997490930237 
972	 0.194558218182514 
973	 0.197906982233388 
974	 0.194895019285111 
975	 0.19492395593121 
976	 0.208131824574892 
977	 0.214972891491322 
978	 0.212282142711461 
979	 0.201777544061711 
980	 0.195785256805011 
981	 0.197548154132178 
982	 0.200964531320064 
983	 0.204175540334375 
984	 0.205582912956331 
985	 0.20367970230108 
986	 0.20132346647518 
987	 0.201762717662582 
988	 0.205099973489575 
989	 0.206987560369909 
990	 0.198682990191617 
991	 0.197258960278122 
992	 0.204280979362747 
993	 0.206893076896714 
994	 0.205168551884878 
995	 0.201031983291699 
996	 0.206603832153211 
997	 0.21025499187997 
998	 0.201165316395465 
999	 0.200302882098211 
1000	 0.204655675498629 
1001	 0.202747292106952 
1002	 0.20112810099735 
1003	 0.202185643258177 
1004	 0.208593648851893 
1005	 0.212741578146969 
1006	 0.211366053987561 
1007	 0.206143863418623 
1008	 0.205343479350534 
1009	 0.212887931465816 
1010	 0.205336673996207 
1011	 0.19717410066436 
1012	 0.211819569558803 
1013	 0.210177109964159 
1014	 0.199778053207398 
1015	 0.221256024973699 
1016	 0.223781003765089 
1017	 0.202864865111741 
1018	 0.20678457614253 
1019	 0.212412997089042 
1020	 0.208407021701569 
1021	 0.211323344603367 
1022	 0.21118502486928 
1023	 0.199168879926274 
1024	 0.201854070300146 
1025	 0.210401033611466 
1026	 0.203403248895856 
1027	 0.199341412421987 
1028	 0.201487000144997 
1029	 0.205841144507351 
1030	 0.205165027748028 
1031	 0.200061561075637 
1032	 0.206520416666786 
1033	 0.216219676118543 
1034	 0.221348804699646 
1035	 0.213981139085971 
1036	 0.200499333536777 
1037	 0.190387544094392 
1038	 0.192739242784248 
1039	 0.203331769948219 
1040	 0.211501702265249 
1041	 0.209390250747118 
1042	 0.204450715450279 
1043	 0.226246675422575 
1044	 0.236866892063421 
1045	 0.227822126806905 
1046	 0.23022861486289 
1047	 0.217532585449793 
1048	 0.181704289754547 
1049	 0.174884850312136 
1050	 0.182554022696532 
1051	 0.185098412426177 
1052	 0.185948927859547 
1053	 0.1948551491551 
1054	 0.222728852700046 
1055	 0.220409743248399 
1056	 0.197429932565962 
1057	 0.203092338812016 
1058	 0.191463447626272 
1059	 0.16764142128489 
1060	 0.19717559115534 
1061	 0.215522791695116 
1062	 0.199489787544049 
1063	 0.208644951765299 
1064	 0.218653823253106 
1065	 0.212735983135985 
1066	 0.221251849859206 
1067	 0.21053184121211 
1068	 0.148274586610234 
1069	 0.17086878348931 
1070	 0.222383738006082 
1071	 0.174675103633344 
1072	 0.176984065313791 
1073	 0.217755236853687 
1074	 0.182008644042058 
1075	 0.165691802191821 
