Wavelength	SHSI00059.asd
325	 6.23901070132645E-02 
326	 6.33997885646814E-02 
327	 4.47360772282616E-02 
328	 5.24000065956897E-02 
329	 5.29387977265631E-02 
330	 3.90893448803599E-02 
331	 3.81201221952921E-02 
332	 4.44165651277886E-02 
333	 5.03345870922068E-02 
334	 5.23472155979101E-02 
335	 5.11207085030392E-02 
336	 5.04865741306493E-02 
337	 4.65120943230464E-02 
338	 4.02627045184811E-02 
339	 4.14417881439326E-02 
340	 4.46961829092974E-02 
341	 4.51726880713632E-02 
342	 4.38224524431796E-02 
343	 4.21657878891896E-02 
344	 0.042715506526294 
345	 0.04367492390652 
346	 4.42809768732825E-02 
347	 4.33414930362545E-02 
348	 4.40176146213574E-02 
349	 4.77608718617858E-02 
350	 4.85849572596146E-02 
351	 4.75353288761719E-02 
352	 4.75852988003648E-02 
353	 4.58415243699223E-02 
354	 0.043198624499677 
355	 4.52681890057214E-02 
356	 4.68518323919137E-02 
357	 4.52536061233872E-02 
358	 4.57310780330115E-02 
359	 4.71380727699067E-02 
360	 4.68329809316791E-02 
361	 4.66073433925944E-02 
362	 4.67507691504735E-02 
363	 4.68948260713301E-02 
364	 4.64168650856182E-02 
365	 0.0451197640656 
366	 4.39015850671876E-02 
367	 4.31769446815819E-02 
368	 0.04330289317606 
369	 4.35860037584248E-02 
370	 4.38674987131519E-02 
371	 4.44624152592321E-02 
372	 0.04420480680852 
373	 4.28872002749458E-02 
374	 4.38730104913097E-02 
375	 4.52173361785497E-02 
376	 4.38534444669511E-02 
377	 4.24897525494138E-02 
378	 4.16162938583879E-02 
379	 4.02229321627325E-02 
380	 4.05520590951439E-02 
381	 4.31539904815735E-02 
382	 0.044220400748783 
383	 4.34819672420657E-02 
384	 4.11677783101115E-02 
385	 4.02312468709861E-02 
386	 4.08611412471888E-02 
387	 4.09407752434011E-02 
388	 4.06965718299278E-02 
389	 4.02401866366751E-02 
390	 3.99936276850867E-02 
391	 3.93424731258116E-02 
392	 3.75918072250467E-02 
393	 3.89817125147205E-02 
394	 4.20530302340245E-02 
395	 4.02239889551281E-02 
396	 3.82923419074101E-02 
397	 3.82402153981111E-02 
398	 3.87693005106573E-02 
399	 3.86384498403233E-02 
400	 3.68437749519724E-02 
401	 3.69701129185678E-02 
402	 3.84509898791523E-02 
403	 3.83379662246735E-02 
404	 3.80703415056189E-02 
405	 3.81470345655766E-02 
406	 3.79438298305961E-02 
407	 3.76912526280443E-02 
408	 3.77247590985128E-02 
409	 3.66729810771049E-02 
410	 3.49861462476596E-02 
411	 3.46729330435047E-02 
412	 3.50828927691399E-02 
413	 3.57058897156417E-02 
414	 3.54981100645335E-02 
415	 3.50138647618458E-02 
416	 3.51005801228979E-02 
417	 3.52975030081148E-02 
418	 3.53552197892012E-02 
419	 3.47671628886256E-02 
420	 3.44649484287872E-02 
421	 3.48562044435067E-02 
422	 3.49820041541799E-02 
423	 3.47097971290916E-02 
424	 3.40006579166083E-02 
425	 3.40461055327414E-02 
426	 3.47778232126729E-02 
427	 3.47547080273514E-02 
428	 0.034570807186678 
429	 3.45925507361475E-02 
430	 3.45387473359887E-02 
431	 3.42939458191708E-02 
432	 3.37057191478335E-02 
433	 3.35001916771334E-02 
434	 3.37343988933547E-02 
435	 3.38301960460536E-02 
436	 3.37971524973181E-02 
437	 3.36736018107539E-02 
438	 3.37171723782099E-02 
439	 3.38434294950123E-02 
440	 3.38600013442798E-02 
441	 3.35019900107606E-02 
442	 3.29168623244341E-02 
443	 3.30550816144273E-02 
444	 3.33473988872982E-02 
445	 3.33283688195785E-02 
446	 3.34653126958325E-02 
447	 3.37702021288544E-02 
448	 3.41766861970277E-02 
449	 3.42062290246754E-02 
450	 0.033780434479763 
451	 3.33761276520002E-02 
452	 3.33668765614043E-02 
453	 3.40303438172082E-02 
454	 3.41753592662408E-02 
455	 3.39622119924489E-02 
456	 3.46192798737832E-02 
457	 3.48840246952105E-02 
458	 3.43731722373993E-02 
459	 3.40586900104716E-02 
460	 3.40868383639794E-02 
461	 3.45059509478675E-02 
462	 3.44976042140733E-02 
463	 0.034200085872345 
464	 3.46905318952145E-02 
465	 0.035199296361376 
466	 3.53083016429641E-02 
467	 3.51220822330655E-02 
468	 3.48768629801126E-02 
469	 3.48991242936717E-02 
470	 3.48693060946593E-02 
471	 3.48203262104331E-02 
472	 3.51795909659048E-02 
473	 0.035463326560497 
474	 0.035358402718711 
475	 3.49658333703015E-02 
476	 3.47827254385245E-02 
477	 3.56688408933168E-02 
478	 3.59956785095368E-02 
479	 0.035518319809458 
480	 3.54349649217457E-02 
481	 3.55008804434523E-02 
482	 3.54843492205117E-02 
483	 3.52343381233868E-02 
484	 3.51569709358193E-02 
485	 3.64481874475908E-02 
486	 3.67087290210024E-02 
487	 3.54501085887172E-02 
488	 3.52967780875487E-02 
489	 3.56015719303761E-02 
490	 0.035541154095422 
491	 3.59907351643689E-02 
492	 3.66152648058983E-02 
493	 3.60834020836205E-02 
494	 3.57184567947705E-02 
495	 3.60680874540269E-02 
496	 3.66419731861734E-02 
497	 3.70059767060566E-02 
498	 0.036674483967829 
499	 3.68342182828206E-02 
500	 0.037530992761763 
501	 3.78462232631817E-02 
502	 0.038020837652704 
503	 3.82085069033721E-02 
504	 3.84703695632733E-02 
505	 3.87664645461366E-02 
506	 3.90137212741359E-02 
507	 3.91843263862894E-02 
508	 3.93643259119241E-02 
509	 0.039896770979698 
510	 4.05786427967125E-02 
511	 4.11714006081117E-02 
512	 4.09001714251065E-02 
513	 4.04156474380925E-02 
514	 4.15739067636655E-02 
515	 4.25081252091965E-02 
516	 4.26175761457352E-02 
517	 4.26219907556291E-02 
518	 0.042776121553847 
519	 4.32823622336605E-02 
520	 4.38196919358702E-02 
521	 4.42397287925689E-02 
522	 4.42986017835405E-02 
523	 4.47007241139493E-02 
524	 0.045648755500027 
525	 4.60885870370264E-02 
526	 0.046347711026957 
527	 4.70497365866431E-02 
528	 4.74200234057779E-02 
529	 4.75309929926592E-02 
530	 4.83942221205515E-02 
531	 4.90178694453523E-02 
532	 4.88566386448508E-02 
533	 4.93032870928728E-02 
534	 5.01378231523614E-02 
535	 5.05423539627577E-02 
536	 0.050773502395639 
537	 5.09759518601312E-02 
538	 5.14931555789841E-02 
539	 5.20614061387996E-02 
540	 5.24142514735171E-02 
541	 5.27549948698018E-02 
542	 5.32008321267752E-02 
543	 5.40068109864031E-02 
544	 5.46024685081625E-02 
545	 5.47576258042955E-02 
546	 0.054753440143609 
547	 5.47271601693348E-02 
548	 5.48094320532642E-02 
549	 5.54209523980847E-02 
550	 5.64231366025483E-02 
551	 5.70642370562224E-02 
552	 5.73393516194327E-02 
553	 5.73167355198944E-02 
554	 5.76328281328277E-02 
555	 5.82209973622468E-02 
556	 0.058791826998868 
557	 5.92007973197943E-02 
558	 0.059386822124835 
559	 5.94255658050549E-02 
560	 5.94382872029865E-02 
561	 5.95500213480901E-02 
562	 5.99606822961715E-02 
563	 6.04602547489318E-02 
564	 6.04038610650278E-02 
565	 6.03989532973502E-02 
566	 6.06528014168085E-02 
567	 6.07967978715518E-02 
568	 6.08527976675097E-02 
569	 6.08905366754367E-02 
570	 6.10513210349419E-02 
571	 6.12418219691389E-02 
572	 6.10200562202948E-02 
573	 6.07712011984659E-02 
574	 0.06074048249908 
575	 6.08608368068556E-02 
576	 6.09348776938156E-02 
577	 0.0605817171954 
578	 6.07311385370704E-02 
579	 6.14069773491178E-02 
580	 6.13561756900113E-02 
581	 6.10902661598148E-02 
582	 6.11024866517316E-02 
583	 6.11994333439968E-02 
584	 6.13407248949908E-02 
585	 6.15365101176156E-02 
586	 0.061502864466327 
587	 6.12106604403465E-02 
588	 0.061310854688758 
589	 6.14940165006649E-02 
590	 6.12785327327249E-02 
591	 6.13633229921899E-02 
592	 6.17423531408711E-02 
593	 6.18495004497749E-02 
594	 6.19501921134844E-02 
595	 0.06211033416206 
596	 6.15068506745044E-02 
597	 6.09157061606418E-02 
598	 6.18815862089922E-02 
599	 6.25603986045796E-02 
600	 6.24517084492602E-02 
601	 6.21115808161047E-02 
602	 6.19002983032256E-02 
603	 6.20906867208385E-02 
604	 6.21133784718773E-02 
605	 0.061936450896613 
606	 6.17400681976352E-02 
607	 6.16198849940066E-02 
608	 6.15939553871559E-02 
609	 6.14310239251039E-02 
610	 0.061229153513963 
611	 6.11367627761131E-02 
612	 6.11510592915836E-02 
613	 6.11313570667597E-02 
614	 6.06166236543275E-02 
615	 6.01145476490324E-02 
616	 5.99350306734431E-02 
617	 5.98367036367782E-02 
618	 5.96495814365576E-02 
619	 0.059103754867356 
620	 5.89885310863953E-02 
621	 5.93386117520419E-02 
622	 5.92792609417903E-02 
623	 5.87488594843017E-02 
624	 0.05781964951557 
625	 5.78879872656789E-02 
626	 5.86143392829755E-02 
627	 5.83504977724847E-02 
628	 5.83041813997529E-02 
629	 5.88098490002761E-02 
630	 5.90211584769154E-02 
631	 5.88396217906491E-02 
632	 5.82550083657858E-02 
633	 5.82646380654278E-02 
634	 5.88744807929334E-02 
635	 5.92699701652735E-02 
636	 5.94351330696898E-02 
637	 5.93357883912107E-02 
638	 0.05887553898868 
639	 5.85661363675302E-02 
640	 5.93294813186172E-02 
641	 5.98301111932011E-02 
642	 5.97579937455762E-02 
643	 5.98620934801046E-02 
644	 5.98558497282047E-02 
645	 5.95031961138074E-02 
646	 5.94053241281679E-02 
647	 5.94553701015965E-02 
648	 5.89968690708497E-02 
649	 5.88621091016761E-02 
650	 0.059220057199587 
651	 5.90834778231399E-02 
652	 5.84895541885947E-02 
653	 5.75907468030578E-02 
654	 5.72472169348073E-02 
655	 5.73246783243649E-02 
656	 5.65627152868097E-02 
657	 5.56819464511468E-02 
658	 5.50568918604597E-02 
659	 5.37509508161604E-02 
660	 5.23537353427637E-02 
661	 5.19669109764362E-02 
662	 5.15148477550781E-02 
663	 5.07226990931863E-02 
664	 4.99022179481982E-02 
665	 4.89037922490114E-02 
666	 4.76339642503407E-02 
667	 4.65391332032742E-02 
668	 4.57024797986877E-02 
669	 4.50371810261002E-02 
670	 4.47342704614464E-02 
671	 4.47590396216291E-02 
672	 4.45643181466087E-02 
673	 4.42925958305159E-02 
674	 4.41622688797167E-02 
675	 4.42440512472601E-02 
676	 4.44035333707895E-02 
677	 0.044076923191319 
678	 4.42401065189394E-02 
679	 4.52886746304207E-02 
680	 4.60141684501015E-02 
681	 0.046275365690178 
682	 4.60491604463265E-02 
683	 4.70080734829056E-02 
684	 4.90528221030881E-02 
685	 4.96858860953302E-02 
686	 5.04244008254227E-02 
687	 5.26044427879842E-02 
688	 5.48397708015204E-02 
689	 5.69065128294353E-02 
690	 5.93714833005755E-02 
691	 6.21292507671535E-02 
692	 6.49582266334201E-02 
693	 6.65533421991176E-02 
694	 6.83718619408655E-02 
695	 7.17767737147213E-02 
696	 7.40329743780292E-02 
697	 7.54905277360905E-02 
698	 7.87192217246997E-02 
699	 8.16874820732818E-02 
700	 8.35196158002725E-02 
701	 0.0856986775567 
702	 8.77433722844241E-02 
703	 8.88159083674456E-02 
704	 9.02990848427409E-02 
705	 9.22916632826852E-02 
706	 9.37374542134128E-02 
707	 9.52895061186479E-02 
708	 9.72608052304504E-02 
709	 9.85968465837888E-02 
710	 9.95914795255095E-02 
711	 0.101080157644338 
712	 0.102230763009486 
713	 0.10293441808471 
714	 0.103994657251233 
715	 0.104655442473995 
716	 0.104250573512808 
717	 0.104240031523561 
718	 0.104961445850554 
719	 0.106129036672968 
720	 0.106970260104558 
721	 0.107323278892014 
722	 0.108309047324288 
723	 0.109359903728665 
724	 0.10971456307303 
725	 0.109969138975335 
726	 0.110323235770196 
727	 0.110994860759333 
728	 0.111638303813049 
729	 0.112133951335467 
730	 0.113030510302049 
731	 0.113850457015173 
732	 0.113884098989276 
733	 0.11433148220128 
734	 0.11527589554101 
735	 0.116007166475054 
736	 0.116612639871466 
737	 0.11714650387723 
738	 0.117839648866314 
739	 0.118553846459392 
740	 0.118955198300544 
741	 0.119422250955709 
742	 0.120035833806775 
743	 0.120617981579657 
744	 0.121166503399418 
745	 0.121652495614465 
746	 0.121540922499617 
747	 0.121351562533011 
748	 0.122646965326097 
749	 0.123264786752855 
750	 0.122721731276239 
751	 0.123030400891014 
752	 0.123604237125682 
753	 0.123682508955322 
754	 0.123479135148605 
755	 0.123275038965697 
756	 0.123793280120807 
757	 0.124109810836819 
758	 0.123809594398198 
759	 0.123196699158532 
760	 0.122340516961003 
761	 0.122435422545547 
762	 0.121558563917666 
763	 0.120583604885607 
764	 0.122457571395318 
765	 0.124647614918961 
766	 0.126036894084063 
767	 0.126564649139846 
768	 0.126978544475064 
769	 0.128088763204992 
770	 0.12878359863173 
771	 0.128916814738099 
772	 0.128986928516558 
773	 0.129096262973127 
774	 0.129346913192026 
775	 0.129947539430484 
776	 0.130518529099933 
777	 0.130338754430196 
778	 0.130280137460116 
779	 0.130595144614498 
780	 0.131105015102683 
781	 0.131574466077438 
782	 0.131801925695443 
783	 0.131682357606432 
784	 0.131551565093371 
785	 0.132180402866622 
786	 0.132485780144362 
787	 0.132220092193354 
788	 0.132144003218407 
789	 0.132044819322923 
790	 0.131758018315869 
791	 0.132219246393286 
792	 0.13301508948135 
793	 0.13266016484567 
794	 0.132860261601132 
795	 0.133825949362201 
796	 0.133333734591446 
797	 0.132660410454375 
798	 0.133163361131365 
799	 0.133604277139283 
800	 0.133795096956649 
801	 0.133884997957676 
802	 0.133910669916356 
803	 0.133981897032612 
804	 0.134481718471547 
805	 0.135124223789365 
806	 0.135574302567366 
807	 0.135898698558973 
808	 0.136050988565854 
809	 0.135828724016624 
810	 0.135828705163681 
811	 0.136212558391167 
812	 0.136173735726584 
813	 0.135582598184757 
814	 0.134412735264525 
815	 0.134116808143299 
816	 0.134729264550272 
817	 0.134762585423198 
818	 0.135513610058212 
819	 0.13708488069868 
820	 0.137071969524027 
821	 0.136943346875461 
822	 0.138552264145935 
823	 0.139187029185957 
824	 0.138890902207077 
825	 0.139614363835424 
826	 0.140425910651953 
827	 0.140872121038467 
828	 0.140429552841065 
829	 0.139999364536004 
830	 0.140704570815817 
831	 0.141382113201653 
832	 0.141615149222249 
833	 0.140820159516937 
834	 0.141185021454779 
835	 0.14319258705559 
836	 0.143792844058526 
837	 0.143367577372747 
838	 0.142694055117766 
839	 0.142858812936329 
840	 0.143861170259771 
841	 0.145050657512547 
842	 0.145315539854406 
843	 0.144486237108863 
844	 0.144958170821856 
845	 0.145549632077518 
846	 0.14478307270642 
847	 0.144343722316532 
848	 0.14461284784392 
849	 0.14575086138009 
850	 0.146113966036112 
851	 0.145283801335447 
852	 0.145565465300516 
853	 0.145784378406512 
854	 0.144626712196388 
855	 0.144631704749446 
856	 0.145454170407053 
857	 0.145002970599584 
858	 0.144270052138979 
859	 0.143801863682031 
860	 0.144790296207726 
861	 0.145196077501272 
862	 0.143298367659777 
863	 0.143660718159718 
864	 0.145505706693637 
865	 0.144831118114359 
866	 0.145024746287771 
867	 0.146625393771744 
868	 0.146705784683917 
869	 0.146688504803416 
870	 0.147744726692628 
871	 0.14874147546762 
872	 0.149099761626775 
873	 0.147955873448559 
874	 0.148165284762163 
875	 0.149858343012406 
876	 0.14965488248904 
877	 0.148984271251332 
878	 0.149065699917656 
879	 0.150639648107656 
880	 0.15285696079028 
881	 0.154213362955031 
882	 0.155242436739895 
883	 0.15603428644586 
884	 0.156570288746786 
885	 0.156963551081889 
886	 0.15734903048821 
887	 0.158121874920592 
888	 0.158829881921243 
889	 0.158836197229205 
890	 0.159288545328338 
891	 0.159962646154148 
892	 0.159372446523127 
893	 0.157906312606697 
894	 0.156267683000268 
895	 0.157628973223119 
896	 0.158924428897806 
897	 0.156491422760062 
898	 0.157216879404032 
899	 0.160666970856521 
900	 0.162322196915334 
901	 0.161406715260588 
902	 0.158802784421071 
903	 0.160163258914081 
904	 0.161725321897742 
905	 0.160909909621181 
906	 0.163457649528714 
907	 0.167141888768304 
908	 0.166771993693699 
909	 0.164494990739352 
910	 0.162126419148581 
911	 0.164210309312302 
912	 0.165329264054487 
913	 0.162994366339995 
914	 0.163422677511232 
915	 0.165047073275512 
916	 0.165263619503027 
917	 0.166572892495944 
918	 0.168114677762857 
919	 0.166177353750149 
920	 0.165447259357035 
921	 0.167310970402739 
922	 0.169743258328601 
923	 0.170478581738106 
924	 0.167885398348543 
925	 0.166893407099332 
926	 0.16669018177255 
927	 0.163371216033211 
928	 0.161891695384754 
929	 0.163358065452923 
930	 0.163584564745543 
931	 0.161810309343472 
932	 0.158289710239912 
933	 0.161335750037936 
934	 0.165477872802829 
935	 0.160555574899569 
936	 0.14765115900865 
937	 0.135167697932253 
938	 0.142721466905511 
939	 0.153813588857973 
940	 0.161041614013085 
941	 0.160840011482264 
942	 0.154565682423045 
943	 0.144863935415891 
944	 0.144820470702497 
945	 0.149045149131046 
946	 0.145927701485785 
947	 0.142735272734216 
948	 0.142664032172856 
949	 0.150047344132161 
950	 0.155024833545095 
951	 0.154266843396653 
952	 0.157209695580885 
953	 0.159327735731983 
954	 0.155973951948529 
955	 0.145790568678197 
956	 0.138945263609679 
957	 0.153044989764627 
958	 0.158402658104967 
959	 0.151965554167643 
960	 0.151980142228192 
961	 0.152583886934165 
962	 0.152149388009527 
963	 0.157465759759548 
964	 0.162348746580178 
965	 0.160789875093028 
966	 0.157319028818696 
967	 0.155487725139118 
968	 0.160872588709826 
969	 0.160603677788286 
970	 0.154839936787344 
971	 0.157954212483204 
972	 0.162776759368111 
973	 0.164841736986501 
974	 0.162864777380806 
975	 0.161718729102234 
976	 0.16641278955777 
977	 0.165869917348507 
978	 0.161567544993685 
979	 0.160746889782067 
980	 0.164214399121023 
981	 0.169035170979891 
982	 0.162256015151976 
983	 0.16136678847836 
984	 0.172293783012687 
985	 0.169484163969803 
986	 0.164819714879556 
987	 0.172151317637012 
988	 0.171761389598605 
989	 0.167102950282997 
990	 0.172019379961647 
991	 0.173460636746857 
992	 0.170050850446743 
993	 0.171149710385427 
994	 0.169931166174978 
995	 0.164390145591563 
996	 0.163134029738921 
997	 0.165655153705905 
998	 0.17029793113601 
999	 0.171838870314637 
1000	 0.170804448648958 
1001	 0.170104719576936 
1002	 0.16824824043538 
1003	 0.166572979983623 
1004	 0.170404248863555 
1005	 0.172306430901048 
1006	 0.17016347815642 
1007	 0.168829747638581 
1008	 0.173192640404372 
1009	 0.184376085957033 
1010	 0.184062673852132 
1011	 0.176513380369891 
1012	 0.171625036100339 
1013	 0.176609947454083 
1014	 0.184121511162391 
1015	 0.172029138049869 
1016	 0.165005702643147 
1017	 0.169217089452813 
1018	 0.17412350276777 
1019	 0.178562779246015 
1020	 0.180302661148486 
1021	 0.172105264038888 
1022	 0.16602435802569 
1023	 0.173977915408714 
1024	 0.185480199402405 
1025	 0.193871024962123 
1026	 0.191089980262615 
1027	 0.18424110431006 
1028	 0.179773345325537 
1029	 0.19186923231455 
1030	 0.195630508548018 
1031	 0.185034731404712 
1032	 0.174046011992272 
1033	 0.168057424034263 
1034	 0.170721250626908 
1035	 0.17781826283354 
1036	 0.186651973463906 
1037	 0.194290085496843 
1038	 0.197494274977177 
1039	 0.19590230032904 
1040	 0.190343670009092 
1041	 0.181857820566485 
1042	 0.177385038830382 
1043	 0.194710572588819 
1044	 0.203990147287846 
1045	 0.194946323685694 
1046	 0.170924543257787 
1047	 0.16427610639883 
1048	 0.187749229756783 
1049	 0.184304665963539 
1050	 0.176380559380816 
1051	 0.188039824186725 
1052	 0.175993899561531 
1053	 0.158594132501119 
1054	 0.172990079061929 
1055	 0.185270404268076 
1056	 0.190397360923677 
1057	 0.193373390575428 
1058	 0.192267514619455 
1059	 0.18900061141411 
1060	 0.196200664456282 
1061	 0.172210634995427 
1062	 0.118231391422412 
1063	 0.14707485812954 
1064	 0.171884860798364 
1065	 0.137792085231668 
1066	 0.146255487189859 
1067	 0.178229736331034 
1068	 0.199407889170608 
1069	 0.200056907360325 
1070	 0.184575400633528 
1071	 0.166803106900863 
1072	 0.16337607939311 
1073	 0.172944261752981 
1074	 0.183027764598596 
1075	 0.163946522459534 
