Wavelength	SHSI00372.asd
325	 5.67404283722487E-02 
326	 6.08673170525054E-02 
327	 6.47629485120081E-02 
328	 7.14062822331777E-02 
329	 7.28733994272004E-02 
330	 6.82611285071742E-02 
331	 6.73530720359475E-02 
332	 6.86850395419201E-02 
333	 7.00175432402615E-02 
334	 6.91902163786039E-02 
335	 6.69331149997589E-02 
336	 6.52056020940979E-02 
337	 6.71815991430096E-02 
338	 7.15509021669083E-02 
339	 6.79762549680492E-02 
340	 0.064447721704582 
341	 6.71159732945019E-02 
342	 6.58709310938789E-02 
343	 6.12919048957044E-02 
344	 5.63629884553526E-02 
345	 5.92742932945256E-02 
346	 6.80164977670969E-02 
347	 6.65156068276928E-02 
348	 6.36954008040014E-02 
349	 6.54920525740146E-02 
350	 6.73285227155696E-02 
351	 6.77959639417865E-02 
352	 6.55421247639948E-02 
353	 6.49131131280177E-02 
354	 6.63734539575173E-02 
355	 6.71789313008786E-02 
356	 6.77674053174252E-02 
357	 6.83392527943615E-02 
358	 6.83901200439816E-02 
359	 6.75776069994042E-02 
360	 6.54262464694485E-02 
361	 6.55275283383943E-02 
362	 6.73940999253008E-02 
363	 6.63843606724401E-02 
364	 6.51680425612458E-02 
365	 6.51315043781232E-02 
366	 6.54059577457649E-02 
367	 0.06547515213397 
368	 6.47855240942802E-02 
369	 6.43129791737936E-02 
370	 0.064315448238212 
371	 6.46999349870309E-02 
372	 6.56077335966009E-02 
373	 6.67826200168995E-02 
374	 6.63539596747227E-02 
375	 6.48537914626009E-02 
376	 6.33054299664503E-02 
377	 6.18211558097019E-02 
378	 6.12410585195337E-02 
379	 6.40502019918184E-02 
380	 6.57650824497926E-02 
381	 6.45276486138487E-02 
382	 6.46145208079705E-02 
383	 0.064917265762058 
384	 6.34919326391378E-02 
385	 6.38681572741919E-02 
386	 6.55255449847888E-02 
387	 6.41804737472996E-02 
388	 6.34375558315491E-02 
389	 6.44103271987942E-02 
390	 6.33469081168271E-02 
391	 6.22338126025763E-02 
392	 0.06363490176579 
393	 6.44346816848296E-02 
394	 6.43148354104207E-02 
395	 0.064850031810144 
396	 6.31440401328461E-02 
397	 5.90314868495182E-02 
398	 5.80681030579299E-02 
399	 5.85451755161722E-02 
400	 5.82216761675732E-02 
401	 5.88464957754932E-02 
402	 0.060123769226677 
403	 6.09175154258139E-02 
404	 6.09808565751189E-02 
405	 6.03937518459342E-02 
406	 6.04065230031492E-02 
407	 0.060697940181892 
408	 6.07241199914425E-02 
409	 6.11973989794056E-02 
410	 6.17819418275835E-02 
411	 6.11764187136913E-02 
412	 6.02633824831277E-02 
413	 5.96259998412997E-02 
414	 0.059956473951049 
415	 6.06097202327754E-02 
416	 6.06959558478921E-02 
417	 6.04930067144074E-02 
418	 6.03367539989764E-02 
419	 6.11603772601396E-02 
420	 6.16241337462902E-02 
421	 6.11267195552856E-02 
422	 6.09767697829795E-02 
423	 6.10693457635071E-02 
424	 6.10146863687976E-02 
425	 0.061329847828585 
426	 6.19382581446649E-02 
427	 6.21370286224729E-02 
428	 6.22612228391957E-02 
429	 6.24331192239684E-02 
430	 6.18227194051796E-02 
431	 0.060976430278882 
432	 6.09564997917792E-02 
433	 6.07937315251025E-02 
434	 6.04529623375324E-02 
435	 6.06667883882208E-02 
436	 6.13024582871566E-02 
437	 6.21197622462114E-02 
438	 6.18953724888717E-02 
439	 6.11215071036859E-02 
440	 6.09870844858965E-02 
441	 6.11959185823196E-02 
442	 6.15656809632509E-02 
443	 6.16053363045592E-02 
444	 6.16218697325875E-02 
445	 6.18790631908392E-02 
446	 6.23192597985882E-02 
447	 6.27258698239966E-02 
448	 6.26503067920306E-02 
449	 6.25413942078677E-02 
450	 6.25758014494823E-02 
451	 6.27780117774616E-02 
452	 6.29928762741575E-02 
453	 6.30585663555324E-02 
454	 6.28737982198827E-02 
455	 6.26578293613717E-02 
456	 6.30902301930334E-02 
457	 6.33152404536254E-02 
458	 6.30830184182753E-02 
459	 6.31936674354461E-02 
460	 6.33906130737972E-02 
461	 6.33051675713944E-02 
462	 6.33885717139221E-02 
463	 6.36398336186727E-02 
464	 6.37544668106133E-02 
465	 6.38167245344803E-02 
466	 6.38323455369564E-02 
467	 6.35651316158753E-02 
468	 6.33025478409703E-02 
469	 6.34883130618185E-02 
470	 6.34751710292044E-02 
471	 6.32517422543974E-02 
472	 6.34207702066396E-02 
473	 0.063533344312385 
474	 6.33638639653637E-02 
475	 6.35737953917436E-02 
476	 6.39052429145312E-02 
477	 6.37753764429615E-02 
478	 6.34921361232467E-02 
479	 0.063234268187406 
480	 6.33038461879658E-02 
481	 6.34706122574625E-02 
482	 6.35597367425341E-02 
483	 6.39269845562038E-02 
484	 6.43357147035482E-02 
485	 6.40760342041445E-02 
486	 6.39177455899611E-02 
487	 6.40872175646851E-02 
488	 6.41738558977105E-02 
489	 6.40907991700952E-02 
490	 6.37997469397982E-02 
491	 0.063617208066903 
492	 6.36169108085332E-02 
493	 6.38206951950471E-02 
494	 6.39378809512518E-02 
495	 6.38699709672488E-02 
496	 0.063889603954503 
497	 0.064101775741612 
498	 6.46030218628854E-02 
499	 6.49514534869917E-02 
500	 6.50097796280621E-02 
501	 6.47246813860909E-02 
502	 6.46153164917037E-02 
503	 6.49774865851343E-02 
504	 6.54398219442328E-02 
505	 6.57227392582687E-02 
506	 6.54515650579751E-02 
507	 6.53943908759086E-02 
508	 6.57402022324937E-02 
509	 6.62130105422796E-02 
510	 6.67523805747355E-02 
511	 0.067279767237513 
512	 6.74276927199803E-02 
513	 6.74295751274123E-02 
514	 6.80059119464678E-02 
515	 6.83545596389941E-02 
516	 6.82957897734773E-02 
517	 6.85231816578237E-02 
518	 6.88864395533168E-02 
519	 0.069162749570498 
520	 6.93220815723945E-02 
521	 6.94816283549612E-02 
522	 6.99513837467306E-02 
523	 7.05961606059526E-02 
524	 7.12789982649926E-02 
525	 0.07156902495832 
526	 7.16682544536203E-02 
527	 0.071930938903698 
528	 7.19822915817073E-02 
529	 7.19169774601767E-02 
530	 7.23347228970497E-02 
531	 7.28843661526118E-02 
532	 7.32985442360414E-02 
533	 7.33758029627474E-02 
534	 0.073381520146642 
535	 7.39010401945922E-02 
536	 0.074361044654045 
537	 7.46054421238601E-02 
538	 7.48526025114139E-02 
539	 7.49893029281073E-02 
540	 7.49219266541805E-02 
541	 7.51007368000879E-02 
542	 7.54819734647232E-02 
543	 7.57279165904433E-02 
544	 7.58059739424429E-02 
545	 7.57558022599056E-02 
546	 7.59579702182526E-02 
547	 7.62679690471798E-02 
548	 7.64499175687992E-02 
549	 0.076685372279793 
550	 7.69523073103282E-02 
551	 7.70275516044421E-02 
552	 7.71718371079219E-02 
553	 7.75095800641278E-02 
554	 7.76091914140437E-02 
555	 7.75662717693529E-02 
556	 7.76733698992535E-02 
557	 7.77174639853994E-02 
558	 0.077696142794751 
559	 7.78516949824941E-02 
560	 7.81630361878951E-02 
561	 7.85655605775703E-02 
562	 0.078629926022628 
563	 7.84028178151014E-02 
564	 0.078161492361352 
565	 7.82668469626508E-02 
566	 7.87325855244293E-02 
567	 7.85294266144303E-02 
568	 7.81514614250542E-02 
569	 7.83418066834069E-02 
570	 7.84110109607672E-02 
571	 0.078245424626576 
572	 7.80494119348325E-02 
573	 7.78860420214739E-02 
574	 7.77954168164167E-02 
575	 7.77148921790516E-02 
576	 7.76401881740577E-02 
577	 7.75822737814172E-02 
578	 7.75384551111434E-02 
579	 7.74623979175771E-02 
580	 7.71011381699924E-02 
581	 7.70109435766177E-02 
582	 7.76139864527072E-02 
583	 7.77970300116163E-02 
584	 7.75009420904691E-02 
585	 7.70963541343622E-02 
586	 0.076837290552509 
587	 7.68565663093207E-02 
588	 7.70148847354345E-02 
589	 7.72126934662291E-02 
590	 7.73326613940802E-02 
591	 7.72542560198838E-02 
592	 7.70087393295197E-02 
593	 7.67541124074169E-02 
594	 7.66463575919163E-02 
595	 7.67606715177129E-02 
596	 7.68481570549845E-02 
597	 7.68862724660765E-02 
598	 7.69107165101003E-02 
599	 7.68779560557529E-02 
600	 7.67654508323521E-02 
601	 7.64732843572819E-02 
602	 7.64411392983117E-02 
603	 7.69823301596562E-02 
604	 7.69650603807685E-02 
605	 7.65555231248208E-02 
606	 7.67543829506572E-02 
607	 7.67741626692668E-02 
608	 0.076382728288286 
609	 7.61184455602275E-02 
610	 7.60098101511979E-02 
611	 7.60242699663065E-02 
612	 7.56938458098211E-02 
613	 7.51613281157655E-02 
614	 7.53366465977874E-02 
615	 7.54325276264832E-02 
616	 7.50182639074263E-02 
617	 7.47427531625832E-02 
618	 7.47199256293732E-02 
619	 7.49850312608946E-02 
620	 7.52573744125741E-02 
621	 7.54003767855676E-02 
622	 7.53593588131355E-02 
623	 7.50871317623827E-02 
624	 7.45965257629669E-02 
625	 7.45717268952875E-02 
626	 7.49174464311165E-02 
627	 7.50930527439463E-02 
628	 0.074912423266722 
629	 7.44171203038722E-02 
630	 7.44559117067099E-02 
631	 7.48056996633785E-02 
632	 7.50855518858794E-02 
633	 7.49351303005975E-02 
634	 7.44175413163301E-02 
635	 7.39869960636739E-02 
636	 7.40003859729595E-02 
637	 7.45630494251016E-02 
638	 7.46291217401329E-02 
639	 7.43266141150599E-02 
640	 7.41463394594031E-02 
641	 7.39925570411582E-02 
642	 7.38309742175215E-02 
643	 7.35230252512047E-02 
644	 7.32668630917576E-02 
645	 7.32428806285466E-02 
646	 7.34578472217268E-02 
647	 7.36755518170935E-02 
648	 7.33283899113643E-02 
649	 7.27711199363434E-02 
650	 7.22635592170736E-02 
651	 7.23251809375215E-02 
652	 7.24989435637779E-02 
653	 0.072195473505442 
654	 7.20365078710417E-02 
655	 7.20357200973946E-02 
656	 7.18122984664343E-02 
657	 7.11877150499323E-02 
658	 7.02492121725616E-02 
659	 0.070055489294569 
660	 7.02737676452839E-02 
661	 0.070218364268554 
662	 7.00191656864265E-02 
663	 6.96264231179932E-02 
664	 6.87559767605507E-02 
665	 6.80614220421712E-02 
666	 6.80594321812373E-02 
667	 6.80570041685268E-02 
668	 6.79010299978707E-02 
669	 6.75211644095268E-02 
670	 6.72798677169235E-02 
671	 6.72629349374494E-02 
672	 6.70470768049976E-02 
673	 6.68663905323939E-02 
674	 0.067014210798072 
675	 6.71509736727527E-02 
676	 6.72102893255755E-02 
677	 6.72633467518953E-02 
678	 6.72541230017894E-02 
679	 6.72007878776864E-02 
680	 6.74502091733543E-02 
681	 6.77568963791977E-02 
682	 6.76395241566563E-02 
683	 6.81920757742737E-02 
684	 6.93736330978263E-02 
685	 6.97372380537924E-02 
686	 7.01285194299816E-02 
687	 7.12408487387746E-02 
688	 7.18176671786803E-02 
689	 7.22416101196758E-02 
690	 7.40456619315074E-02 
691	 7.52754117600323E-02 
692	 7.56434434869654E-02 
693	 7.68830944751403E-02 
694	 7.83066163879588E-02 
695	 7.90835723579517E-02 
696	 8.02256644535559E-02 
697	 8.17207461808015E-02 
698	 8.30917524833147E-02 
699	 8.42016195364937E-02 
700	 8.50565384160902E-02 
701	 0.08647869965269 
702	 8.78908432860842E-02 
703	 8.83975832095772E-02 
704	 8.92967400327828E-02 
705	 9.05993201739589E-02 
706	 0.091116652194714 
707	 9.16899265101948E-02 
708	 9.28042632310058E-02 
709	 9.37310908105159E-02 
710	 9.43200568810196E-02 
711	 9.44475138121547E-02 
712	 0.094990475907239 
713	 9.59992950120465E-02 
714	 9.63234135046968E-02 
715	 9.64470604362692E-02 
716	 9.68751678774705E-02 
717	 9.74951612859988E-02 
718	 9.81593076779131E-02 
719	 0.098258942247794 
720	 9.88237341943625E-02 
721	 9.99143181337312E-02 
722	 0.100270139844842 
723	 0.100312976137088 
724	 0.100519538785393 
725	 0.100549777988282 
726	 0.100505067368068 
727	 0.10089357180209 
728	 0.101284786153848 
729	 0.101489087599788 
730	 0.101851024162259 
731	 0.102164944691492 
732	 0.102109953268261 
733	 0.102262831568154 
734	 0.102649322921477 
735	 0.102890587115779 
736	 0.102968972962256 
737	 0.102915059144371 
738	 0.103182986807483 
739	 0.103606263593103 
740	 0.103746157456843 
741	 0.103926492542196 
742	 0.104177927057299 
743	 0.104257574035327 
744	 0.104154025258898 
745	 0.10391831887429 
746	 0.104206926877488 
747	 0.104835689632975 
748	 0.105128713547994 
749	 0.105177753993794 
750	 0.105058367091595 
751	 0.105144057880628 
752	 0.105238224766703 
753	 0.105115112889976 
754	 0.105121442486254 
755	 0.105203639870774 
756	 0.104993574909469 
757	 0.104813661696096 
758	 0.104799093451502 
759	 0.104785864459724 
760	 0.105003747389501 
761	 0.105887540877132 
762	 0.105869912666965 
763	 0.105346434985765 
764	 0.106168122297753 
765	 0.10697312526682 
766	 0.107236475349549 
767	 0.107134078586552 
768	 0.106982270745914 
769	 0.107114259310552 
770	 0.107103760071939 
771	 0.106952881181709 
772	 0.107070224542133 
773	 0.107092812868475 
774	 0.106842164045202 
775	 0.107017692696353 
776	 0.107361151809432 
777	 0.107236244370496 
778	 0.107085489062487 
779	 0.107042456117364 
780	 0.106999024899734 
781	 0.107329944162165 
782	 0.108211954046241 
783	 0.108252525270485 
784	 0.107868671103979 
785	 0.108500568016126 
786	 0.108683496718024 
787	 0.108193326582952 
788	 0.10837359107128 
789	 0.108684219545947 
790	 0.108590306625467 
791	 0.108672125043619 
792	 0.108831570871636 
793	 0.10854262197375 
794	 0.108490112373095 
795	 0.10882956998305 
796	 0.109039595122729 
797	 0.108943696814024 
798	 0.108456843674973 
799	 0.108580012856085 
800	 0.109084217045887 
801	 0.108699256868208 
802	 0.108792282357957 
803	 0.109633153558935 
804	 0.109650222264546 
805	 0.109286536700178 
806	 0.109137002209663 
807	 0.108701965549255 
808	 0.108339067290115 
809	 0.109395220908942 
810	 0.110021668485807 
811	 0.109540482408174 
812	 0.1093743472358 
813	 0.109466229685511 
814	 0.109590216840371 
815	 0.109870985566649 
816	 0.110136663545185 
817	 0.109798956409156 
818	 0.109590109918409 
819	 0.10982438964136 
820	 0.110213775761476 
821	 0.110635823710303 
822	 0.110970454266227 
823	 0.111170101452245 
824	 0.111085828650222 
825	 0.110252582553368 
826	 0.110056715745192 
827	 0.110927037050763 
828	 0.111492500588224 
829	 0.111522810244326 
830	 0.110940059019283 
831	 0.110496360360665 
832	 0.11042480905554 
833	 0.110727198859331 
834	 0.111360517862622 
835	 0.112059008739443 
836	 0.111634718379006 
837	 0.111001059307647 
838	 0.111279840114705 
839	 0.111721681110231 
840	 0.112038793246257 
841	 0.111913937067286 
842	 0.111601912321479 
843	 0.111277186568879 
844	 0.111077034013902 
845	 0.111413744249171 
846	 0.112621777783885 
847	 0.112222643111137 
848	 0.110708428992144 
849	 0.111073861203482 
850	 0.111478562498753 
851	 0.111234292263966 
852	 0.110616861319901 
853	 0.110884623710224 
854	 0.11311019322795 
855	 0.113041209374686 
856	 0.111460175410682 
857	 0.112669627492115 
858	 0.113077727751248 
859	 0.111919812219057 
860	 0.111607216790426 
861	 0.1118522758616 
862	 0.112243634926504 
863	 0.112760453721581 
864	 0.11295431381457 
865	 0.11174556678414 
866	 0.111445041054986 
867	 0.112560849845863 
868	 0.113362261611194 
869	 0.11331857332308 
870	 0.112298443594719 
871	 0.112929579170119 
872	 0.114040492374796 
873	 0.112463668287611 
874	 0.112285353741487 
875	 0.113979766039248 
876	 0.114247703978801 
877	 0.11354864568068 
878	 0.112483882257982 
879	 0.1128401633869 
880	 0.114066071406154 
881	 0.1148543837993 
882	 0.114759977268795 
883	 0.113906748360601 
884	 0.113288093136946 
885	 0.112983460173382 
886	 0.113091774574804 
887	 0.113752973700905 
888	 0.114392565298733 
889	 0.114271453308562 
890	 0.114303803668255 
891	 0.114375861662502 
892	 0.113348575802169 
893	 0.112681399817882 
894	 0.112999932280943 
895	 0.113401085013546 
896	 0.113463901783759 
897	 0.112889076646428 
898	 0.113614907446001 
899	 0.115149545078556 
900	 0.115325727325393 
901	 0.114782124222964 
902	 0.113853329754886 
903	 0.113054305325817 
904	 0.112393277043428 
905	 0.112056547120032 
906	 0.113882024888566 
907	 0.116368544805959 
908	 0.116513621003259 
909	 0.115449061916208 
910	 0.114293770576001 
911	 0.115950404734249 
912	 0.117579648832084 
913	 0.117538225411538 
914	 0.117282437609728 
915	 0.116453387224129 
916	 0.114555812006595 
917	 0.114044400131561 
918	 0.114836807535204 
919	 0.115339502963178 
920	 0.115122370531229 
921	 0.114278913854689 
922	 0.114556826248402 
923	 0.114619870343524 
924	 0.113385528288034 
925	 0.11361419177146 
926	 0.114499808557616 
927	 0.113214917086757 
928	 0.112807453007741 
929	 0.113801733849031 
930	 0.112871123365489 
931	 0.112682920446167 
932	 0.115209866779018 
933	 0.117632894196955 
934	 0.117465531871468 
935	 0.112426284714801 
936	 0.111442641195361 
937	 0.11420370771053 
938	 0.113353373399432 
939	 0.11523274528502 
940	 0.11929758188768 
941	 0.115144040154283 
942	 0.113195872530633 
943	 0.119760888816487 
944	 0.116185423961007 
945	 0.108662853530284 
946	 0.110882303554889 
947	 0.114990026211235 
948	 0.117846314272336 
949	 0.116027867442371 
950	 0.114543138428425 
951	 0.115392975528466 
952	 0.116580308064883 
953	 0.115970510435141 
954	 0.112566304820941 
955	 0.116954779992376 
956	 0.122500587548009 
957	 0.114448074548424 
958	 0.113366331714556 
959	 0.120314369386616 
960	 0.120485392325673 
961	 0.118299155404212 
962	 0.115911434400053 
963	 0.112175336411884 
964	 0.110386093108412 
965	 0.113395872626463 
966	 0.116221832601299 
967	 0.116089099091922 
968	 0.108790842612598 
969	 0.109012421181487 
970	 0.116984829834603 
971	 0.118200700136318 
972	 0.117089262726004 
973	 0.116047851782106 
974	 0.113873455000991 
975	 0.113099718973548 
976	 0.11605025906787 
977	 0.11305890645477 
978	 0.108303509303907 
979	 0.11494411960687 
980	 0.11780393998596 
981	 0.115076670928193 
982	 0.118493122218404 
983	 0.118516636731569 
984	 0.112207685453293 
985	 0.115433292487111 
986	 0.121000304700254 
987	 0.120061144622168 
988	 0.116543483542626 
989	 0.112985858425794 
990	 0.112850683615123 
991	 0.116061065635657 
992	 0.120417957948708 
993	 0.118284079613166 
994	 0.116952507098293 
995	 0.119170206825309 
996	 0.117220805607878 
997	 0.115012124387936 
998	 0.11637907150082 
999	 0.1152724137807 
1000	 0.111747330923944 
1001	 0.107536984665073 
1002	 0.108532948689206 
1003	 0.113634568481988 
1004	 0.11282532430357 
1005	 0.115600900988482 
1006	 0.123004896157268 
1007	 0.12075505867439 
1008	 0.115718809835753 
1009	 0.113776185777678 
1010	 0.111140436418041 
1011	 0.11008732854746 
1012	 0.113957361719906 
1013	 0.11541717050379 
1014	 0.114723926958554 
1015	 0.117022471100604 
1016	 0.118542068589454 
1017	 0.118015873274067 
1018	 0.114223874546609 
1019	 0.115882829306762 
1020	 0.124735541186877 
1021	 0.120400549052399 
1022	 0.110217134219037 
1023	 0.104708169506619 
1024	 0.113088528289325 
1025	 0.125550998475898 
1026	 0.12364710869966 
1027	 0.124490546019742 
1028	 0.127837637105368 
1029	 0.120899493455178 
1030	 0.112211159897676 
1031	 0.106089727543626 
1032	 0.104288330445586 
1033	 0.106286287394001 
1034	 0.111307830404897 
1035	 0.117769726331694 
1036	 0.122952422278314 
1037	 0.124301579498826 
1038	 0.121972032244464 
1039	 0.11492292020438 
1040	 0.101936199054131 
1041	 0.108736995681723 
1042	 0.127793910188387 
1043	 0.118363348338677 
1044	 0.113642963995394 
1045	 0.119866165974768 
1046	 0.110431596591258 
1047	 0.10221294466505 
1048	 0.106005696690039 
1049	 0.117336259552724 
1050	 0.121249781012573 
1051	 0.106953394880911 
1052	 0.116205618260903 
1053	 0.130553437759911 
1054	 0.11504038527478 
1055	 0.106374384720975 
1056	 0.109706869000385 
1057	 0.117144864953415 
1058	 0.122775716372386 
1059	 0.125292280850509 
1060	 0.129973176299068 
1061	 0.134470642970291 
1062	 0.135477844303087 
1063	 0.120730809636453 
1064	 0.120173531163436 
1065	 0.147347359005433 
1066	 0.129206469548848 
1067	 8.82803126651169E-02 
1068	 5.69915583406702E-02 
1069	 6.95492842445903E-02 
1070	 0.110596071639255 
1071	 0.133454931615934 
1072	 0.126417182354151 
1073	 0.106177470154284 
1074	 0.125479346430733 
1075	 0.138258472984231 
