Wavelength	SHSI00015.asd
325	 3.13144850938251E-02 
326	 3.88060945341897E-02 
327	 5.13057902248968E-02 
328	 4.59989815264468E-02 
329	 4.06625529228227E-02 
330	 0.041315690000039 
331	 4.02766133426479E-02 
332	 3.92512698081589E-02 
333	 4.02545340190359E-02 
334	 4.22427875965914E-02 
335	 4.34782844244575E-02 
336	 4.00041012338358E-02 
337	 3.90336808221808E-02 
338	 4.23018355803876E-02 
339	 4.69194519898872E-02 
340	 4.92546104422238E-02 
341	 4.71082375985042E-02 
342	 0.045861303280227 
343	 4.58310150430387E-02 
344	 4.61902982941172E-02 
345	 4.33690489832383E-02 
346	 3.87140953663883E-02 
347	 4.08989241268171E-02 
348	 4.42609362716808E-02 
349	 4.48512757039579E-02 
350	 4.42908199500561E-02 
351	 4.43850904299563E-02 
352	 4.78104001635266E-02 
353	 4.82045775287866E-02 
354	 4.56751586852543E-02 
355	 4.66045441138207E-02 
356	 4.83245037581413E-02 
357	 0.049008252210956 
358	 4.81984374308248E-02 
359	 4.70411590876593E-02 
360	 4.73231812566632E-02 
361	 4.78157517367259E-02 
362	 4.79114298622057E-02 
363	 4.65451744211127E-02 
364	 4.60954357177515E-02 
365	 4.74604021753622E-02 
366	 4.77409176136178E-02 
367	 4.70460549038083E-02 
368	 4.59245745712976E-02 
369	 4.57454519162786E-02 
370	 0.046180010207013 
371	 4.43821346417794E-02 
372	 4.51883189009343E-02 
373	 4.99213249277127E-02 
374	 4.84665072856545E-02 
375	 4.47543335564446E-02 
376	 4.55576308858582E-02 
377	 4.53183604685892E-02 
378	 4.36557911131225E-02 
379	 4.33428044138937E-02 
380	 4.34503401018704E-02 
381	 0.043778900817024 
382	 0.046336676629646 
383	 4.81077900433739E-02 
384	 4.50697895033917E-02 
385	 4.46001270646668E-02 
386	 4.66127294073523E-02 
387	 0.0451260760912 
388	 4.39398188693491E-02 
389	 4.42888993730932E-02 
390	 4.26884832265004E-02 
391	 0.041518584411707 
392	 4.37519977709696E-02 
393	 4.38888722222845E-02 
394	 0.042260146607715 
395	 4.35979986333783E-02 
396	 4.36714008919106E-02 
397	 4.13938497702935E-02 
398	 4.05912258430393E-02 
399	 4.09391523180198E-02 
400	 4.17065671722093E-02 
401	 4.12035239297156E-02 
402	 4.00611706291517E-02 
403	 4.06697631899565E-02 
404	 4.13204844210495E-02 
405	 4.13521169572925E-02 
406	 4.13911607525267E-02 
407	 4.15046816660358E-02 
408	 4.17061895098076E-02 
409	 4.12954633461577E-02 
410	 4.05387265516211E-02 
411	 4.05446966146274E-02 
412	 4.09085391867582E-02 
413	 0.041385841937503 
414	 0.041889584687836 
415	 4.19077507645427E-02 
416	 4.08350734134632E-02 
417	 4.02075588218123E-02 
418	 4.02430798382067E-02 
419	 4.03822822652232E-02 
420	 4.02698410646257E-02 
421	 3.98061555239012E-02 
422	 0.039779935516996 
423	 4.01957541125922E-02 
424	 4.09405496535044E-02 
425	 4.10932231433601E-02 
426	 4.06147127332125E-02 
427	 4.02758539446349E-02 
428	 4.03667737920309E-02 
429	 4.09353697901738E-02 
430	 4.07135474585886E-02 
431	 4.01025643725016E-02 
432	 4.00642662677514E-02 
433	 0.039916895247541 
434	 3.95726694812195E-02 
435	 3.92994754448149E-02 
436	 0.039200208446744 
437	 0.039335167498878 
438	 3.96309792873752E-02 
439	 3.99189739605499E-02 
440	 3.99493346415251E-02 
441	 3.97491714217466E-02 
442	 3.94609180452351E-02 
443	 3.95737751974029E-02 
444	 3.99043658455135E-02 
445	 4.02603400279603E-02 
446	 4.03746267643288E-02 
447	 4.03515745507121E-02 
448	 4.05176790812528E-02 
449	 4.08059071279464E-02 
450	 4.11735731848436E-02 
451	 4.15297955798461E-02 
452	 4.17218164182095E-02 
453	 4.16191189472215E-02 
454	 4.14786154327649E-02 
455	 4.13949613536143E-02 
456	 0.041403131732742 
457	 4.16895028967679E-02 
458	 4.21631017548554E-02 
459	 4.18301348289821E-02 
460	 4.14844692143861E-02 
461	 4.21293508993369E-02 
462	 4.26171754362088E-02 
463	 4.26584991438788E-02 
464	 0.04222940300766 
465	 4.17809729121551E-02 
466	 4.16445423663023E-02 
467	 4.21199084324875E-02 
468	 4.27844925391863E-02 
469	 4.29932265667117E-02 
470	 0.042878893712295 
471	 4.26927799001221E-02 
472	 4.32102814604394E-02 
473	 0.043664043438524 
474	 4.35722826623502E-02 
475	 4.32907000186619E-02 
476	 4.30895217988794E-02 
477	 4.33586546829066E-02 
478	 4.33307559770549E-02 
479	 4.30307116265878E-02 
480	 4.35803689630105E-02 
481	 4.40972025494187E-02 
482	 0.043894263243729 
483	 4.38377018819244E-02 
484	 4.40421909549758E-02 
485	 4.44626802350747E-02 
486	 4.46035141901197E-02 
487	 0.044333405798979 
488	 4.40977721914195E-02 
489	 4.40696479493636E-02 
490	 4.43637859675784E-02 
491	 4.46537649493934E-02 
492	 4.47967023152035E-02 
493	 4.45743826107788E-02 
494	 0.044556221515065 
495	 4.49569495368632E-02 
496	 4.53428382502183E-02 
497	 4.57104316313216E-02 
498	 4.61150093454473E-02 
499	 4.63778937168496E-02 
500	 4.64639530059263E-02 
501	 4.63992551518242E-02 
502	 4.64375256859142E-02 
503	 4.67133910557014E-02 
504	 4.68888290464782E-02 
505	 4.71579557476296E-02 
506	 4.79279874196074E-02 
507	 4.85229833156034E-02 
508	 4.87771142773891E-02 
509	 4.88696490592463E-02 
510	 4.90631462794137E-02 
511	 4.95561719384804E-02 
512	 5.01110284598762E-02 
513	 5.07376711273947E-02 
514	 5.16542890405593E-02 
515	 5.20931898442669E-02 
516	 5.19326595451093E-02 
517	 5.22489013308564E-02 
518	 5.27058420601974E-02 
519	 0.052869490941164 
520	 0.053267131478591 
521	 5.39398076187056E-02 
522	 5.48000336706344E-02 
523	 5.53456061673683E-02 
524	 5.54416515330454E-02 
525	 5.59094278902811E-02 
526	 5.65940226312723E-02 
527	 5.71435947858103E-02 
528	 5.76494280526528E-02 
529	 5.80948919239612E-02 
530	 0.058356102695628 
531	 5.88090038365125E-02 
532	 5.96378366687758E-02 
533	 0.060038088269986 
534	 6.02471358589981E-02 
535	 6.09630292395019E-02 
536	 6.17003754525544E-02 
537	 6.23265245345591E-02 
538	 6.29893959823154E-02 
539	 6.35051433397368E-02 
540	 6.37168541424183E-02 
541	 6.41491276095904E-02 
542	 6.47697476908366E-02 
543	 6.51920598446788E-02 
544	 6.56683757514813E-02 
545	 6.62388922471665E-02 
546	 6.64756902611377E-02 
547	 0.066713569631043 
548	 6.74269071757412E-02 
549	 6.79918310627976E-02 
550	 6.83171162985947E-02 
551	 6.86349029635863E-02 
552	 6.90869639877923E-02 
553	 6.97320327862665E-02 
554	 7.02435922480786E-02 
555	 7.05790896338376E-02 
556	 7.07401396541974E-02 
557	 7.10454614861726E-02 
558	 7.15404924628605E-02 
559	 7.19044144647805E-02 
560	 7.20744154253158E-02 
561	 7.20472312454309E-02 
562	 7.24241800834126E-02 
563	 7.30281637434968E-02 
564	 0.073097116264157 
565	 7.31110004346715E-02 
566	 7.32596070726555E-02 
567	 7.34654309689899E-02 
568	 7.36766409839662E-02 
569	 7.38327690626463E-02 
570	 7.39822369775274E-02 
571	 7.40666147469937E-02 
572	 0.073837289271414 
573	 0.073702661974617 
574	 7.38946326111871E-02 
575	 0.074097333724216 
576	 7.41793468402027E-02 
577	 7.39646850097527E-02 
578	 7.40240898533457E-02 
579	 0.074434535849744 
580	 7.46824818405366E-02 
581	 7.46947304159056E-02 
582	 0.074467976897207 
583	 7.46440289422431E-02 
584	 7.49831233866331E-02 
585	 7.44931790980465E-02 
586	 7.42458481414254E-02 
587	 7.45694285310674E-02 
588	 7.45810139942022E-02 
589	 7.44721977579889E-02 
590	 7.45943201786134E-02 
591	 7.46939710266102E-02 
592	 7.47522684229791E-02 
593	 7.48815201038417E-02 
594	 7.51645555354558E-02 
595	 7.55502627680738E-02 
596	 7.51657886522212E-02 
597	 7.46603476837507E-02 
598	 7.53753660514044E-02 
599	 7.59704014342273E-02 
600	 7.60223290039085E-02 
601	 7.56873869298282E-02 
602	 7.52384302216758E-02 
603	 7.49520507120112E-02 
604	 7.51544074007348E-02 
605	 7.55583683299694E-02 
606	 7.52873908863918E-02 
607	 7.50468987270146E-02 
608	 7.50595093141311E-02 
609	 7.48944626351988E-02 
610	 7.46665763741211E-02 
611	 7.45614837718665E-02 
612	 7.40175773489004E-02 
613	 7.32340051405617E-02 
614	 7.33012967597347E-02 
615	 7.34816603661285E-02 
616	 7.33193461190124E-02 
617	 0.073072582578383 
618	 7.27869866629422E-02 
619	 7.24788518369093E-02 
620	 7.22295957758718E-02 
621	 7.20821575821158E-02 
622	 7.20294844179871E-02 
623	 7.22271968157233E-02 
624	 7.27508657346803E-02 
625	 7.27130195068405E-02 
626	 7.22343152839694E-02 
627	 7.20812961848707E-02 
628	 7.19197179530258E-02 
629	 7.17373154487582E-02 
630	 7.21228562134676E-02 
631	 7.25348547673415E-02 
632	 7.22638935155794E-02 
633	 7.22630193227277E-02 
634	 7.25954119781246E-02 
635	 7.27268777252073E-02 
636	 7.26421421535516E-02 
637	 7.23688933284038E-02 
638	 7.22421792186951E-02 
639	 7.22809788767935E-02 
640	 7.23985434564139E-02 
641	 7.29176726920199E-02 
642	 7.36633286851621E-02 
643	 0.073545724510994 
644	 7.32599794724053E-02 
645	 7.34155970044878E-02 
646	 7.32541119168462E-02 
647	 7.28469089701207E-02 
648	 7.27448665995427E-02 
649	 7.25671989236203E-02 
650	 7.22272086463898E-02 
651	 7.20962316833938E-02 
652	 7.19523502519847E-02 
653	 7.14988096122371E-02 
654	 7.10380263438655E-02 
655	 7.05295740818007E-02 
656	 6.96775203636224E-02 
657	 6.87291992184019E-02 
658	 6.78749803115337E-02 
659	 6.69312898659294E-02 
660	 0.066055368424754 
661	 6.55723980391713E-02 
662	 6.47951220726685E-02 
663	 6.36221652341059E-02 
664	 0.062575136306302 
665	 6.15488699172959E-02 
666	 0.060457879940899 
667	 0.059502438717219 
668	 0.058697702631264 
669	 5.79071894143482E-02 
670	 5.75568625933039E-02 
671	 5.76630210298419E-02 
672	 5.73611064520548E-02 
673	 5.70446134721021E-02 
674	 5.72246348719277E-02 
675	 5.70628710053187E-02 
676	 0.056582952264468 
677	 5.63665551300166E-02 
678	 5.65755246363774E-02 
679	 5.72479283654052E-02 
680	 5.78297868253706E-02 
681	 5.83943776050952E-02 
682	 5.91866328739485E-02 
683	 5.99693143655849E-02 
684	 6.08206536189331E-02 
685	 6.23755304987082E-02 
686	 6.40395887669434E-02 
687	 6.53175874338703E-02 
688	 6.72449508355792E-02 
689	 0.069745149126823 
690	 7.27028468558845E-02 
691	 0.075131326927897 
692	 7.69647859621471E-02 
693	 7.93364891688013E-02 
694	 8.19947875102413E-02 
695	 8.45028017700358E-02 
696	 8.68972439257319E-02 
697	 8.91215644114738E-02 
698	 9.10285886811627E-02 
699	 9.33490747462373E-02 
700	 9.62118937808958E-02 
701	 9.81270766503254E-02 
702	 9.94348315340333E-02 
703	 0.100860356997696 
704	 0.102317869384 
705	 0.103843079509512 
706	 0.105496914466109 
707	 0.106904327211543 
708	 0.107862420619673 
709	 0.108926334559355 
710	 0.110023799278118 
711	 0.110870108538257 
712	 0.111653707490867 
713	 0.112480761593595 
714	 0.113570884154246 
715	 0.114605049723361 
716	 0.115315042138062 
717	 0.115623346570356 
718	 0.115912712763902 
719	 0.117433793062214 
720	 0.1183334051162 
721	 0.118230844747886 
722	 0.118926360722353 
723	 0.119842408911304 
724	 0.12020280794732 
725	 0.120668945163443 
726	 0.121276482738994 
727	 0.121771477645473 
728	 0.122256131883908 
729	 0.122783030466194 
730	 0.123376317825581 
731	 0.123894096504736 
732	 0.124145891990137 
733	 0.124517448667931 
734	 0.125021749852269 
735	 0.125353278466428 
736	 0.125631032441423 
737	 0.125939976756341 
738	 0.126378145248827 
739	 0.126913613633988 
740	 0.127455021590756 
741	 0.128049698827425 
742	 0.128552513768082 
743	 0.128342651216136 
744	 0.128161735285889 
745	 0.128610083292866 
746	 0.128781087912978 
747	 0.128898918927535 
748	 0.12996431570993 
749	 0.13063055230872 
750	 0.130518238016404 
751	 0.130532285795548 
752	 0.130642053836722 
753	 0.130759812164832 
754	 0.131255637197434 
755	 0.131844877692323 
756	 0.131555455573499 
757	 0.131129523434976 
758	 0.13087273073586 
759	 0.130388491934186 
760	 0.130093959662115 
761	 0.131624194481026 
762	 0.132043333493987 
763	 0.131431059755457 
764	 0.132188431170515 
765	 0.133220636192404 
766	 0.133931573761097 
767	 0.13364079275962 
768	 0.133451783948596 
769	 0.134709789276646 
770	 0.135375476916205 
771	 0.135164816695272 
772	 0.134946904155614 
773	 0.134976949973788 
774	 0.13538362113115 
775	 0.135563168316264 
776	 0.135681999528084 
777	 0.136222543743505 
778	 0.136563658999194 
779	 0.13660541193899 
780	 0.136784800058969 
781	 0.13698482578682 
782	 0.137109959129717 
783	 0.137255542640452 
784	 0.137362000457597 
785	 0.137229282892962 
786	 0.137462623737452 
787	 0.13808330193109 
788	 0.138174713028457 
789	 0.137964018772386 
790	 0.137738642810181 
791	 0.137761180590013 
792	 0.138068050349565 
793	 0.138639113590316 
794	 0.138912347075651 
795	 0.13878098335391 
796	 0.138989141196725 
797	 0.139121777772168 
798	 0.138751085755506 
799	 0.138415425010281 
800	 0.138298588960004 
801	 0.138563911839511 
802	 0.138994114945018 
803	 0.139385377900228 
804	 0.139231785614955 
805	 0.139090787078374 
806	 0.139572442398675 
807	 0.139931167652089 
808	 0.140045712358892 
809	 0.140019381933822 
810	 0.140039672316921 
811	 0.140170604089943 
812	 0.140174377901081 
813	 0.140025081097714 
814	 0.13975529026244 
815	 0.140707013604796 
816	 0.14249386931116 
817	 0.142844649355089 
818	 0.142769312390096 
819	 0.142680360397553 
820	 0.142088920018414 
821	 0.141944985278659 
822	 0.143330522624783 
823	 0.143830367228181 
824	 0.143418932501531 
825	 0.143817049527789 
826	 0.144036713467023 
827	 0.143759444531365 
828	 0.143461258887941 
829	 0.143588350204415 
830	 0.144574873528748 
831	 0.145355114190161 
832	 0.14568607092712 
833	 0.145720033645602 
834	 0.145555573276747 
835	 0.145258358797545 
836	 0.144623612747346 
837	 0.144587828127611 
838	 0.146114102011116 
839	 0.146373030126436 
840	 0.145670879865168 
841	 0.146823954529689 
842	 0.147538973105366 
843	 0.146949638988246 
844	 0.146094933649008 
845	 0.145398821992707 
846	 0.145245726326153 
847	 0.145901120972844 
848	 0.146766075507521 
849	 0.146117765704967 
850	 0.14495926444905 
851	 0.14401286032449 
852	 0.14469198432587 
853	 0.145855803351429 
854	 0.146113640514284 
855	 0.145484802796763 
856	 0.144630263595436 
857	 0.14521023650533 
858	 0.145640570143332 
859	 0.145401655159505 
860	 0.144756446268898 
861	 0.14447294999665 
862	 0.145182594632911 
863	 0.145328327711146 
864	 0.145092162385107 
865	 0.145646546948316 
866	 0.145980288876223 
867	 0.14597964554696 
868	 0.146854181620784 
869	 0.14737225516624 
870	 0.146667376678535 
871	 0.146639718114272 
872	 0.147530931652414 
873	 0.1492829324148 
874	 0.149956043013604 
875	 0.149246341507317 
876	 0.148697115934487 
877	 0.148716680209893 
878	 0.149541286070987 
879	 0.150585073017343 
880	 0.151579521823163 
881	 0.152289180743099 
882	 0.152303608539873 
883	 0.151853761642162 
884	 0.151992717095146 
885	 0.152812129246023 
886	 0.154106146190119 
887	 0.154067857860123 
888	 0.153660942120327 
889	 0.154403419068938 
890	 0.154512571703923 
891	 0.154203119058551 
892	 0.155555340284987 
893	 0.156436851589838 
894	 0.155907565980968 
895	 0.154965212947824 
896	 0.154470883689598 
897	 0.155308372843525 
898	 0.156498946889774 
899	 0.157369772055052 
900	 0.156762669038773 
901	 0.157703759399642 
902	 0.160236291764204 
903	 0.159787653865857 
904	 0.159035065067725 
905	 0.159881073107642 
906	 0.158706316810215 
907	 0.156939673869905 
908	 0.157987163888165 
909	 0.159345136202269 
910	 0.160058701414137 
911	 0.15937862177111 
912	 0.159790862245152 
913	 0.162024466107187 
914	 0.160676361592623 
915	 0.158421597684517 
916	 0.159141229388342 
917	 0.159841537406543 
918	 0.160325107724967 
919	 0.161683082058726 
920	 0.163761743455236 
921	 0.165543489688033 
922	 0.162674157223226 
923	 0.159359553863936 
924	 0.159381313016216 
925	 0.159363826166622 
926	 0.158817101116755 
927	 0.157843810668977 
928	 0.157402351221628 
929	 0.15786924045509 
930	 0.158932426172277 
931	 0.159538871484401 
932	 0.159018366504101 
933	 0.160409207203707 
934	 0.161034007388012 
935	 0.156571635724564 
936	 0.151814228059386 
937	 0.150549305887985 
938	 0.159629243179776 
939	 0.161577604272805 
940	 0.154130787812377 
941	 0.154588287425722 
942	 0.156855105624518 
943	 0.156267711237499 
944	 0.155750152315966 
945	 0.156240957064745 
946	 0.158695516617821 
947	 0.157161774419203 
948	 0.153193906364197 
949	 0.156845979788326 
950	 0.161280334422615 
951	 0.162197799971543 
952	 0.154320812720196 
953	 0.147708038379922 
954	 0.151488988073462 
955	 0.156300877761543 
956	 0.158000979103346 
957	 0.152204921580032 
958	 0.152435098843819 
959	 0.158688370979631 
960	 0.15800016279968 
961	 0.157389517259087 
962	 0.159422299391135 
963	 0.158673589011604 
964	 0.157572495822088 
965	 0.158603894130944 
966	 0.158195384567065 
967	 0.157280152110349 
968	 0.158648590015118 
969	 0.162087046686819 
970	 0.16555951550628 
971	 0.162345302732983 
972	 0.158816556178725 
973	 0.159067339786748 
974	 0.164329259426275 
975	 0.167689966212161 
976	 0.162182612887995 
977	 0.159346912370579 
978	 0.159268713708697 
979	 0.156445147056149 
980	 0.159503773123206 
981	 0.167088801784583 
982	 0.165107742547557 
983	 0.161084637026531 
984	 0.1593138274404 
985	 0.158176222154116 
986	 0.158464980966535 
987	 0.160796455615103 
988	 0.161440479017642 
989	 0.161288683627655 
990	 0.163692581510329 
991	 0.164011360204009 
992	 0.16207513569649 
993	 0.162234833264695 
994	 0.163257146070163 
995	 0.164521895478729 
996	 0.166427269489344 
997	 0.167343631874587 
998	 0.165870637006006 
999	 0.165630353885317 
1000	 0.165209975154692 
1001	 0.161027391755646 
1002	 0.162279405185299 
1003	 0.168652102925428 
1004	 0.171861832949359 
1005	 0.170342711863502 
1006	 0.165534312937949 
1007	 0.169083551005409 
1008	 0.172808398499331 
1009	 0.170315079393044 
1010	 0.17002633313319 
1011	 0.170539146219346 
1012	 0.168630261835771 
1013	 0.166266903436993 
1014	 0.166007842560009 
1015	 0.173396200751267 
1016	 0.173219291429121 
1017	 0.164146665102102 
1018	 0.162386632925643 
1019	 0.164547610321545 
1020	 0.167958412098299 
1021	 0.168870201263998 
1022	 0.169323848768916 
1023	 0.171291895872136 
1024	 0.169044204634657 
1025	 0.166516214562249 
1026	 0.171727373955217 
1027	 0.169175367646705 
1028	 0.16097803923686 
1029	 0.165249503367862 
1030	 0.170306658350187 
1031	 0.171959061088314 
1032	 0.171701427440494 
1033	 0.170362398108614 
1034	 0.167369753757202 
1035	 0.154231149302444 
1036	 0.147899633588876 
1037	 0.163376983268386 
1038	 0.167320922044447 
1039	 0.162612111655042 
1040	 0.164465829955333 
1041	 0.155402753465078 
1042	 0.144634074492238 
1043	 0.174456207947224 
1044	 0.182016703455425 
1045	 0.16042667546369 
1046	 0.183224981720633 
1047	 0.185087824456582 
1048	 0.137952460791588 
1049	 0.145832197856102 
1050	 0.175474227686339 
1051	 0.183520588387782 
1052	 0.174418019246211 
1053	 0.161944084579276 
1054	 0.164007964394472 
1055	 0.165186359141267 
1056	 0.160529253955977 
1057	 0.145243983482917 
1058	 0.144818355917941 
1059	 0.163185920832464 
1060	 0.182741747716911 
1061	 0.169444590807846 
1062	 0.121154215076196 
1063	 0.117491168784218 
1064	 0.14455516525228 
1065	 0.179907795033948 
1066	 0.169055299323146 
1067	 0.148460213336887 
1068	 0.1633916031509 
1069	 0.169665102351208 
1070	 0.171170352818126 
1071	 0.184666287917667 
1072	 0.167108255460724 
1073	 0.140676339133272 
1074	 0.173675167672777 
1075	 0.194114455506827 
