Wavelength	SHSI00376.asd
325	 7.60786897337748E-02 
326	 8.42458907449189E-02 
327	 8.58817395352162E-02 
328	 8.89849153990915E-02 
329	 9.04795832937072E-02 
330	 8.95698402201038E-02 
331	 8.72452405758012E-02 
332	 8.42658207778282E-02 
333	 8.11486996605559E-02 
334	 0.074139175182326 
335	 6.74132340043571E-02 
336	 7.15316775984474E-02 
337	 7.56407679901221E-02 
338	 0.076132014974471 
339	 0.073953629483114 
340	 7.28517426098473E-02 
341	 7.51895743979115E-02 
342	 7.22555753116634E-02 
343	 6.77539489383227E-02 
344	 7.08207725746457E-02 
345	 7.43748110364821E-02 
346	 0.076550955134429 
347	 0.078702605178018 
348	 0.078861970085504 
349	 7.62230022158078E-02 
350	 7.52373526059839E-02 
351	 0.074560998671679 
352	 7.09887654526149E-02 
353	 6.86293111077176E-02 
354	 6.92435180448103E-02 
355	 7.54433730597859E-02 
356	 7.92353369961576E-02 
357	 7.65459277090117E-02 
358	 7.49020862819736E-02 
359	 7.49331296622199E-02 
360	 7.60960915363114E-02 
361	 7.51992962639625E-02 
362	 7.26232026235076E-02 
363	 7.22594367754681E-02 
364	 7.27188391361366E-02 
365	 7.32278368413182E-02 
366	 7.42213743028929E-02 
367	 7.45312117118986E-02 
368	 0.072614947244406 
369	 7.25609720909428E-02 
370	 7.42210527497752E-02 
371	 7.36917983123438E-02 
372	 7.34241853475435E-02 
373	 7.44077952407396E-02 
374	 7.40786559528214E-02 
375	 0.072840997311979 
376	 7.16224401381412E-02 
377	 7.10169610739334E-02 
378	 7.14167478280278E-02 
379	 7.36791760817744E-02 
380	 7.43257209972691E-02 
381	 0.072247754146107 
382	 7.27679733490676E-02 
383	 7.39976144183982E-02 
384	 0.072831092959957 
385	 7.20093807551464E-02 
386	 7.20828356363865E-02 
387	 7.27720987780442E-02 
388	 7.25679963180425E-02 
389	 7.10685171083065E-02 
390	 7.02748557985621E-02 
391	 7.00122250181188E-02 
392	 6.98495536161295E-02 
393	 7.00777601053737E-02 
394	 7.07034691774547E-02 
395	 7.20979882408912E-02 
396	 7.11557559790841E-02 
397	 6.75335571319554E-02 
398	 6.67620728905685E-02 
399	 6.67924924412541E-02 
400	 6.51318522299139E-02 
401	 6.62429843477897E-02 
402	 6.89193738745575E-02 
403	 6.84932569609455E-02 
404	 6.78103012814664E-02 
405	 6.79849022600648E-02 
406	 6.81768561893738E-02 
407	 6.85678648890654E-02 
408	 6.94313916741134E-02 
409	 6.96859714096558E-02 
410	 6.92567389561895E-02 
411	 6.86756200905488E-02 
412	 0.068005515198452 
413	 6.74739331801315E-02 
414	 0.068143704063681 
415	 6.89474932601012E-02 
416	 6.84382683447376E-02 
417	 6.82921657432131E-02 
418	 6.86947170346454E-02 
419	 0.069002874220091 
420	 6.90541719231903E-02 
421	 6.88516283497255E-02 
422	 6.92018874148184E-02 
423	 6.96046108234765E-02 
424	 6.92204836799294E-02 
425	 6.87982349342171E-02 
426	 6.87815619529343E-02 
427	 0.070034192245498 
428	 7.11041845326174E-02 
429	 7.09926121791738E-02 
430	 7.00205190720354E-02 
431	 6.89166351232178E-02 
432	 6.87548680809067E-02 
433	 6.88601912260661E-02 
434	 6.89991849238818E-02 
435	 6.90182247152557E-02 
436	 6.92222858149753E-02 
437	 6.97277718062672E-02 
438	 6.96413399159689E-02 
439	 6.92931133531894E-02 
440	 6.95096254692431E-02 
441	 6.98554348991496E-02 
442	 7.00882475783357E-02 
443	 0.069741661127662 
444	 6.94429081915405E-02 
445	 6.97040946487606E-02 
446	 7.03107262295585E-02 
447	 7.08509738068625E-02 
448	 7.04718185423709E-02 
449	 7.03613100670482E-02 
450	 7.08205337137165E-02 
451	 7.11064172022109E-02 
452	 7.14331590111012E-02 
453	 7.20054391491207E-02 
454	 7.19302628113739E-02 
455	 7.13844167419743E-02 
456	 7.13045953302179E-02 
457	 7.13971285516155E-02 
458	 7.15574385781719E-02 
459	 7.17814987443005E-02 
460	 7.19161138820485E-02 
461	 7.18021002506365E-02 
462	 7.19700268450159E-02 
463	 0.072355762340818 
464	 7.23931427860208E-02 
465	 0.072317342880979 
466	 7.22332274187996E-02 
467	 7.20041971291281E-02 
468	 7.18116841975861E-02 
469	 7.19249937711927E-02 
470	 7.20120995528227E-02 
471	 7.20592713905987E-02 
472	 7.23872764945402E-02 
473	 7.25735876701897E-02 
474	 7.23879079405832E-02 
475	 7.22783308516148E-02 
476	 7.23609931545808E-02 
477	 7.27509711139054E-02 
478	 7.27087836284203E-02 
479	 7.22511919541948E-02 
480	 7.24025128105605E-02 
481	 7.27916957421157E-02 
482	 7.30854537599116E-02 
483	 7.32924181889777E-02 
484	 7.34012088493377E-02 
485	 7.34122898811533E-02 
486	 7.33947549766918E-02 
487	 7.33234016286644E-02 
488	 7.29013395720653E-02 
489	 7.24749867630855E-02 
490	 7.24112217582694E-02 
491	 7.28706554287326E-02 
492	 7.34459040262619E-02 
493	 7.29532908976415E-02 
494	 7.26576340372987E-02 
495	 7.30584437477266E-02 
496	 7.35015490057199E-02 
497	 7.39093296109924E-02 
498	 0.074268266325793 
499	 0.074272069402698 
500	 0.074028499195437 
501	 7.41468718560476E-02 
502	 7.43082426878952E-02 
503	 7.43542227817122E-02 
504	 7.46235361750314E-02 
505	 7.50047314490078E-02 
506	 7.52663112842924E-02 
507	 7.53460577073434E-02 
508	 7.53325570170652E-02 
509	 7.56364339273024E-02 
510	 7.60787043597681E-02 
511	 7.65010125953308E-02 
512	 7.69035500916533E-02 
513	 7.72961263830771E-02 
514	 7.77213569993198E-02 
515	 7.81311633240934E-02 
516	 7.84863556073143E-02 
517	 7.86914294031478E-02 
518	 7.88915330692516E-02 
519	 7.92351533059568E-02 
520	 7.93296571574671E-02 
521	 7.93771866030628E-02 
522	 8.01580688569444E-02 
523	 8.08062192149062E-02 
524	 8.09917929652145E-02 
525	 8.14158274556325E-02 
526	 8.18661479237305E-02 
527	 8.19422976551832E-02 
528	 0.08194582565362 
529	 8.21164488158217E-02 
530	 8.30116785829587E-02 
531	 8.37088017597307E-02 
532	 8.36635694338087E-02 
533	 8.38703924375908E-02 
534	 0.084331655630489 
535	 8.47648749111402E-02 
536	 8.51068460361025E-02 
537	 8.53356554046603E-02 
538	 8.55347851680995E-02 
539	 8.56868198257937E-02 
540	 0.085785460730059 
541	 8.60885730700071E-02 
542	 8.65733732751098E-02 
543	 8.71020333972539E-02 
544	 8.73202173819191E-02 
545	 0.087180315180011 
546	 8.74351764529436E-02 
547	 8.78591811588792E-02 
548	 8.80655418744849E-02 
549	 8.82854114131943E-02 
550	 8.84999358864938E-02 
551	 8.84485846009533E-02 
552	 8.85149047648662E-02 
553	 8.89068298253099E-02 
554	 8.91686028644387E-02 
555	 8.93229632621013E-02 
556	 8.95603434494615E-02 
557	 8.95499019638389E-02 
558	 8.92876403150793E-02 
559	 8.91957154619785E-02 
560	 0.089374508455418 
561	 8.98673020014783E-02 
562	 9.03344716804188E-02 
563	 0.0905647387915 
564	 9.01834988128726E-02 
565	 8.99893539295265E-02 
566	 9.02308766481546E-02 
567	 9.01150410977483E-02 
568	 8.98804296589835E-02 
569	 0.089916871377205 
570	 8.99520736061767E-02 
571	 8.98826299247431E-02 
572	 8.95687252225181E-02 
573	 8.93628408161376E-02 
574	 8.94703296234718E-02 
575	 8.96872210899062E-02 
576	 8.97632451216549E-02 
577	 8.92769601663759E-02 
578	 8.91562278387281E-02 
579	 8.95247291494255E-02 
580	 8.94818063854354E-02 
581	 8.93754111821509E-02 
582	 8.95133322534165E-02 
583	 8.94191359418916E-02 
584	 0.089149197504823 
585	 8.90476197519282E-02 
586	 8.90040416924154E-02 
587	 8.89966318552521E-02 
588	 8.90844347382779E-02 
589	 8.92407113761408E-02 
590	 8.94177066333902E-02 
591	 8.92806486010168E-02 
592	 8.88819239209021E-02 
593	 8.86241818615433E-02 
594	 8.84812043837832E-02 
595	 8.84499978088677E-02 
596	 8.85537874940384E-02 
597	 8.86888419148042E-02 
598	 8.86866612275363E-02 
599	 8.86103044779779E-02 
600	 8.85203889179956E-02 
601	 8.85961118708963E-02 
602	 8.86858102540318E-02 
603	 8.86422521776437E-02 
604	 8.84054275188863E-02 
605	 8.81313688622764E-02 
606	 8.82600452302242E-02 
607	 8.82596696629301E-02 
608	 8.79666824306707E-02 
609	 0.087792388876488 
610	 8.77301565903109E-02 
611	 8.77209051667176E-02 
612	 8.74142551711664E-02 
613	 8.70308109383653E-02 
614	 8.76463627053095E-02 
615	 8.80959660429063E-02 
616	 8.76885868822147E-02 
617	 8.70908747792061E-02 
618	 0.086608468327335 
619	 8.65617796695828E-02 
620	 8.67743761381568E-02 
621	 8.70932263212259E-02 
622	 8.72066310217489E-02 
623	 8.70403206266812E-02 
624	 8.65881044582742E-02 
625	 8.65380731414835E-02 
626	 8.67990373104214E-02 
627	 8.67967082047368E-02 
628	 8.66153834744631E-02 
629	 8.63390567339104E-02 
630	 8.63647555956663E-02 
631	 8.64829314344956E-02 
632	 8.63916432630944E-02 
633	 8.65022508437304E-02 
634	 8.67148724570077E-02 
635	 0.086388625693486 
636	 8.60780812109482E-02 
637	 8.61142453357039E-02 
638	 8.62792812985853E-02 
639	 0.086427359423477 
640	 0.08636069750271 
641	 8.62235984471939E-02 
642	 8.60841412967098E-02 
643	 8.60550915065335E-02 
644	 0.085855482236684 
645	 8.52899200945765E-02 
646	 8.52551678774355E-02 
647	 8.55652498525691E-02 
648	 8.53245961778821E-02 
649	 8.48187743943729E-02 
650	 8.42272931250505E-02 
651	 8.39113810474041E-02 
652	 8.38104587423121E-02 
653	 8.38033878675532E-02 
654	 8.40185539562157E-02 
655	 8.42396666750988E-02 
656	 8.37264686530888E-02 
657	 8.28110525485326E-02 
658	 8.18813151033123E-02 
659	 8.16512602375823E-02 
660	 8.17368201735716E-02 
661	 8.14241922669414E-02 
662	 8.10356173997386E-02 
663	 8.06597555621538E-02 
664	 8.03262430934403E-02 
665	 8.00309738862108E-02 
666	 7.97391301190822E-02 
667	 7.90320567824075E-02 
668	 0.078240267934843 
669	 7.83131016142688E-02 
670	 0.07853649730219 
671	 7.85723150416971E-02 
672	 7.81209125763502E-02 
673	 7.77034351209911E-02 
674	 7.79237999498086E-02 
675	 7.80228526322988E-02 
676	 7.79732291079398E-02 
677	 7.82546301149045E-02 
678	 7.85289301710046E-02 
679	 7.86397536752061E-02 
680	 7.88884637653167E-02 
681	 7.91157677881554E-02 
682	 7.89811377428757E-02 
683	 7.96002803702094E-02 
684	 8.09131643752204E-02 
685	 8.13444033540646E-02 
686	 8.18290276881193E-02 
687	 8.31491747318806E-02 
688	 8.41338132052664E-02 
689	 0.084884786996155 
690	 8.63301336058356E-02 
691	 8.76645658430917E-02 
692	 8.87620011125769E-02 
693	 9.01727261102537E-02 
694	 9.16323323541034E-02 
695	 0.092785441949667 
696	 9.38068156477735E-02 
697	 9.49713446407392E-02 
698	 9.70520106244981E-02 
699	 9.87153222748331E-02 
700	 9.94418393866522E-02 
701	 0.100673676562946 
702	 0.102206917834521 
703	 0.103547179232918 
704	 0.104677468097481 
705	 0.105593527119511 
706	 0.106301709708685 
707	 0.1069867907146 
708	 0.107771998525795 
709	 0.108592157433115 
710	 0.109404412105854 
711	 0.110113694952119 
712	 0.111224297369336 
713	 0.112540944530256 
714	 0.112514409941336 
715	 0.112308302902257 
716	 0.113054404599838 
717	 0.113978873852984 
718	 0.114838527689691 
719	 0.115239180586794 
720	 0.115579219154756 
721	 0.116053002960523 
722	 0.11689332753912 
723	 0.117570771734261 
724	 0.117412828343691 
725	 0.116955386926481 
726	 0.116724907797938 
727	 0.117801447124769 
728	 0.118620651999767 
729	 0.118483606007805 
730	 0.118632073773973 
731	 0.118975670712871 
732	 0.119192229217253 
733	 0.119468421460242 
734	 0.119797081977101 
735	 0.120021751862843 
736	 0.120186240532322 
737	 0.120345067405166 
738	 0.120808374864388 
739	 0.121252961328728 
740	 0.120972975568799 
741	 0.121004284624502 
742	 0.121489366542306 
743	 0.121547477676441 
744	 0.121533414824067 
745	 0.121764169663981 
746	 0.122046243157357 
747	 0.122276814000282 
748	 0.122294477720151 
749	 0.122280425877599 
750	 0.122334325709574 
751	 0.122545337250785 
752	 0.122869497516442 
753	 0.123237371110129 
754	 0.123385986917597 
755	 0.123284272177914 
756	 0.123009742497175 
757	 0.122738664841564 
758	 0.122553158149728 
759	 0.122269113686585 
760	 0.122501141787376 
761	 0.124751348258525 
762	 0.125190045629799 
763	 0.124077730682094 
764	 0.124677848283354 
765	 0.125280675470561 
766	 0.125332274721171 
767	 0.125476027753317 
768	 0.125510627858981 
769	 0.125111928294317 
770	 0.124962251103941 
771	 0.125136816691322 
772	 0.125265715042555 
773	 0.125209355286129 
774	 0.124933858155267 
775	 0.12500963534531 
776	 0.125336356545666 
777	 0.125590503424769 
778	 0.125725102330512 
779	 0.125726550348929 
780	 0.125659173652823 
781	 0.125701918368228 
782	 0.125956056193396 
783	 0.125903145513695 
784	 0.125755487808509 
785	 0.126155660988784 
786	 0.126467795717087 
787	 0.126557619836093 
788	 0.126878468355097 
789	 0.127178222205085 
790	 0.127216733628316 
791	 0.127309691937125 
792	 0.127383753060544 
793	 0.127078204345936 
794	 0.126952640497715 
795	 0.127205262859815 
796	 0.127720987844195 
797	 0.127979819859186 
798	 0.127542604191598 
799	 0.127718338481852 
800	 0.128285505693375 
801	 0.127829244996906 
802	 0.127851754477129 
803	 0.128678948113757 
804	 0.128724299644311 
805	 0.128331628339345 
806	 0.128011363364213 
807	 0.127802761037263 
808	 0.127800763189449 
809	 0.12818670918885 
810	 0.128634759746231 
811	 0.12890456176367 
812	 0.128597702945557 
813	 0.128240958147926 
814	 0.128568624869326 
815	 0.129113524730448 
816	 0.129576463884706 
817	 0.129502893305047 
818	 0.129084888004721 
819	 0.128662289796249 
820	 0.129373709692665 
821	 0.130432259643875 
822	 0.130826937795782 
823	 0.131058959580414 
824	 0.131108648100421 
825	 0.130702331912915 
826	 0.13011822437026 
827	 0.129663264075453 
828	 0.130376977023951 
829	 0.131278489103531 
830	 0.13107201404496 
831	 0.130638365578041 
832	 0.130292923192154 
833	 0.130239334650934 
834	 0.130696033146487 
835	 0.131549250904872 
836	 0.131620763057805 
837	 0.131560373745467 
838	 0.132182355734461 
839	 0.1324443905909 
840	 0.132055651032347 
841	 0.130627520629741 
842	 0.130309655873327 
843	 0.131634737961091 
844	 0.131519844656404 
845	 0.131024263955066 
846	 0.131562688935913 
847	 0.131350243774832 
848	 0.130607096135878 
849	 0.131015513198995 
850	 0.131423700729772 
851	 0.131358894855537 
852	 0.130853594053375 
853	 0.130823284618077 
854	 0.132147479708824 
855	 0.13338696185263 
856	 0.133800618905518 
857	 0.132295879127695 
858	 0.13126828325436 
859	 0.131495859936329 
860	 0.132002091868315 
861	 0.132521955098262 
862	 0.13283509360966 
863	 0.132916684779278 
864	 0.132928646559893 
865	 0.133370580856673 
866	 0.132854315823253 
867	 0.131505220508998 
868	 0.132169168216846 
869	 0.133056801385096 
870	 0.132711825021456 
871	 0.132777627192307 
872	 0.132983282928481 
873	 0.132239685759144 
874	 0.13274939780315 
875	 0.134639416239345 
876	 0.135833927533485 
877	 0.135224623013671 
878	 0.132659331933395 
879	 0.13350882453142 
880	 0.135775937451615 
881	 0.135023086025599 
882	 0.134107112536001 
883	 0.133810960379942 
884	 0.134044053814519 
885	 0.134911888943255 
886	 0.136239544905627 
887	 0.136823597531852 
888	 0.136475476448192 
889	 0.13520001411826 
890	 0.134946449691143 
891	 0.135612517555021 
892	 0.135262785104365 
893	 0.134450125819201 
894	 0.133567897655604 
895	 0.133538978428266 
896	 0.134042344513748 
897	 0.134602031635606 
898	 0.136072418744786 
899	 0.137522490959401 
900	 0.136345307591485 
901	 0.135568565389755 
902	 0.136057456258063 
903	 0.136740723790908 
904	 0.136612216710906 
905	 0.135188498961385 
906	 0.135341845942139 
907	 0.136592738358748 
908	 0.137345040213763 
909	 0.136885382643174 
910	 0.135630686478539 
911	 0.13611383007782 
912	 0.137141643783718 
913	 0.137901013130883 
914	 0.138224162565313 
915	 0.137911677907056 
916	 0.136861031443067 
917	 0.13700793953076 
918	 0.137872093658963 
919	 0.137003263697497 
920	 0.136088932362357 
921	 0.135738608006871 
922	 0.135833699467709 
923	 0.135855497307884 
924	 0.135451981708662 
925	 0.13629027304441 
926	 0.137276795583749 
927	 0.135422204589442 
928	 0.133774731815441 
929	 0.133376510082395 
930	 0.133169507063891 
931	 0.13379957189072 
932	 0.135501175608201 
933	 0.135804933967272 
934	 0.135371473409175 
935	 0.135901667390016 
936	 0.137587730707927 
937	 0.13932031255228 
938	 0.137569185700686 
939	 0.140791232195426 
940	 0.147989805559877 
941	 0.144140969972162 
942	 0.139087040212114 
943	 0.140209350921733 
944	 0.140855779637121 
945	 0.139076816614909 
946	 0.133161267258516 
947	 0.136306763850662 
948	 0.144907528867133 
949	 0.13548568868392 
950	 0.130906914557744 
951	 0.138579859678175 
952	 0.142272236660612 
953	 0.142306018464663 
954	 0.140082065171859 
955	 0.135974322516746 
956	 0.133363697408947 
957	 0.137416173119565 
958	 0.142907938040296 
959	 0.146660009345192 
960	 0.145011108746509 
961	 0.141758113157623 
962	 0.138897909777306 
963	 0.134171716503361 
964	 0.133594352750905 
965	 0.141899351544223 
966	 0.142335699105514 
967	 0.136278685174697 
968	 0.131660545122154 
969	 0.132356916302307 
970	 0.137460169834953 
971	 0.139480389733737 
972	 0.138720820799548 
973	 0.135893932702061 
974	 0.134829722282897 
975	 0.135279849554183 
976	 0.13641351444626 
977	 0.137756262955775 
978	 0.138595202308079 
979	 0.137547563830513 
980	 0.139337091761484 
981	 0.143498058116779 
982	 0.143254691369309 
983	 0.141011038957563 
984	 0.138979512083373 
985	 0.142322553677557 
986	 0.144171060605755 
987	 0.137872536405588 
988	 0.139068352682914 
989	 0.145728402230688 
990	 0.148155864160304 
991	 0.144154853014945 
992	 0.136516640445185 
993	 0.138058801302572 
994	 0.140632230193874 
995	 0.140677059941904 
996	 0.144135542102931 
997	 0.145861848133481 
998	 0.141306905738606 
999	 0.13979099296129 
1000	 0.140332277776298 
1001	 0.138407136183062 
1002	 0.1374810668275 
1003	 0.138017791336202 
1004	 0.138408551590177 
1005	 0.139673359421091 
1006	 0.141946649135362 
1007	 0.144226696347829 
1008	 0.1450757122626 
1009	 0.143661921444963 
1010	 0.1425554759407 
1011	 0.140284768539703 
1012	 0.134631525499996 
1013	 0.131965408631866 
1014	 0.134852478805478 
1015	 0.14603088855364 
1016	 0.149089603904015 
1017	 0.142280106666727 
1018	 0.141353120829061 
1019	 0.144369113832008 
1020	 0.148944811041704 
1021	 0.148682635625974 
1022	 0.145282080722142 
1023	 0.141665422550683 
1024	 0.141103765564436 
1025	 0.146073272442648 
1026	 0.159002541789256 
1027	 0.16632533717164 
1028	 0.163822302114392 
1029	 0.149317570263948 
1030	 0.140803088433024 
1031	 0.1427754745532 
1032	 0.136663790664638 
1033	 0.13670069516707 
1034	 0.148268056828899 
1035	 0.14350042105482 
1036	 0.13824087064211 
1037	 0.150149767382576 
1038	 0.156987153578915 
1039	 0.155492796604935 
1040	 0.146898575172455 
1041	 0.146388850194652 
1042	 0.151274266238873 
1043	 0.140075149358183 
1044	 0.141327130665181 
1045	 0.157219682401395 
1046	 0.151126752074743 
1047	 0.143403806984289 
1048	 0.144741565453309 
1049	 0.134551347687956 
1050	 0.127814660425604 
1051	 0.138339292808899 
1052	 0.139873691047473 
1053	 0.136082617133352 
1054	 0.139250362572298 
1055	 0.147846324525966 
1056	 0.154666848967148 
1057	 0.143001331213395 
1058	 0.136466441312091 
1059	 0.143216393816854 
1060	 0.163140842066013 
1061	 0.177385120898 
1062	 0.17539721205209 
1063	 0.155577997813145 
1064	 0.146197639619949 
1065	 0.163531597856484 
1066	 0.159883583009407 
1067	 0.140830179793146 
1068	 0.119119063649076 
1069	 0.126253155724532 
1070	 0.153038279008157 
1071	 0.167481767061453 
1072	 0.168080778078068 
1073	 0.155166602861149 
1074	 0.12936567782881 
1075	 0.144614232139815 
