Wavelength	SHSI00213.asd
325	 0.10509837874296 
326	 0.100171245832658 
327	 0.096554554853703 
328	 0.109213670961817 
329	 0.112854864068411 
330	 0.101053777646298 
331	 9.32854648620318E-02 
332	 9.22603587443181E-02 
333	 9.83364558407546E-02 
334	 0.10307158412584 
335	 0.103671032720608 
336	 9.75322226604654E-02 
337	 9.53625672690164E-02 
338	 9.89061600162142E-02 
339	 9.93689747856232E-02 
340	 9.77540209655615E-02 
341	 9.57426696610431E-02 
342	 9.83864862943141E-02 
343	 0.103606860752093 
344	 0.106216822433224 
345	 0.10778267469127 
346	 0.10850073143594 
347	 0.107690895506714 
348	 0.10710450610275 
349	 0.107500560223245 
350	 0.104173655165125 
351	 0.101363196507852 
352	 0.106695920623037 
353	 0.108961405351137 
354	 0.106723533074873 
355	 0.105300428391297 
356	 0.106613352729481 
357	 0.111243840679246 
358	 0.114699347681435 
359	 0.115191307509193 
360	 0.111200971444531 
361	 0.108383769065592 
362	 0.108013624463652 
363	 0.108723000368904 
364	 0.108611641054669 
365	 0.107325458211219 
366	 0.109893171687718 
367	 0.113645714591513 
368	 0.114326220409916 
369	 0.115126432376898 
370	 0.116281199895576 
371	 0.115822023864255 
372	 0.116516805330366 
373	 0.119024742161932 
374	 0.116913806093284 
375	 0.113272596536907 
376	 0.113134934364292 
377	 0.112399812909369 
378	 0.111339024186286 
379	 0.114001490047776 
380	 0.115574546755421 
381	 0.114262793475413 
382	 0.116501911055041 
383	 0.118868334691037 
384	 0.116205240198978 
385	 0.114584210833916 
386	 0.114280235050709 
387	 0.1114163354878 
388	 0.10873605493874 
389	 0.107785588766717 
390	 0.109745767133323 
391	 0.112730880316833 
392	 0.114405641724259 
393	 0.113620731053817 
394	 0.111065224056565 
395	 0.109524981355304 
396	 0.108513255796213 
397	 0.10765436397964 
398	 0.105872631437219 
399	 0.104595758547228 
400	 0.105193122391024 
401	 0.10538531585163 
402	 0.105463094060476 
403	 0.107508186904712 
404	 0.10882348651873 
405	 0.108640651760026 
406	 0.109979370569346 
407	 0.111126912529298 
408	 0.109757659931983 
409	 0.108695266842347 
410	 0.108458173367508 
411	 0.108568203984502 
412	 0.10857230931286 
413	 0.108244037984468 
414	 0.107705237955331 
415	 0.107452129552641 
416	 0.10808592521824 
417	 0.10808992564276 
418	 0.10760453535927 
419	 0.108284773003692 
420	 0.108945024723639 
421	 0.108879444276124 
422	 0.107914553148526 
423	 0.107043254849389 
424	 0.107682482992015 
425	 0.108200898190222 
426	 0.108331599386938 
427	 0.108782322830551 
428	 0.109189644408275 
429	 0.109265447120951 
430	 0.108863601577073 
431	 0.10813593836417 
432	 0.107327046789841 
433	 0.107114644538938 
434	 0.107367414629552 
435	 0.106696822850322 
436	 0.10692070851096 
437	 0.108950449722928 
438	 0.109356194480279 
439	 0.108639985582883 
440	 0.108611266352677 
441	 0.109082360145606 
442	 0.109767294882965 
443	 0.109340570104206 
444	 0.109473645732593 
445	 0.111333075501697 
446	 0.111808801759704 
447	 0.11124778626228 
448	 0.11156680024306 
449	 0.112073840404604 
450	 0.112620247193919 
451	 0.113365010794806 
452	 0.114205579682764 
453	 0.115026573422798 
454	 0.115759596808342 
455	 0.11628417454951 
456	 0.116344899087926 
457	 0.116354773901908 
458	 0.116498859443552 
459	 0.11658349724093 
460	 0.116941658332358 
461	 0.11793879310172 
462	 0.117976591859485 
463	 0.117424793449343 
464	 0.11865281837003 
465	 0.119696473732556 
466	 0.119643433572877 
467	 0.119856132099129 
468	 0.120096427816374 
469	 0.119805359338939 
470	 0.11979564061409 
471	 0.120210075757882 
472	 0.120699808810653 
473	 0.121310975882276 
474	 0.121996271960694 
475	 0.12221758207009 
476	 0.12221387911824 
477	 0.122525868565955 
478	 0.122802498414863 
479	 0.123026562508311 
480	 0.123510643964113 
481	 0.124017533119194 
482	 0.124394920290833 
483	 0.125315353863547 
484	 0.126332455054102 
485	 0.126148294420816 
486	 0.125639502274517 
487	 0.125212414351369 
488	 0.125123082974192 
489	 0.125017006912905 
490	 0.124572263674596 
491	 0.125135695685941 
492	 0.126300830499684 
493	 0.1262878890013 
494	 0.126266816138576 
495	 0.126737994555474 
496	 0.127517826504336 
497	 0.128265973876872 
498	 0.128568097826946 
499	 0.129416571432083 
500	 0.130705230569981 
501	 0.13125862819584 
502	 0.131570102697249 
503	 0.131959052417394 
504	 0.132423949224257 
505	 0.132994039930836 
506	 0.133643947253849 
507	 0.135077956447551 
508	 0.137048276218726 
509	 0.137751946106808 
510	 0.138353505702737 
511	 0.139765101301046 
512	 0.140903779908507 
513	 0.141870361054112 
514	 0.143300942310463 
515	 0.144763186427575 
516	 0.146034172567524 
517	 0.146888713533331 
518	 0.147551966105088 
519	 0.14827120629277 
520	 0.148404212162105 
521	 0.148542043633132 
522	 0.150599547087288 
523	 0.15246619681379 
524	 0.153305971932815 
525	 0.154551838096652 
526	 0.15603904435431 
527	 0.157330847691523 
528	 0.157920711610404 
529	 0.158180412406154 
530	 0.159809066377035 
531	 0.161732196065999 
532	 0.163167216468169 
533	 0.164006415343098 
534	 0.164555168784911 
535	 0.16542720165656 
536	 0.166482058732303 
537	 0.167658752684239 
538	 0.168761092470377 
539	 0.169882696470077 
540	 0.171092395773868 
541	 0.171888512207214 
542	 0.17236322858896 
543	 0.172921878065155 
544	 0.174028074890909 
545	 0.175719903742032 
546	 0.176813665720374 
547	 0.177567063063789 
548	 0.178464561210736 
549	 0.179487252593529 
550	 0.180534816067454 
551	 0.181276179430269 
552	 0.18178229121573 
553	 0.182207617090285 
554	 0.18340946613637 
555	 0.184952639191449 
556	 0.185815657128278 
557	 0.186717755544394 
558	 0.18769754407857 
559	 0.187960418605995 
560	 0.188137714908056 
561	 0.188813026551548 
562	 0.189312402806421 
563	 0.189825168536965 
564	 0.191318336864672 
565	 0.192027439845225 
566	 0.191495573633982 
567	 0.191835456209151 
568	 0.192669967110993 
569	 0.193266828126027 
570	 0.193516315269784 
571	 0.193502148839933 
572	 0.193678666850464 
573	 0.193927218320745 
574	 0.194215088347882 
575	 0.194812122454745 
576	 0.19550702952823 
577	 0.195845405222969 
578	 0.196351208885374 
579	 0.197017912528351 
580	 0.197097015907994 
581	 0.19710472860707 
582	 0.197524596937895 
583	 0.198254271255942 
584	 0.199006184514995 
585	 0.199080667164777 
586	 0.199248052531897 
587	 0.199751990536155 
588	 0.200032676583652 
589	 0.200087129876923 
590	 0.199981067417703 
591	 0.19980013421369 
592	 0.199705604354105 
593	 0.200040624934014 
594	 0.200481380164531 
595	 0.200856128660569 
596	 0.201457427893602 
597	 0.202145968175065 
598	 0.202660621674098 
599	 0.202809972429959 
600	 0.202626046876457 
601	 0.202564346489035 
602	 0.202501884657818 
603	 0.20235961121255 
604	 0.202791290273761 
605	 0.203485821953586 
606	 0.203411323039188 
607	 0.203106649971056 
608	 0.202838847557216 
609	 0.202975062055662 
610	 0.202926061337944 
611	 0.201933947568756 
612	 0.201687758235276 
613	 0.202080857934265 
614	 0.201284726347815 
615	 0.200480222803734 
616	 0.200319268551048 
617	 0.199849940799261 
618	 0.199173769484271 
619	 0.198606571264018 
620	 0.198841865352042 
621	 0.199733846356524 
622	 0.199684774891642 
623	 0.199406576483279 
624	 0.199556355350507 
625	 0.199410790923479 
626	 0.199079504979497 
627	 0.19906849403651 
628	 0.199590460999622 
629	 0.200501190489034 
630	 0.200407664283389 
631	 0.199860925864499 
632	 0.199702365543446 
633	 0.200043722585567 
634	 0.200727488276464 
635	 0.201144554017995 
636	 0.201279739380303 
637	 0.201203551213624 
638	 0.201606290948137 
639	 0.202319582495896 
640	 0.20290005024583 
641	 0.203107273213677 
642	 0.203011838245239 
643	 0.20339801750144 
644	 0.203694595247657 
645	 0.203435625165597 
646	 0.203599816564569 
647	 0.204162085185617 
648	 0.204697127826552 
649	 0.204492448996975 
650	 0.203427124798848 
651	 0.202751664346937 
652	 0.202349092693897 
653	 0.201929503221846 
654	 0.201319974361569 
655	 0.20024572188469 
656	 0.198249205767177 
657	 0.195923100904191 
658	 0.193782347490342 
659	 0.191820097864383 
660	 0.18995639726457 
661	 0.188124239295878 
662	 0.186138168637752 
663	 0.183920716800401 
664	 0.181462790575194 
665	 0.179000346884723 
666	 0.176725107657883 
667	 0.174513393874296 
668	 0.172463513810047 
669	 0.170710075355413 
670	 0.169640433658918 
671	 0.169302311396989 
672	 0.169111439136527 
673	 0.168710822942277 
674	 0.16778956557803 
675	 0.167515033409848 
676	 0.167933644982825 
677	 0.168236260749569 
678	 0.168859376009979 
679	 0.170014671357283 
680	 0.171482863819949 
681	 0.173129436141901 
682	 0.174776665021784 
683	 0.177239285498367 
684	 0.180538321405401 
685	 0.183851045191699 
686	 0.18792450061659 
687	 0.193288248607678 
688	 0.198545804947282 
689	 0.203195165567521 
690	 0.207861451166388 
691	 0.213451564539618 
692	 0.220137837806245 
693	 0.226568687066114 
694	 0.232783449344221 
695	 0.238636225070197 
696	 0.244414049140342 
697	 0.250198105967446 
698	 0.256325309297771 
699	 0.261933264261432 
700	 0.266592408386613 
701	 0.27130107961607 
702	 0.275959299378418 
703	 0.28031683517517 
704	 0.28424557340286 
705	 0.287800976208746 
706	 0.291052009877694 
707	 0.29434578908234 
708	 0.297829967292371 
709	 0.300839808230588 
710	 0.30346112386895 
711	 0.30600043183242 
712	 0.308554841961263 
713	 0.311040773162203 
714	 0.312883445946642 
715	 0.314675552715534 
716	 0.317102570797228 
717	 0.319785916196434 
718	 0.322710632766399 
719	 0.325816680938881 
720	 0.327478042563865 
721	 0.327584150554664 
722	 0.328311981740809 
723	 0.329952339526105 
724	 0.332661931599232 
725	 0.334681087803925 
726	 0.335773437963293 
727	 0.337274175893367 
728	 0.338541996135562 
729	 0.339438250844633 
730	 0.341250106081425 
731	 0.342946233849977 
732	 0.342967341383155 
733	 0.343576433000735 
734	 0.345048763523223 
735	 0.346421803482073 
736	 0.347483647090649 
737	 0.348119205077889 
738	 0.34917759023134 
739	 0.350357648109752 
740	 0.350838368730021 
741	 0.351493889052651 
742	 0.352544847893425 
743	 0.353720609179734 
744	 0.354778915485212 
745	 0.355525665841786 
746	 0.355987566950951 
747	 0.356458441905996 
748	 0.357654602663423 
749	 0.358561240236508 
750	 0.359011508058384 
751	 0.360308922218529 
752	 0.361612316485772 
753	 0.361986156762525 
754	 0.362663394209082 
755	 0.363690387727671 
756	 0.364813492572614 
757	 0.36387343229504 
758	 0.360454112382645 
759	 0.360937801251277 
760	 0.366430955511616 
761	 0.372214492771291 
762	 0.37447381143651 
763	 0.374164920759104 
764	 0.376381115508821 
765	 0.377574713633731 
766	 0.376888231550733 
767	 0.376485727005707 
768	 0.376252156271518 
769	 0.375831348202799 
770	 0.375923228885781 
771	 0.376645243887405 
772	 0.377751263222036 
773	 0.378774020793316 
774	 0.379433304007841 
775	 0.380334871298526 
776	 0.381208049174993 
777	 0.381416748562996 
778	 0.381757380163309 
779	 0.382556846733863 
780	 0.384048078088452 
781	 0.385408914434478 
782	 0.385993282607061 
783	 0.38624550039054 
784	 0.38668145550753 
785	 0.388283593127664 
786	 0.389179912374666 
787	 0.389082157100524 
788	 0.38995200793825 
789	 0.390836616491047 
790	 0.390833299823756 
791	 0.391224308459419 
792	 0.392077627826032 
793	 0.392941502148184 
794	 0.393964757249567 
795	 0.395064791432923 
796	 0.395789559513337 
797	 0.396065946308191 
798	 0.39593439762722 
799	 0.396593740636105 
800	 0.397965720619087 
801	 0.399281452166333 
802	 0.399680988034382 
803	 0.399215975598521 
804	 0.400500444599733 
805	 0.402036707668494 
806	 0.402093472561341 
807	 0.402835147048271 
808	 0.40415996038621 
809	 0.404457818568672 
810	 0.404943051811547 
811	 0.405935857355667 
812	 0.405869100141592 
813	 0.406060754099033 
814	 0.408352550057339 
815	 0.410695709361964 
816	 0.412597501237564 
817	 0.414646466486606 
818	 0.415582691817636 
819	 0.415109030025436 
820	 0.414384768882506 
821	 0.414787785475307 
822	 0.417732567283805 
823	 0.420304973866736 
824	 0.421271046462392 
825	 0.41962855751174 
826	 0.418498819208344 
827	 0.419151939702989 
828	 0.420196541092814 
829	 0.420920070105959 
830	 0.420688775746161 
831	 0.422631562387833 
832	 0.425849912824992 
833	 0.425886140932599 
834	 0.425608249956093 
835	 0.426093493155373 
836	 0.426032616371479 
837	 0.42584026099578 
838	 0.426074162198636 
839	 0.426556916745138 
840	 0.427066476441816 
841	 0.427003314830083 
842	 0.427458598981139 
843	 0.428578647198252 
844	 0.428386671645816 
845	 0.42751415907884 
846	 0.426904428294474 
847	 0.427504026106812 
848	 0.428784954216372 
849	 0.428560608735463 
850	 0.428403143645352 
851	 0.429014397883005 
852	 0.430250951523929 
853	 0.432235866729887 
854	 0.434932325031272 
855	 0.436039142693074 
856	 0.435337314848239 
857	 0.433371847680458 
858	 0.432546957591459 
859	 0.433318608739705 
860	 0.43272025345004 
861	 0.432142710073951 
862	 0.432972124570503 
863	 0.433412196398099 
864	 0.433705884412571 
865	 0.435133062696894 
866	 0.437228206841414 
867	 0.439314751522914 
868	 0.439270780435228 
869	 0.439363499053246 
870	 0.441246399010715 
871	 0.441419160684166 
872	 0.440539986493692 
873	 0.440740222158066 
874	 0.442870601677714 
875	 0.446404590075186 
876	 0.447928920823051 
877	 0.448857592844434 
878	 0.450214002376619 
879	 0.451191462391493 
880	 0.452203055801003 
881	 0.45403547472454 
882	 0.455869214139766 
883	 0.457448735025471 
884	 0.458721232800852 
885	 0.460382208596069 
886	 0.462368617729411 
887	 0.461292951470375 
888	 0.460012292634537 
889	 0.462605295908597 
890	 0.462649804534601 
891	 0.460243045493078 
892	 0.460367789778167 
893	 0.461645436154701 
894	 0.463410612391968 
895	 0.464538209306335 
896	 0.466762851544313 
897	 0.471978250556694 
898	 0.475985754455489 
899	 0.478345073142621 
900	 0.480963670335945 
901	 0.480884337911025 
902	 0.478043636596656 
903	 0.475799211611639 
904	 0.475221066058966 
905	 0.476941363135039 
906	 0.47951532261318 
907	 0.482100125852135 
908	 0.483745575589964 
909	 0.483142301756016 
910	 0.481688566336347 
911	 0.486249529566353 
912	 0.489500438885267 
913	 0.488040046400487 
914	 0.489619570232492 
915	 0.49272307208044 
916	 0.49440213072339 
917	 0.49194850370467 
918	 0.487128671506747 
919	 0.485566700360604 
920	 0.487421541493684 
921	 0.490986011455509 
922	 0.487021406572545 
923	 0.482770001907087 
924	 0.48442111182026 
925	 0.48268097355386 
926	 0.478232711954489 
927	 0.475821124021368 
928	 0.47615550570521 
929	 0.479295020142171 
930	 0.481936288934936 
931	 0.486963336520402 
932	 0.495915719598164 
933	 0.500926564808878 
934	 0.504355820091791 
935	 0.51174195167766 
936	 0.508717139498224 
937	 0.49626791533846 
938	 0.483470617537076 
939	 0.483297043187264 
940	 0.495035469487856 
941	 0.497426890643815 
942	 0.494190123867726 
943	 0.489442176794141 
944	 0.489696315039606 
945	 0.494133172768334 
946	 0.499753961315864 
947	 0.500846366258588 
948	 0.497545825420876 
949	 0.497141910074348 
950	 0.491684096412423 
951	 0.481517092103108 
952	 0.487249299864963 
953	 0.496294728814051 
954	 0.496350563752005 
955	 0.490494989547239 
956	 0.486321344508662 
957	 0.49636959741698 
958	 0.500653993325989 
959	 0.497292002790472 
960	 0.498969088254615 
961	 0.501749674282256 
962	 0.502874209565845 
963	 0.498538986143064 
964	 0.494604681130726 
965	 0.496672467051528 
966	 0.501313994514237 
967	 0.502656830452175 
968	 0.490411947188274 
969	 0.485818935529594 
970	 0.491042471513472 
971	 0.490459172559828 
972	 0.488575896563383 
973	 0.488517207803294 
974	 0.493206513441968 
975	 0.499992520768781 
976	 0.505421871537772 
977	 0.508423612874816 
978	 0.50800262332144 
979	 0.502875326847236 
980	 0.49720000832249 
981	 0.494410294037655 
982	 0.500652586538688 
983	 0.503353930057701 
984	 0.497112448933179 
985	 0.49383237309713 
986	 0.496053096899564 
987	 0.504401358367437 
988	 0.506347422773185 
989	 0.502818801997222 
990	 0.500572709224604 
991	 0.502335673816646 
992	 0.505879010897583 
993	 0.499327475374013 
994	 0.493276398596287 
995	 0.492841062182559 
996	 0.493105715653244 
997	 0.494542460603929 
998	 0.497520609390225 
999	 0.497110232804976 
1000	 0.496319679855032 
1001	 0.501784528271073 
1002	 0.501860184165614 
1003	 0.499335456663359 
1004	 0.514790920722819 
1005	 0.520851153061211 
1006	 0.510265247336656 
1007	 0.508576461601514 
1008	 0.509789426410258 
1009	 0.508303116104546 
1010	 0.504846669339896 
1011	 0.502867436503282 
1012	 0.507101134275383 
1013	 0.514668796117677 
1014	 0.52178721509223 
1015	 0.521205096100279 
1016	 0.514779528781586 
1017	 0.506594936485151 
1018	 0.509763725174432 
1019	 0.513571700189265 
1020	 0.511952878434005 
1021	 0.508197408268494 
1022	 0.505977820839031 
1023	 0.508686973111021 
1024	 0.517000070196699 
1025	 0.520091518271242 
1026	 0.501118051410688 
1027	 0.488754287535958 
1028	 0.490533116001618 
1029	 0.504501739014349 
1030	 0.512365178390882 
1031	 0.509538913649628 
1032	 0.510378738279565 
1033	 0.511053396569921 
1034	 0.509123438516292 
1035	 0.504803389278308 
1036	 0.50481640242678 
1037	 0.51547630053116 
1038	 0.526397422142449 
1039	 0.527549417520607 
1040	 0.507196927499531 
1041	 0.483276237095671 
1042	 0.469654808024764 
1043	 0.493695088286305 
1044	 0.51163944264661 
1045	 0.511284541668886 
1046	 0.52046646383877 
1047	 0.520394110385807 
1048	 0.503380830976514 
1049	 0.494719221405952 
1050	 0.50112592672252 
1051	 0.521351898526517 
1052	 0.509045874310008 
1053	 0.485620749548053 
1054	 0.49646762581305 
1055	 0.507851501302834 
1056	 0.517194247580617 
1057	 0.534917209760327 
1058	 0.525972781926908 
1059	 0.491424243202301 
1060	 0.46661280197168 
1061	 0.470270934731518 
1062	 0.502406495770956 
1063	 0.503897873963052 
1064	 0.491136192227794 
1065	 0.479542076700009 
1066	 0.473159403123681 
1067	 0.474967183995795 
1068	 0.484525549215666 
1069	 0.470256728460907 
1070	 0.451438878502623 
1071	 0.465415233194464 
1072	 0.46491199733185 
1073	 0.462766414988137 
1074	 0.526588204056134 
1075	 0.527208465923378 
