Wavelength	SHSI00185.asd
325	 7.14031897665462E-02 
326	 6.97186115666724E-02 
327	 6.53614592014968E-02 
328	 7.71974667427363E-02 
329	 8.23694166096288E-02 
330	 7.49699489948231E-02 
331	 7.18965702460955E-02 
332	 7.45397985443125E-02 
333	 8.23095140766785E-02 
334	 0.082328011656509 
335	 7.62664750886815E-02 
336	 7.34769180101146E-02 
337	 7.05737507201968E-02 
338	 6.73415002433693E-02 
339	 6.59334207269542E-02 
340	 6.73392805255806E-02 
341	 7.17670039825267E-02 
342	 7.48944932728893E-02 
343	 7.57767320039993E-02 
344	 7.41198636549224E-02 
345	 7.24900626708529E-02 
346	 7.16930250017287E-02 
347	 7.08912940680259E-02 
348	 7.24777865440819E-02 
349	 7.69164292239963E-02 
350	 7.52059089468628E-02 
351	 7.05371813206701E-02 
352	 6.94506428906464E-02 
353	 6.98601015270233E-02 
354	 7.09887199772053E-02 
355	 7.16207627111973E-02 
356	 7.23234437462828E-02 
357	 0.073496289896871 
358	 7.58084551177908E-02 
359	 7.66281342336585E-02 
360	 7.20372881686651E-02 
361	 7.07915126292254E-02 
362	 7.31574648278938E-02 
363	 7.24336913904836E-02 
364	 7.08796090783864E-02 
365	 7.01132197813343E-02 
366	 7.23946593676267E-02 
367	 7.50094522375352E-02 
368	 7.40392679949324E-02 
369	 7.26495793872388E-02 
370	 7.19592438263132E-02 
371	 7.26894033031915E-02 
372	 7.51541462754347E-02 
373	 7.86794936062259E-02 
374	 7.83681332648322E-02 
375	 7.57890327196135E-02 
376	 7.38629803729501E-02 
377	 7.22281164414994E-02 
378	 0.071280572936316 
379	 7.21840829370471E-02 
380	 7.28841341879079E-02 
381	 7.25496845217093E-02 
382	 7.38559078222485E-02 
383	 0.074756264813134 
384	 7.23639489773562E-02 
385	 7.20708442747999E-02 
386	 7.35466134973752E-02 
387	 7.19309025532437E-02 
388	 0.069824574953518 
389	 6.86813950945814E-02 
390	 6.95040738283336E-02 
391	 7.16530020287377E-02 
392	 7.41813454353413E-02 
393	 7.37633927181187E-02 
394	 7.07233082281929E-02 
395	 6.80677734314901E-02 
396	 6.71848294673308E-02 
397	 6.80409923631172E-02 
398	 6.73854203185708E-02 
399	 6.64202601437989E-02 
400	 6.65641043250184E-02 
401	 6.64910557193977E-02 
402	 6.65403557250347E-02 
403	 6.83841545304906E-02 
404	 6.94537195150647E-02 
405	 6.90190149989577E-02 
406	 6.99664223096794E-02 
407	 7.09060859544271E-02 
408	 6.98928694897131E-02 
409	 6.92864289848319E-02 
410	 6.93783711692717E-02 
411	 6.93243938219781E-02 
412	 6.96510939927641E-02 
413	 7.02842070245445E-02 
414	 6.92093597223958E-02 
415	 0.067894993891161 
416	 6.84184409839276E-02 
417	 6.95317809126276E-02 
418	 7.06764468458014E-02 
419	 7.13260727481228E-02 
420	 7.09795098458314E-02 
421	 6.96519442895351E-02 
422	 6.93774069865324E-02 
423	 6.98107814248282E-02 
424	 7.00893038383957E-02 
425	 6.99892122274448E-02 
426	 6.97487950516729E-02 
427	 7.05421549584396E-02 
428	 7.14680234771413E-02 
429	 7.18428155723957E-02 
430	 7.15469861778113E-02 
431	 7.08080439068425E-02 
432	 6.99954012683225E-02 
433	 6.97798044107079E-02 
434	 7.01530590237784E-02 
435	 7.03645714496044E-02 
436	 7.04304919908467E-02 
437	 7.04400513447579E-02 
438	 0.071137504790157 
439	 7.19409625696887E-02 
440	 7.15830096341691E-02 
441	 7.14149946954659E-02 
442	 7.16574855293524E-02 
443	 7.13349910893784E-02 
444	 7.12746555351489E-02 
445	 7.20522109062782E-02 
446	 7.20560449777949E-02 
447	 7.15198761372821E-02 
448	 7.15613078664113E-02 
449	 7.16206310079588E-02 
450	 7.16119990482909E-02 
451	 7.19200303921865E-02 
452	 7.23469994511447E-02 
453	 7.26870586595887E-02 
454	 7.32659775006672E-02 
455	 7.38183977831469E-02 
456	 7.34954404046885E-02 
457	 7.31207807858627E-02 
458	 0.073001586857388 
459	 7.26524427270505E-02 
460	 7.25172154573147E-02 
461	 7.31182923661952E-02 
462	 7.29565190648835E-02 
463	 0.072318297489371 
464	 7.32464146863548E-02 
465	 7.39533369045488E-02 
466	 7.36618241719906E-02 
467	 7.40130682061696E-02 
468	 0.074403405482029 
469	 7.37211521113876E-02 
470	 7.29061477606044E-02 
471	 7.24892672961862E-02 
472	 7.32722337102388E-02 
473	 7.43231056151252E-02 
474	 7.48851845629203E-02 
475	 7.41043601872414E-02 
476	 7.30427420309247E-02 
477	 7.37433943592813E-02 
478	 7.42395572911053E-02 
479	 7.40406037614742E-02 
480	 7.35819788306099E-02 
481	 7.35523714367493E-02 
482	 7.44200035951403E-02 
483	 7.49511200385961E-02 
484	 7.50180937971827E-02 
485	 7.48462889552865E-02 
486	 7.49029854321957E-02 
487	 7.51297704394388E-02 
488	 0.074152032389325 
489	 7.30632712692849E-02 
490	 7.30297054511373E-02 
491	 7.38144057318146E-02 
492	 7.47727798216162E-02 
493	 0.07441023465003 
494	 0.073753993441909 
495	 7.33779472311582E-02 
496	 0.073724608066293 
497	 7.44564891707989E-02 
498	 7.50785014570171E-02 
499	 7.54150570269273E-02 
500	 7.54413465126731E-02 
501	 7.53086459823658E-02 
502	 7.52749863245904E-02 
503	 7.54456523238391E-02 
504	 7.52668149815593E-02 
505	 7.49341484109375E-02 
506	 7.48526584535189E-02 
507	 7.51636638136707E-02 
508	 0.075786080365232 
509	 7.61658780087027E-02 
510	 7.66303046581744E-02 
511	 7.73977803386541E-02 
512	 7.77867163121773E-02 
513	 7.78459965239046E-02 
514	 7.79002425667337E-02 
515	 7.82768155383257E-02 
516	 7.89124327957203E-02 
517	 7.86478152642889E-02 
518	 7.82991023411712E-02 
519	 7.87741577073048E-02 
520	 7.84649739459443E-02 
521	 7.77654876284173E-02 
522	 7.86197403809828E-02 
523	 0.079323580648346 
524	 0.079285361503626 
525	 8.01997195410556E-02 
526	 8.11685238140152E-02 
527	 8.06956758803918E-02 
528	 8.03627435189346E-02 
529	 8.05648120475718E-02 
530	 8.10700200001066E-02 
531	 8.17773266709913E-02 
532	 8.25175785920131E-02 
533	 8.25313362521054E-02 
534	 8.20716427046873E-02 
535	 8.18131906934287E-02 
536	 8.18255519833057E-02 
537	 8.21374217805202E-02 
538	 8.25891685105542E-02 
539	 8.30445855639543E-02 
540	 8.33698818375229E-02 
541	 8.34286522136586E-02 
542	 8.33476044152412E-02 
543	 8.34778918920895E-02 
544	 8.38728983112891E-02 
545	 0.084427250756295 
546	 0.084293834760899 
547	 8.40642830572987E-02 
548	 8.45999501325531E-02 
549	 8.48804118215567E-02 
550	 8.47745480682873E-02 
551	 8.47507649698065E-02 
552	 8.47002443553205E-02 
553	 8.45983433508564E-02 
554	 8.47358875637449E-02 
555	 8.50912534063696E-02 
556	 8.55802586461087E-02 
557	 8.57922053410476E-02 
558	 8.56924394360864E-02 
559	 8.58661462201312E-02 
560	 8.60995307315063E-02 
561	 8.61767537431656E-02 
562	 8.61790598736453E-02 
563	 8.62235304041886E-02 
564	 8.66156331820214E-02 
565	 8.67999149196179E-02 
566	 8.66289314330195E-02 
567	 8.67653578560569E-02 
568	 8.70012953363699E-02 
569	 8.69982774570743E-02 
570	 0.086751090389137 
571	 8.64292450252424E-02 
572	 8.65942524836129E-02 
573	 8.67696334897833E-02 
574	 0.08671952360317 
575	 0.087076965599537 
576	 0.087565612978495 
577	 8.75440283561742E-02 
578	 8.74128875603896E-02 
579	 0.087295246072833 
580	 8.71000140022415E-02 
581	 8.71236605208135E-02 
582	 8.75819938495312E-02 
583	 0.087822549075137 
584	 8.77649605031226E-02 
585	 8.74515254062861E-02 
586	 8.76151937000635E-02 
587	 8.83718951095777E-02 
588	 0.088341556010052 
589	 0.08779718278307 
590	 8.72947387174979E-02 
591	 8.72804206829582E-02 
592	 8.76792739142558E-02 
593	 8.78709367259218E-02 
594	 8.77921495084343E-02 
595	 8.74981103323106E-02 
596	 8.78311488871699E-02 
597	 8.84932736285097E-02 
598	 8.88127057356498E-02 
599	 8.85262219041458E-02 
600	 8.78179470797644E-02 
601	 8.79320398553503E-02 
602	 8.82078385583722E-02 
603	 8.80550043776382E-02 
604	 8.81480872642582E-02 
605	 8.84838724722036E-02 
606	 8.88111051966608E-02 
607	 8.89219234590174E-02 
608	 8.87759731726674E-02 
609	 8.88299732212628E-02 
610	 8.88980168510426E-02 
611	 8.86991852902199E-02 
612	 0.088762871242721 
613	 8.89701804762162E-02 
614	 8.84088326338398E-02 
615	 8.82024173484295E-02 
616	 8.88925494063925E-02 
617	 8.88681917555316E-02 
618	 8.84375316880658E-02 
619	 8.85005955764077E-02 
620	 8.88354428566718E-02 
621	 8.92271141491578E-02 
622	 8.89461059359937E-02 
623	 8.87666288184528E-02 
624	 8.93304669541097E-02 
625	 8.92289931735268E-02 
626	 8.87047192382525E-02 
627	 0.089055182551099 
628	 8.95227222612879E-02 
629	 8.98199804834083E-02 
630	 9.01689912247276E-02 
631	 0.09020373769697 
632	 8.94840553383234E-02 
633	 8.91402685013071E-02 
634	 8.93189559626293E-02 
635	 8.94417205728446E-02 
636	 8.97512626198102E-02 
637	 9.02761008139584E-02 
638	 0.090185647378374 
639	 8.97714938434907E-02 
640	 8.97501619700912E-02 
641	 8.96302434119928E-02 
642	 8.94083301232722E-02 
643	 8.96786847185381E-02 
644	 8.99213613379448E-02 
645	 8.96941797100052E-02 
646	 8.96376795677385E-02 
647	 8.97152007852667E-02 
648	 8.94855307182291E-02 
649	 8.93755966491327E-02 
650	 8.94786108523192E-02 
651	 8.92275422298885E-02 
652	 8.91490529690552E-02 
653	 8.99032435087011E-02 
654	 9.03613669331714E-02 
655	 9.01769657028502E-02 
656	 8.92029104973276E-02 
657	 8.82996798481486E-02 
658	 8.80536880637692E-02 
659	 8.82748592613177E-02 
660	 0.088541341114491 
661	 8.82463296902997E-02 
662	 8.80001449261759E-02 
663	 8.78974997514604E-02 
664	 8.75593835163992E-02 
665	 8.72028945669793E-02 
666	 8.70177583898643E-02 
667	 8.69110361344236E-02 
668	 8.68880430502691E-02 
669	 8.70072057962707E-02 
670	 8.71214835721446E-02 
671	 8.71837935693459E-02 
672	 8.72930761880685E-02 
673	 8.74518240208643E-02 
674	 8.76549815545389E-02 
675	 8.80153706921591E-02 
676	 8.83251599645042E-02 
677	 0.087860230864954 
678	 8.75589743364129E-02 
679	 8.78752219078736E-02 
680	 8.80206904670856E-02 
681	 8.81510058529374E-02 
682	 8.86527674093944E-02 
683	 0.089300323445501 
684	 9.00465594284257E-02 
685	 9.10464262447744E-02 
686	 9.20491340301149E-02 
687	 9.28262735564873E-02 
688	 9.38696580675828E-02 
689	 9.49689139654082E-02 
690	 9.56792111946837E-02 
691	 9.65019790590405E-02 
692	 9.76741569246163E-02 
693	 0.099432000184594 
694	 0.101109248269501 
695	 0.101962976261119 
696	 0.102681121846678 
697	 0.103606051751944 
698	 0.105357421941314 
699	 0.106702230002455 
700	 0.107218380747524 
701	 0.108675596378437 
702	 0.110422943111345 
703	 0.111325667219206 
704	 0.112043200995814 
705	 0.112808029301767 
706	 0.113730734253848 
707	 0.114949188620168 
708	 0.116428262077092 
709	 0.117157185256934 
710	 0.117482652147903 
711	 0.118301694962717 
712	 0.119110479326647 
713	 0.119872143232272 
714	 0.121132897850342 
715	 0.122133753825399 
716	 0.12224412253205 
717	 0.122840660786678 
718	 0.124061004074042 
719	 0.12522638303078 
720	 0.125421985379548 
721	 0.124752154705622 
722	 0.125074975818589 
723	 0.125919440624006 
724	 0.126680499765638 
725	 0.127953481500678 
726	 0.129395678375643 
727	 0.130064768533318 
728	 0.130009504639421 
729	 0.129497795170208 
730	 0.130168093053821 
731	 0.13122706654267 
732	 0.131334982226697 
733	 0.131424350282583 
734	 0.131752813331874 
735	 0.132475614711607 
736	 0.132992429729132 
737	 0.132972941350279 
738	 0.133478718936291 
739	 0.134305846293729 
740	 0.134789386122822 
741	 0.135302256170696 
742	 0.135788176723809 
743	 0.135519230244444 
744	 0.135525670841973 
745	 0.136592866462101 
746	 0.137008543432269 
747	 0.136981542479662 
748	 0.137871503296931 
749	 0.138072199463853 
750	 0.137387570248695 
751	 0.13799257041164 
752	 0.139022713611122 
753	 0.139397874548687 
754	 0.139298554965371 
755	 0.139223073246125 
756	 0.140779236461276 
757	 0.140797577173623 
758	 0.138264353392764 
759	 0.138158776293211 
760	 0.141455145037991 
761	 0.145931829862001 
762	 0.146330133513898 
763	 0.144134926700882 
764	 0.145994216863188 
765	 0.147200493186526 
766	 0.146472254453732 
767	 0.146413452465342 
768	 0.14663840312483 
769	 0.146507586309965 
770	 0.146233281203504 
771	 0.14605011059433 
772	 0.146598567641837 
773	 0.14727457659549 
774	 0.147693941377574 
775	 0.148331995947004 
776	 0.148992907096696 
777	 0.149250486199108 
778	 0.149269655443604 
779	 0.14925264370287 
780	 0.149743346469452 
781	 0.150449566548117 
782	 0.151075085318106 
783	 0.151213562039277 
784	 0.151196458601111 
785	 0.15191827929519 
786	 0.152243669594735 
787	 0.152000748622782 
788	 0.152205965136582 
789	 0.152847750021045 
790	 0.153801199773639 
791	 0.154252875289924 
792	 0.154330263240725 
793	 0.154723299439066 
794	 0.155407755362384 
795	 0.15619832503816 
796	 0.156076716454978 
797	 0.155924032934725 
798	 0.156635674247297 
799	 0.157165903524429 
800	 0.157501523967858 
801	 0.158182097154963 
802	 0.158742277611052 
803	 0.159014460892102 
804	 0.159190804495419 
805	 0.159316355375123 
806	 0.159436950889067 
807	 0.159725527159253 
808	 0.160230101435448 
809	 0.161058285174938 
810	 0.161471703278257 
811	 0.16116387176163 
812	 0.160501667479943 
813	 0.160334748020002 
814	 0.161706223218001 
815	 0.163258448079056 
816	 0.164596469857465 
817	 0.1658941066546 
818	 0.166770868351827 
819	 0.167040641696665 
820	 0.166553378384017 
821	 0.166310060405499 
822	 0.167432573211808 
823	 0.168373237532003 
824	 0.168666895869776 
825	 0.16818036689209 
826	 0.167993700694071 
827	 0.168500358756743 
828	 0.168833458599984 
829	 0.169120231406152 
830	 0.169609823869486 
831	 0.170480281700299 
832	 0.171405347809457 
833	 0.171433731392393 
834	 0.171178561694625 
835	 0.17105914402649 
836	 0.171709760403889 
837	 0.172647762310775 
838	 0.173264576961755 
839	 0.173355699792461 
840	 0.173236673153526 
841	 0.173901075445576 
842	 0.174856529070957 
843	 0.175743939743183 
844	 0.175877622603474 
845	 0.175569262705469 
846	 0.175283930514164 
847	 0.175983272465349 
848	 0.176964026757652 
849	 0.175499916640694 
850	 0.174386852835178 
851	 0.174889084651991 
852	 0.176729850382676 
853	 0.178657087120037 
854	 0.179392918644999 
855	 0.180449264726686 
856	 0.181398459685443 
857	 0.180331404158239 
858	 0.180126108645442 
859	 0.181310608719412 
860	 0.181079693630736 
861	 0.180316717703754 
862	 0.180036206592648 
863	 0.180202031745091 
864	 0.180885249225104 
865	 0.182176206974085 
866	 0.183799275665413 
867	 0.185272632671773 
868	 0.185363722562784 
869	 0.18493288638481 
870	 0.184713835278405 
871	 0.184012541111071 
872	 0.1833449890421 
873	 0.183800129967442 
874	 0.184657314304655 
875	 0.185670478945304 
876	 0.187010257717794 
877	 0.187402183436628 
878	 0.18633701369391 
879	 0.187289031474913 
880	 0.1893168873026 
881	 0.190084584062789 
882	 0.191189195253557 
883	 0.192458952581777 
884	 0.191860552680567 
885	 0.191798753294432 
886	 0.193262550160371 
887	 0.192800872383499 
888	 0.192080992445649 
889	 0.193689575295097 
890	 0.193325619616538 
891	 0.191245632517115 
892	 0.191501313324765 
893	 0.191624948309683 
894	 0.190953036630629 
895	 0.192326863510208 
896	 0.195126711926143 
897	 0.198094106293779 
898	 0.198551868183281 
899	 0.197344536184245 
900	 0.198216628757864 
901	 0.199811721463845 
902	 0.201093265445785 
903	 0.199618839291818 
904	 0.197888620424016 
905	 0.197874564524139 
906	 0.198185802224155 
907	 0.199671107447764 
908	 0.204387059127655 
909	 0.202237354571749 
910	 0.194627374844367 
911	 0.198975985298922 
912	 0.203534819153341 
913	 0.202536734632579 
914	 0.206633827821903 
915	 0.210885106213189 
916	 0.208302868379738 
917	 0.205768633205324 
918	 0.204846236382301 
919	 0.205532414799644 
920	 0.20579227137719 
921	 0.204727268753192 
922	 0.202036652121538 
923	 0.200778164058009 
924	 0.203086784064458 
925	 0.201414325731907 
926	 0.196731363555836 
927	 0.193934084722548 
928	 0.19399449012677 
929	 0.19726696460267 
930	 0.201581586250047 
931	 0.205364267636564 
932	 0.207778885884788 
933	 0.2175623227545 
934	 0.22340097999043 
935	 0.208706280148377 
936	 0.203475572945272 
937	 0.209068481041222 
938	 0.20744645099447 
939	 0.207479382268552 
940	 0.210982814741173 
941	 0.216666558077908 
942	 0.216003050360333 
943	 0.204569354463254 
944	 0.20003596629214 
945	 0.203686046880307 
946	 0.213264284317434 
947	 0.214966457006851 
948	 0.209448834684776 
949	 0.213801509635368 
950	 0.211042730500906 
951	 0.198796949858728 
952	 0.206715580325732 
953	 0.213027921828994 
954	 0.199372294195783 
955	 0.200219859224876 
956	 0.210636749212804 
957	 0.211541586429212 
958	 0.220014010797038 
959	 0.232404273833805 
960	 0.222950910383322 
961	 0.215913359840575 
962	 0.221137217247379 
963	 0.221157286078926 
964	 0.219282841968235 
965	 0.219652203858448 
966	 0.218026375876602 
967	 0.215156757689151 
968	 0.213372863613185 
969	 0.216022078075789 
970	 0.220793015948497 
971	 0.215704039881028 
972	 0.210341656877746 
973	 0.210461903497155 
974	 0.216126328281854 
975	 0.221502244755001 
976	 0.220658378806126 
977	 0.225344260925205 
978	 0.229518996216309 
979	 0.215353954806902 
980	 0.209830056193547 
981	 0.216698167279537 
982	 0.215912799123895 
983	 0.216506848999178 
984	 0.2219359612935 
985	 0.222547400815456 
986	 0.220982697833663 
987	 0.221009759415602 
988	 0.22247196340102 
989	 0.223250317227635 
990	 0.219112940325568 
991	 0.21659935444951 
992	 0.21668249700155 
993	 0.215156728034059 
994	 0.215692129122333 
995	 0.219007818627991 
996	 0.21872338550703 
997	 0.215986793893213 
998	 0.212470882538905 
999	 0.207600675725856 
1000	 0.205015447155876 
1001	 0.210312854764721 
1002	 0.214456081788452 
1003	 0.215440949143543 
1004	 0.215527394400496 
1005	 0.218143425492398 
1006	 0.222986433495637 
1007	 0.220132153367391 
1008	 0.219933256969079 
1009	 0.22882556561581 
1010	 0.228962953062114 
1011	 0.222550945309035 
1012	 0.216668327697628 
1013	 0.21755095540167 
1014	 0.222460667021872 
1015	 0.220609995178682 
1016	 0.221750572526491 
1017	 0.225622822016839 
1018	 0.217691762386686 
1019	 0.218769680674505 
1020	 0.23549361565249 
1021	 0.232888900854676 
1022	 0.221629944931832 
1023	 0.216285056501882 
1024	 0.220274700001478 
1025	 0.22872613892796 
1026	 0.232398980016456 
1027	 0.233682551664714 
1028	 0.230988260945372 
1029	 0.218574758023201 
1030	 0.208032644991072 
1031	 0.206128574386485 
1032	 0.222791685787417 
1033	 0.235121090933429 
1034	 0.229452510832067 
1035	 0.224522604848781 
1036	 0.213332743029807 
1037	 0.191529984186839 
1038	 0.212989565830495 
1039	 0.251652213814233 
1040	 0.247985947141471 
1041	 0.239952605933349 
1042	 0.23622298592598 
1043	 0.235899735349385 
1044	 0.235890290147712 
1045	 0.236221724497084 
1046	 0.245971366185001 
1047	 0.23583211819304 
1048	 0.196725139860862 
1049	 0.186192087536196 
1050	 0.196619994864031 
1051	 0.212267158324882 
1052	 0.218311789300376 
1053	 0.221525326743603 
1054	 0.234788267303789 
1055	 0.249183192226831 
1056	 0.255179542993044 
1057	 0.23108721486902 
1058	 0.216741395178838 
1059	 0.219497846013702 
1060	 0.21401915878072 
1061	 0.221592382037323 
1062	 0.242406470519164 
1063	 0.226962350717836 
1064	 0.195550895113593 
1065	 0.172261378403631 
1066	 0.214880479458482 
1067	 0.240399865565355 
1068	 0.164975411873852 
1069	 0.141618579948671 
1070	 0.171720866264148 
1071	 0.204521852423353 
1072	 0.238819483430144 
1073	 0.25172808029216 
1074	 0.218988157862432 
1075	 0.214195508434752 
