Wavelength	SHSI00286.asd
325	 0.100335698054962 
326	 9.49182681323239E-02 
327	 0.083678046453438 
328	 9.46501377602137E-02 
329	 9.73091882643608E-02 
330	 8.53259431692989E-02 
331	 8.93641856011899E-02 
332	 9.89659381405311E-02 
333	 0.102467340647674 
334	 9.83732589656415E-02 
335	 9.09021455572717E-02 
336	 9.00788667899909E-02 
337	 8.88684381054819E-02 
338	 8.61681492582032E-02 
339	 0.086711309835325 
340	 8.82550541535244E-02 
341	 8.87869858145523E-02 
342	 8.81872136338884E-02 
343	 8.82669538254062E-02 
344	 9.24001058152333E-02 
345	 0.096709784919522 
346	 9.95069879297354E-02 
347	 9.92244729834662E-02 
348	 9.78239454660525E-02 
349	 9.67511535110634E-02 
350	 9.52060531938867E-02 
351	 9.50010862896147E-02 
352	 0.099369763667811 
353	 9.86135928382065E-02 
354	 9.38359555400267E-02 
355	 9.86931631514843E-02 
356	 0.10292752595841 
357	 0.100576632199951 
358	 9.82778770926421E-02 
359	 9.71486231139022E-02 
360	 9.74539853707024E-02 
361	 9.85820069510548E-02 
362	 0.099646604318872 
363	 9.86632563263688E-02 
364	 9.76363656435338E-02 
365	 9.77684841513607E-02 
366	 9.91398010300954E-02 
367	 0.100872639614 
368	 0.101794373338358 
369	 0.101471518655701 
370	 0.100343627884325 
371	 0.09988036406856 
372	 0.101475268869054 
373	 0.104921033220179 
374	 0.103748264820709 
375	 9.97393718442145E-02 
376	 9.63607368630457E-02 
377	 9.46442624166461E-02 
378	 9.52282250018594E-02 
379	 9.91780719886381E-02 
380	 0.101481955285742 
381	 0.100045576330179 
382	 0.101121880899016 
383	 0.101793341345923 
384	 9.75819954369253E-02 
385	 9.68112720449979E-02 
386	 9.86344065879046E-02 
387	 9.44275080080221E-02 
388	 9.02192329187446E-02 
389	 8.91414310403688E-02 
390	 9.26325937210798E-02 
391	 9.65233931365308E-02 
392	 9.59090703152533E-02 
393	 0.095195400397623 
394	 9.47798570062893E-02 
395	 9.31672937607915E-02 
396	 9.09494048892668E-02 
397	 8.87152818018508E-02 
398	 8.76251019855326E-02 
399	 8.77750103382991E-02 
400	 8.90525403357032E-02 
401	 8.84226279473659E-02 
402	 8.71462395812782E-02 
403	 9.01385747517031E-02 
404	 9.23038103361983E-02 
405	 9.18436245693404E-02 
406	 9.20796154008453E-02 
407	 9.24220405534206E-02 
408	 9.18109277140399E-02 
409	 9.08259678534204E-02 
410	 0.089866426343465 
411	 8.94652480034876E-02 
412	 8.98121921621764E-02 
413	 9.07058513279754E-02 
414	 9.04271556330638E-02 
415	 8.97009690301942E-02 
416	 8.96691259278603E-02 
417	 9.00080558784397E-02 
418	 9.03293195770725E-02 
419	 8.96371487786293E-02 
420	 8.89307986725509E-02 
421	 8.87940054386602E-02 
422	 8.90982244092403E-02 
423	 8.96572077495033E-02 
424	 9.02517233405116E-02 
425	 9.02069773024149E-02 
426	 8.96684849158403E-02 
427	 8.98347842708442E-02 
428	 9.02117245840545E-02 
429	 9.03508309742982E-02 
430	 8.95206864618713E-02 
431	 8.82976477534743E-02 
432	 8.77561908976029E-02 
433	 8.74646572541834E-02 
434	 8.73064770234615E-02 
435	 8.71298188531343E-02 
436	 0.087502867671828 
437	 8.86590416995065E-02 
438	 8.91795245056661E-02 
439	 8.90508106443305E-02 
440	 8.86279868866989E-02 
441	 8.84277884704236E-02 
442	 0.088588163231163 
443	 8.87722216857316E-02 
444	 8.90225190222001E-02 
445	 0.089348094194491 
446	 8.93594269200318E-02 
447	 8.91939503266611E-02 
448	 8.92086460177958E-02 
449	 8.98657308392622E-02 
450	 9.09687396950357E-02 
451	 9.06690207023382E-02 
452	 9.02521473923001E-02 
453	 9.10492533241873E-02 
454	 9.17468051112107E-02 
455	 9.21011668133454E-02 
456	 9.22771854412235E-02 
457	 9.19648447146526E-02 
458	 9.12757694715638E-02 
459	 9.14419011745041E-02 
460	 9.21154412656153E-02 
461	 9.27302869813873E-02 
462	 0.092189278230163 
463	 9.11998778752049E-02 
464	 9.28730879178941E-02 
465	 9.40157787766501E-02 
466	 9.32454654085638E-02 
467	 9.35555806830192E-02 
468	 9.42422942358853E-02 
469	 9.38199375147473E-02 
470	 9.32265001292523E-02 
471	 9.28417729852916E-02 
472	 0.092981797429087 
473	 9.35680861589921E-02 
474	 9.44178628027045E-02 
475	 9.46016895219033E-02 
476	 9.44487255766064E-02 
477	 9.48054660193427E-02 
478	 9.46440670084993E-02 
479	 9.40463309047645E-02 
480	 9.45429776671343E-02 
481	 9.51776854904538E-02 
482	 9.51954293001087E-02 
483	 9.55629357979243E-02 
484	 9.61577869743518E-02 
485	 9.63258785719705E-02 
486	 0.096370109695397 
487	 9.63150672454315E-02 
488	 9.57984619695729E-02 
489	 9.51881080260597E-02 
490	 9.48927684641835E-02 
491	 9.54370330077388E-02 
492	 9.62962061974577E-02 
493	 9.57639724980063E-02 
494	 9.54732247869323E-02 
495	 9.60516778811081E-02 
496	 9.66219222403664E-02 
497	 9.70949663940996E-02 
498	 9.74646684042986E-02 
499	 9.82620954412821E-02 
500	 9.92411081142309E-02 
501	 9.92004502457656E-02 
502	 9.88051250684631E-02 
503	 9.85304665388043E-02 
504	 9.85675940679314E-02 
505	 9.88332841560637E-02 
506	 9.90756357369196E-02 
507	 0.100098472560201 
508	 0.101643361596326 
509	 0.101738289507245 
510	 0.101953050874436 
511	 0.103438556514641 
512	 0.103982296400103 
513	 0.103962631271177 
514	 0.105108866596616 
515	 0.106384155126615 
516	 0.107321411710323 
517	 0.107572157270994 
518	 0.107524422590738 
519	 0.107634632770742 
520	 0.107643376784005 
521	 0.107766712497554 
522	 0.108673231306145 
523	 0.109582948070252 
524	 0.110214033858595 
525	 0.111330982311556 
526	 0.112458990460695 
527	 0.112832748859985 
528	 0.112918807949361 
529	 0.11310728943552 
530	 0.114182255341843 
531	 0.115568875997185 
532	 0.116781414922907 
533	 0.117212582207275 
534	 0.11721226235919 
535	 0.117629245006757 
536	 0.118149651694786 
537	 0.1187320399821 
538	 0.119548335108211 
539	 0.120277314811893 
540	 0.120617390030494 
541	 0.120898814668379 
542	 0.121298789922681 
543	 0.122093577932466 
544	 0.122870605725038 
545	 0.123446789673666 
546	 0.123897073261182 
547	 0.124416963452034 
548	 0.12524215861916 
549	 0.126039832950812 
550	 0.126625748648653 
551	 0.126723789577577 
552	 0.126728360720449 
553	 0.126969806429768 
554	 0.127905203291756 
555	 0.128982754165084 
556	 0.129063406141382 
557	 0.129282127083139 
558	 0.129847122701661 
559	 0.129921389464281 
560	 0.130038010050487 
561	 0.130694425392164 
562	 0.131495190747767 
563	 0.132194837536169 
564	 0.132405269371011 
565	 0.132435393072376 
566	 0.132456174567125 
567	 0.132589930041791 
568	 0.132894338704213 
569	 0.13341539012575 
570	 0.133551630147363 
571	 0.133310527838772 
572	 0.133250424302759 
573	 0.133397292540329 
574	 0.133744847792455 
575	 0.134028670858166 
576	 0.134167692984842 
577	 0.134064545915283 
578	 0.134374230246957 
579	 0.135046134857768 
580	 0.134840785049726 
581	 0.134655133313444 
582	 0.135259723163535 
583	 0.135505315577307 
584	 0.135452003839132 
585	 0.135783314708658 
586	 0.136246323408628 
587	 0.136659121890102 
588	 0.136559549368438 
589	 0.136145545461503 
590	 0.135756056761267 
591	 0.135615514412067 
592	 0.135820988748154 
593	 0.136497361907195 
594	 0.136880016492517 
595	 0.136607797379651 
596	 0.136747195235625 
597	 0.137284606734367 
598	 0.137988028753405 
599	 0.138082893803394 
600	 0.137553784246935 
601	 0.137564039881738 
602	 0.137721805477842 
603	 0.13766768311128 
604	 0.137856888316332 
605	 0.138192457652414 
606	 0.138252343465452 
607	 0.138263860498853 
608	 0.138301689749944 
609	 0.138363402233442 
610	 0.138148138022223 
611	 0.137301002693394 
612	 0.137142840440034 
613	 0.137502462119558 
614	 0.136551224144705 
615	 0.135976118272627 
616	 0.136665680845462 
617	 0.136922920382661 
618	 0.136592470642035 
619	 0.135766634848957 
620	 0.135747695011977 
621	 0.13657083235474 
622	 0.136404352055818 
623	 0.136122232823627 
624	 0.1365184966002 
625	 0.136656474090175 
626	 0.136505679913772 
627	 0.136433305322618 
628	 0.136351317507407 
629	 0.136316748979554 
630	 0.136778981934972 
631	 0.137208145638507 
632	 0.136923511575464 
633	 0.13669701074716 
634	 0.136744421548357 
635	 0.137141521545437 
636	 0.137304371614516 
637	 0.136993940363305 
638	 0.137351784284782 
639	 0.138039783713091 
640	 0.13818809917651 
641	 0.138409991655142 
642	 0.13869096668188 
643	 0.138163364890451 
644	 0.137765198657519 
645	 0.138296000800419 
646	 0.138768466989319 
647	 0.138964087314715 
648	 0.138863849700237 
649	 0.138628222436015 
650	 0.138295608537308 
651	 0.137456646698193 
652	 0.137084119061327 
653	 0.138315886171688 
654	 0.138222042303411 
655	 0.136512540008091 
656	 0.135120748023774 
657	 0.133742099761812 
658	 0.13237104491323 
659	 0.13156916218778 
660	 0.131074074506128 
661	 0.130460729946141 
662	 0.129396072474799 
663	 0.127901011181613 
664	 0.126658982078493 
665	 0.125257145378468 
666	 0.123423200094694 
667	 0.122381397787017 
668	 0.121975740986076 
669	 0.121334852984607 
670	 0.120434495272377 
671	 0.119419573875747 
672	 0.119413153485901 
673	 0.119485760708823 
674	 0.118517613004583 
675	 0.118501452220836 
676	 0.119358210095915 
677	 0.119417434025029 
678	 0.119536677713902 
679	 0.120147534850817 
680	 0.120873121935202 
681	 0.121815999175695 
682	 0.123207468188394 
683	 0.124661754752215 
684	 0.126231107443945 
685	 0.12872975434825 
686	 0.131502955576622 
687	 0.133942984513737 
688	 0.136938413884234 
689	 0.140085975442838 
690	 0.142743238279602 
691	 0.146102154869301 
692	 0.150321802326819 
693	 0.153966452302358 
694	 0.157255294911269 
695	 0.160377350303693 
696	 0.163982621942535 
697	 0.167794710290798 
698	 0.170845986846135 
699	 0.173664910590034 
700	 0.17651652233902 
701	 0.179765962806667 
702	 0.183087300929858 
703	 0.186009461666872 
704	 0.18842545375002 
705	 0.190485756712615 
706	 0.19259211880148 
707	 0.195010928708086 
708	 0.19779369851864 
709	 0.199907642004637 
710	 0.201571366210252 
711	 0.203450446656701 
712	 0.205335826439027 
713	 0.20717248897658 
714	 0.209044443904234 
715	 0.210463518845567 
716	 0.211093329241725 
717	 0.212256647908028 
718	 0.214103317239878 
719	 0.215727949428491 
720	 0.217194090090546 
721	 0.218380274478451 
722	 0.219064668955741 
723	 0.220024578203914 
724	 0.222060573510928 
725	 0.223589003968733 
726	 0.224377698341793 
727	 0.22541914891556 
728	 0.226128037918504 
729	 0.226472142722046 
730	 0.228201367095089 
731	 0.230120448260903 
732	 0.230364012946731 
733	 0.231171628748601 
734	 0.232703255400785 
735	 0.233638568537296 
736	 0.234422020714341 
737	 0.235324228347982 
738	 0.236314883541859 
739	 0.237282318850501 
740	 0.238031550096958 
741	 0.238578979631108 
742	 0.239018133215275 
743	 0.239644706338697 
744	 0.24053198456319 
745	 0.241679529374174 
746	 0.242377524632481 
747	 0.242761706229036 
748	 0.243440465440716 
749	 0.244366958282197 
750	 0.245466766136157 
751	 0.246387591867073 
752	 0.24706109811667 
753	 0.247446970057635 
754	 0.247263462143547 
755	 0.247082028008988 
756	 0.248920226849365 
757	 0.249079800044867 
758	 0.246324294309655 
759	 0.245942235670079 
760	 0.248940231887478 
761	 0.253464680875057 
762	 0.255023414257613 
763	 0.254162023981069 
764	 0.255390682032952 
765	 0.257013483265247 
766	 0.258143982037681 
767	 0.257938678234036 
768	 0.257582518386063 
769	 0.25846514795095 
770	 0.258917150276795 
771	 0.258893493339389 
772	 0.259675816572367 
773	 0.260795294971534 
774	 0.261885139846379 
775	 0.262704901081695 
776	 0.26324506465509 
777	 0.263583840423466 
778	 0.264001925727873 
779	 0.264584416793905 
780	 0.265179905742429 
781	 0.26590017538939 
782	 0.266771898164294 
783	 0.26698748809093 
784	 0.267217276115169 
785	 0.269263763282733 
786	 0.270351458980522 
787	 0.269930074067729 
788	 0.270265840719785 
789	 0.270729712981737 
790	 0.270722306295845 
791	 0.271502986172609 
792	 0.272906022399586 
793	 0.274128728450809 
794	 0.274362447567552 
795	 0.273711545470705 
796	 0.274486023481006 
797	 0.275659752330921 
798	 0.276089605546835 
799	 0.276557412370614 
800	 0.277168560081278 
801	 0.277785045653055 
802	 0.278571194381058 
803	 0.279500212283132 
804	 0.280157945772573 
805	 0.28051693706354 
806	 0.280628788652632 
807	 0.281295580172692 
808	 0.282283026207085 
809	 0.282334818559724 
810	 0.282752838546668 
811	 0.283834248468886 
812	 0.283709639441787 
813	 0.283064013517949 
814	 0.283037938493664 
815	 0.284362019209074 
816	 0.286689073952923 
817	 0.28823191420797 
818	 0.289409960653978 
819	 0.290257091755905 
820	 0.290097962570098 
821	 0.290088618161247 
822	 0.291576133224419 
823	 0.293206266469812 
824	 0.294347908408462 
825	 0.29443807573495 
826	 0.294299623256944 
827	 0.29438755577246 
828	 0.294904264062358 
829	 0.295613905708426 
830	 0.296200651371343 
831	 0.29748523313892 
832	 0.299084108775934 
833	 0.299444300094778 
834	 0.299970400092731 
835	 0.300990988622775 
836	 0.300562669339319 
837	 0.300294249021047 
838	 0.302062057111633 
839	 0.303029507736619 
840	 0.303159954937306 
841	 0.304151430611491 
842	 0.305256913568198 
843	 0.306101855702871 
844	 0.30648081168168 
845	 0.30634276569001 
846	 0.305701957632537 
847	 0.305208234654245 
848	 0.305140849485129 
849	 0.305773112479011 
850	 0.306502873370085 
851	 0.307111333445285 
852	 0.308036379958515 
853	 0.30906531554613 
854	 0.309957633201964 
855	 0.311393826463388 
856	 0.312401535494143 
857	 0.30996158817177 
858	 0.30969177718708 
859	 0.312439607574481 
860	 0.311756679089632 
861	 0.310250084805339 
862	 0.310701189478207 
863	 0.311772639741133 
864	 0.312804979607897 
865	 0.312576338904667 
866	 0.314077886991711 
867	 0.317388271826542 
868	 0.317973985424886 
869	 0.317480923013191 
870	 0.317475325322554 
871	 0.317922614298528 
872	 0.318419521676295 
873	 0.318042537200549 
874	 0.318651368329825 
875	 0.320541814145104 
876	 0.322475358324363 
877	 0.323720980235115 
878	 0.324069265421388 
879	 0.326153019421488 
880	 0.328846535450798 
881	 0.329761422361104 
882	 0.330640034901787 
883	 0.331728408201295 
884	 0.332197517196252 
885	 0.332904790248281 
886	 0.334094691173196 
887	 0.333880069780143 
888	 0.333336081464801 
889	 0.334093490412805 
890	 0.333631882820291 
891	 0.332264227567238 
892	 0.332754655982199 
893	 0.333518163262602 
894	 0.334050008061951 
895	 0.3358647637537 
896	 0.337821453354121 
897	 0.3385590071592 
898	 0.341111974647873 
899	 0.344802178769824 
900	 0.346583189389874 
901	 0.346320376931756 
902	 0.344509195316577 
903	 0.343397087975938 
904	 0.342926064371906 
905	 0.343025521810879 
906	 0.343812878632219 
907	 0.345170057300122 
908	 0.346944262231482 
909	 0.346929125875634 
910	 0.3457244374608 
911	 0.348374472461382 
912	 0.350330902458983 
913	 0.349753702951377 
914	 0.353545842441539 
915	 0.356664342825982 
916	 0.352561527359037 
917	 0.352500836738808 
918	 0.3557994974239 
919	 0.353996052618846 
920	 0.352277073278317 
921	 0.352077528139254 
922	 0.351156851098724 
923	 0.351076120889814 
924	 0.352770784605421 
925	 0.349757810147423 
926	 0.344075182247069 
927	 0.342552720010462 
928	 0.342784473566668 
929	 0.34403064060042 
930	 0.345399914738127 
931	 0.347650902370093 
932	 0.351591520803429 
933	 0.359362485504351 
934	 0.363770619318638 
935	 0.355273764420632 
936	 0.353246543977517 
937	 0.355611784875026 
938	 0.343398171930955 
939	 0.334586728551238 
940	 0.334657387804725 
941	 0.341828922951537 
942	 0.347042135464884 
943	 0.344744470376677 
944	 0.347965355760594 
945	 0.354514290118077 
946	 0.358129194114364 
947	 0.3600552682611 
948	 0.359908528968744 
949	 0.35655662037514 
950	 0.351567850787604 
951	 0.346679087670448 
952	 0.34612819324106 
953	 0.348612596355125 
954	 0.352004539619582 
955	 0.349511404473468 
956	 0.346788638843985 
957	 0.355929607996207 
958	 0.361326335936523 
959	 0.358688363241072 
960	 0.347676334006325 
961	 0.343380404726506 
962	 0.350847727369181 
963	 0.353522012788295 
964	 0.352747541546829 
965	 0.351352721452757 
966	 0.354138004085721 
967	 0.356733169496742 
968	 0.348789388096141 
969	 0.345016584537841 
970	 0.347518891950003 
971	 0.347403587972045 
972	 0.349406946321477 
973	 0.355125308593738 
974	 0.357640389562131 
975	 0.358194413860766 
976	 0.358929440093257 
977	 0.358031479576723 
978	 0.356632297582174 
979	 0.357752415138799 
980	 0.356649059498867 
981	 0.353218703881808 
982	 0.35143637195311 
983	 0.354866293946015 
984	 0.363312723960488 
985	 0.363224633598866 
986	 0.363501815570631 
987	 0.373824525724388 
988	 0.376354889470983 
989	 0.370725104497616 
990	 0.362654831988073 
991	 0.360527883676528 
992	 0.364212958438639 
993	 0.362611748553797 
994	 0.360012554034484 
995	 0.359107452057614 
996	 0.362431066836047 
997	 0.36572271544291 
998	 0.364621256020464 
999	 0.360092575183482 
1000	 0.357658646349066 
1001	 0.365950487189336 
1002	 0.368036736716682 
1003	 0.36436671265563 
1004	 0.372801776441578 
1005	 0.376867326894224 
1006	 0.371618428376177 
1007	 0.368010272136994 
1008	 0.369830064304084 
1009	 0.377089135722523 
1010	 0.367985896532053 
1011	 0.357429222995019 
1012	 0.369766549813592 
1013	 0.378133805877558 
1014	 0.379984951091046 
1015	 0.383497094300269 
1016	 0.382871365912355 
1017	 0.377157132902918 
1018	 0.36813417580977 
1019	 0.365307813236815 
1020	 0.372583010926857 
1021	 0.379408101744699 
1022	 0.378637512530129 
1023	 0.366548210518679 
1024	 0.368803524982636 
1025	 0.376886780555338 
1026	 0.369858451411951 
1027	 0.3661286288356 
1028	 0.368145210825757 
1029	 0.368785992163006 
1030	 0.370066259317549 
1031	 0.372857227708812 
1032	 0.377444891446147 
1033	 0.388768812636328 
1034	 0.403837401511193 
1035	 0.387041037771247 
1036	 0.36388385988935 
1037	 0.366058954709484 
1038	 0.380177171221323 
1039	 0.393415712223438 
1040	 0.38856581775301 
1041	 0.382907834655172 
1042	 0.379674721653337 
1043	 0.374598657086329 
1044	 0.376462875358964 
1045	 0.385685188288228 
1046	 0.391502599866529 
1047	 0.386669677904679 
1048	 0.368037062268189 
1049	 0.341377883901836 
1050	 0.331526319058616 
1051	 0.35768554629243 
1052	 0.368761208807254 
1053	 0.37105261825308 
1054	 0.384377047608393 
1055	 0.390373235492276 
1056	 0.390756222293648 
1057	 0.397117019573157 
1058	 0.394720583826508 
1059	 0.382783850070497 
1060	 0.370626496779744 
1061	 0.375370753751352 
1062	 0.395703786379941 
1063	 0.376735009626328 
1064	 0.350181933657065 
1065	 0.343908614521284 
1066	 0.375226866246404 
1067	 0.392174325378344 
1068	 0.346531133843085 
1069	 0.35598037643592 
1070	 0.388962032216655 
1071	 0.359885471978822 
1072	 0.342793507385868 
1073	 0.347880079537208 
1074	 0.341938880639292 
1075	 0.361657925690559 
