Wavelength	SHSI00323.asd
325	 0.050311625129235 
326	 5.07473755150429E-02 
327	 6.21412749699685E-02 
328	 6.30114007690649E-02 
329	 5.98875005118852E-02 
330	 5.66126781139094E-02 
331	 5.92605870655927E-02 
332	 6.34063728984597E-02 
333	 0.064229584200133 
334	 5.94242826605502E-02 
335	 5.32930695146311E-02 
336	 5.65250759670423E-02 
337	 6.03006026249491E-02 
338	 6.12006958860852E-02 
339	 5.71642319760179E-02 
340	 5.41331262976404E-02 
341	 5.65986994248467E-02 
342	 5.79547687305781E-02 
343	 5.74147585780425E-02 
344	 5.50882626146584E-02 
345	 5.65283647076908E-02 
346	 0.061216935241591 
347	 6.13439602197581E-02 
348	 5.95428224337747E-02 
349	 5.80052063977503E-02 
350	 5.77215867703885E-02 
351	 5.82912468895204E-02 
352	 5.89647443530811E-02 
353	 5.74288575054507E-02 
354	 5.46585909316789E-02 
355	 5.63913876835317E-02 
356	 5.82668986941757E-02 
357	 0.057692719039501 
358	 5.70779712962749E-02 
359	 5.65955540514338E-02 
360	 5.60258309905259E-02 
361	 0.056306474343916 
362	 5.70007105991214E-02 
363	 5.57020463471013E-02 
364	 5.57156496633885E-02 
365	 5.80834147241497E-02 
366	 5.73039095878609E-02 
367	 5.58774329746529E-02 
368	 5.78763608887297E-02 
369	 5.77291035649029E-02 
370	 5.56600339361933E-02 
371	 5.69312128574627E-02 
372	 0.058106667510035 
373	 5.75493574177755E-02 
374	 5.79294922825174E-02 
375	 5.81772412435002E-02 
376	 5.65267634377027E-02 
377	 5.57446649715057E-02 
378	 5.59496085490951E-02 
379	 5.49689684114666E-02 
380	 5.50414425350383E-02 
381	 5.70086192629172E-02 
382	 5.89135746098498E-02 
383	 5.92206174122231E-02 
384	 5.62805999953085E-02 
385	 0.055011783828145 
386	 5.58824502367831E-02 
387	 5.61661565375129E-02 
388	 5.55240445207814E-02 
389	 5.43089807157124E-02 
390	 5.59364284305089E-02 
391	 0.057839796156341 
392	 5.67933465153157E-02 
393	 5.54286407506478E-02 
394	 5.47186851282995E-02 
395	 5.56082220585567E-02 
396	 5.65642310446356E-02 
397	 5.65953129057003E-02 
398	 5.45655731785711E-02 
399	 5.24500308487003E-02 
400	 5.21675944603484E-02 
401	 5.29712772089999E-02 
402	 0.054099280614003 
403	 5.42617536425068E-02 
404	 5.38799197924783E-02 
405	 5.34080629037365E-02 
406	 5.46121770533977E-02 
407	 5.57704876566473E-02 
408	 5.46516131600642E-02 
409	 0.054237536123121 
410	 5.47180269776738E-02 
411	 0.054656743780619 
412	 5.42399674873412E-02 
413	 5.37032450140389E-02 
414	 0.05396886030755 
415	 5.46221573940665E-02 
416	 5.50216090681867E-02 
417	 5.49955418867288E-02 
418	 5.47115939862007E-02 
419	 5.49331822075849E-02 
420	 5.48095038822341E-02 
421	 5.40854540829305E-02 
422	 5.43868297873876E-02 
423	 5.51407186104785E-02 
424	 5.52697972701393E-02 
425	 0.05517990391974 
426	 0.05506517714097 
427	 5.52492523603052E-02 
428	 5.56901900113852E-02 
429	 0.056191756329436 
430	 5.54297178764439E-02 
431	 5.44847602550257E-02 
432	 5.54331999593174E-02 
433	 5.58430217048642E-02 
434	 5.53721682123459E-02 
435	 5.52559885962314E-02 
436	 5.54053960552586E-02 
437	 5.57290913335302E-02 
438	 5.60512399295959E-02 
439	 5.62187313266033E-02 
440	 5.60052458180783E-02 
441	 5.59205206699941E-02 
442	 5.60276749717398E-02 
443	 5.57976156604541E-02 
444	 0.055712461056063 
445	 5.61421355656703E-02 
446	 5.65868156679372E-02 
447	 5.68798521467635E-02 
448	 5.68659463516329E-02 
449	 5.68057403053059E-02 
450	 5.68125206801644E-02 
451	 5.69015894805656E-02 
452	 5.70300145773392E-02 
453	 5.71542702987187E-02 
454	 0.05735789925543 
455	 5.75165064161378E-02 
456	 5.72279849758299E-02 
457	 5.70416820548909E-02 
458	 5.72333641499179E-02 
459	 5.78795538953819E-02 
460	 5.85432729142609E-02 
461	 5.87109196213618E-02 
462	 5.86115308861202E-02 
463	 5.84535668675235E-02 
464	 5.87588154730589E-02 
465	 0.058704352922042 
466	 5.80330351266543E-02 
467	 5.81429607469858E-02 
468	 5.86805554159198E-02 
469	 5.88946894336356E-02 
470	 5.89684567683779E-02 
471	 5.89418676660793E-02 
472	 5.88864461063281E-02 
473	 5.87159943804559E-02 
474	 5.84273879238098E-02 
475	 0.058407504310678 
476	 5.85752732626948E-02 
477	 5.86927887239207E-02 
478	 5.88186291842557E-02 
479	 5.89702855075083E-02 
480	 5.92381625581646E-02 
481	 5.93179323955486E-02 
482	 5.90206188956784E-02 
483	 5.91326846001778E-02 
484	 5.95666378725681E-02 
485	 5.98130552452457E-02 
486	 0.059777360428951 
487	 5.94824204285709E-02 
488	 5.93723743270614E-02 
489	 5.93481837193938E-02 
490	 5.92989652266567E-02 
491	 5.99063941996993E-02 
492	 6.06816238762662E-02 
493	 5.98920633360701E-02 
494	 5.95559559414485E-02 
495	 6.03826988347533E-02 
496	 6.08120397040588E-02 
497	 6.08856572562498E-02 
498	 6.08560420552101E-02 
499	 6.10048191042587E-02 
500	 6.13819336113053E-02 
501	 6.18824269919449E-02 
502	 6.21681080125353E-02 
503	 0.06204503682422 
504	 6.17737569618185E-02 
505	 6.15694522320622E-02 
506	 6.16856871624115E-02 
507	 6.20365826384878E-02 
508	 0.06260193621854 
509	 6.35424623290049E-02 
510	 6.39409925488856E-02 
511	 6.32326402406801E-02 
512	 6.36616157418347E-02 
513	 6.48799742605826E-02 
514	 0.065178441119396 
515	 6.54371435597209E-02 
516	 6.58220710492695E-02 
517	 6.56165111224944E-02 
518	 6.55904524942783E-02 
519	 6.65510054713011E-02 
520	 6.70209624332314E-02 
521	 6.70574789758896E-02 
522	 6.76824847483219E-02 
523	 6.83587850378881E-02 
524	 6.88294715538793E-02 
525	 6.91132217961192E-02 
526	 6.91889052798092E-02 
527	 6.90144425190186E-02 
528	 6.93300281868742E-02 
529	 7.00885839406711E-02 
530	 7.04278020438375E-02 
531	 7.06519918522018E-02 
532	 7.09695037650263E-02 
533	 7.13284064678706E-02 
534	 7.16674695105922E-02 
535	 7.18901314253045E-02 
536	 0.071938086315111 
537	 7.19584293676543E-02 
538	 7.27142135822231E-02 
539	 7.34362924122808E-02 
540	 7.33754988197956E-02 
541	 7.33853549115027E-02 
542	 7.35787913352044E-02 
543	 7.37551737585468E-02 
544	 7.40309439013575E-02 
545	 7.44284526127405E-02 
546	 7.48512798467302E-02 
547	 7.50584644566954E-02 
548	 7.47594114420372E-02 
549	 7.48451433528239E-02 
550	 7.53934520104035E-02 
551	 7.59120275693788E-02 
552	 0.075972469818025 
553	 7.54253191486977E-02 
554	 7.54885424364125E-02 
555	 0.076073435479054 
556	 7.67016779603262E-02 
557	 7.70992611329123E-02 
558	 7.71565387566752E-02 
559	 7.70244121601864E-02 
560	 7.69045265872978E-02 
561	 7.69743016725281E-02 
562	 7.70739719999969E-02 
563	 7.72349721094202E-02 
564	 7.76668665113366E-02 
565	 7.79118422269031E-02 
566	 7.77785796846211E-02 
567	 7.74345514521673E-02 
568	 7.71544819007284E-02 
569	 7.72580020947361E-02 
570	 7.73612070473196E-02 
571	 7.73400751715316E-02 
572	 0.077128594901545 
573	 7.70063903337444E-02 
574	 7.71182447357574E-02 
575	 7.71020635037399E-02 
576	 7.70205480965448E-02 
577	 7.70965855754388E-02 
578	 7.69834781412333E-02 
579	 7.66948699640117E-02 
580	 7.67484775557172E-02 
581	 7.69738643784249E-02 
582	 7.71893443138449E-02 
583	 7.73258652205367E-02 
584	 0.07733213242253 
585	 7.71176696496014E-02 
586	 7.69374405927354E-02 
587	 0.076912223830834 
588	 0.076993591957094 
589	 7.71316435670136E-02 
590	 7.72580986939433E-02 
591	 7.68595377842175E-02 
592	 7.61919379847372E-02 
593	 7.64311480813251E-02 
594	 7.67299747907054E-02 
595	 7.66355971372273E-02 
596	 7.67885483034609E-02 
597	 7.70297996353297E-02 
598	 7.69681347907196E-02 
599	 7.65983626743483E-02 
600	 7.60985059056174E-02 
601	 7.62321560624529E-02 
602	 7.64958533173009E-02 
603	 7.64187841405069E-02 
604	 7.61608754475383E-02 
605	 7.59843321872628E-02 
606	 7.65729749871796E-02 
607	 7.67242137106322E-02 
608	 7.61018204325066E-02 
609	 7.59370310312996E-02 
610	 7.60654974798487E-02 
611	 7.61325582763561E-02 
612	 7.59776814375583E-02 
613	 7.57207712398999E-02 
614	 7.59828114050238E-02 
615	 7.60517975512238E-02 
616	 7.55817827952696E-02 
617	 7.56049930594752E-02 
618	 7.57735106200605E-02 
619	 0.075221845623702 
620	 7.48837114678347E-02 
621	 7.49626202479223E-02 
622	 7.50484145983333E-02 
623	 7.50591953069079E-02 
624	 7.49492597594287E-02 
625	 0.074979563314605 
626	 7.51887019465897E-02 
627	 0.075660006592695 
628	 7.55083821090886E-02 
629	 7.45844794836053E-02 
630	 7.43727834592062E-02 
631	 7.46117721920013E-02 
632	 7.47967842792985E-02 
633	 7.48409319051025E-02 
634	 7.48040982821924E-02 
635	 7.50521771712619E-02 
636	 7.52386604561343E-02 
637	 7.51407605199782E-02 
638	 7.47579938350512E-02 
639	 7.43429845663011E-02 
640	 7.43260651963302E-02 
641	 7.44192691512113E-02 
642	 7.44854469965533E-02 
643	 7.43561593358208E-02 
644	 7.42255419284596E-02 
645	 7.42484381959433E-02 
646	 7.40591733349265E-02 
647	 7.37014978841225E-02 
648	 7.34345374118119E-02 
649	 7.33636447784472E-02 
650	 7.34831294440985E-02 
651	 7.34480985788819E-02 
652	 7.32534690565825E-02 
653	 7.29346898064627E-02 
654	 7.28501684956684E-02 
655	 7.28354606787554E-02 
656	 7.19718830112851E-02 
657	 0.071202311413471 
658	 7.10954468399458E-02 
659	 7.11555994402028E-02 
660	 7.11119967764851E-02 
661	 7.06378726892182E-02 
662	 7.02379415400856E-02 
663	 7.00245913414445E-02 
664	 6.98656504727515E-02 
665	 6.93457161731379E-02 
666	 6.82209198152457E-02 
667	 6.78328933388338E-02 
668	 6.80424995777946E-02 
669	 6.79471544629112E-02 
670	 6.76410232457527E-02 
671	 6.71638786750728E-02 
672	 6.67090418797816E-02 
673	 6.65966034922431E-02 
674	 6.71359039057289E-02 
675	 6.72789227105777E-02 
676	 6.71107379130115E-02 
677	 6.77483177859982E-02 
678	 6.82036192348293E-02 
679	 6.80351222792432E-02 
680	 6.81090149213519E-02 
681	 6.85353158365704E-02 
682	 6.93288021405369E-02 
683	 6.97910897438017E-02 
684	 6.99724292548997E-02 
685	 7.10027103609346E-02 
686	 7.22659945029294E-02 
687	 7.31895271555563E-02 
688	 7.41242784654333E-02 
689	 7.50310082532277E-02 
690	 7.58981947531396E-02 
691	 7.68164287064733E-02 
692	 7.78518667838305E-02 
693	 7.89297629099362E-02 
694	 8.03008310397797E-02 
695	 0.082120644839269 
696	 8.32816596977811E-02 
697	 8.39364257569609E-02 
698	 8.51196690116977E-02 
699	 8.65315722711179E-02 
700	 8.79983054774927E-02 
701	 8.94230235352012E-02 
702	 9.04783703173378E-02 
703	 9.07692555080466E-02 
704	 9.14191934239005E-02 
705	 9.25767177749046E-02 
706	 9.36523947740017E-02 
707	 9.45406524566101E-02 
708	 9.51826726652845E-02 
709	 9.57867789887519E-02 
710	 9.64125864600808E-02 
711	 9.71177519766253E-02 
712	 9.77664761921851E-02 
713	 0.098158506080981 
714	 9.75872570439345E-02 
715	 9.72396170830458E-02 
716	 0.098233128145557 
717	 9.94128635961807E-02 
718	 0.100377142187223 
719	 0.10062481539105 
720	 0.10064832768833 
721	 0.100689029736506 
722	 0.100587174535926 
723	 0.100696602453013 
724	 0.101418318466038 
725	 0.101428207900043 
726	 0.100961420301342 
727	 0.101841646626804 
728	 0.102506114227806 
729	 0.102264414798464 
730	 0.102098459268692 
731	 0.102392131307744 
732	 0.103484491047807 
733	 0.10387302913584 
734	 0.103629281055876 
735	 0.104304618668405 
736	 0.104818157599839 
737	 0.104502582584209 
738	 0.104309195238483 
739	 0.104492757980903 
740	 0.105300550836371 
741	 0.105595951528621 
742	 0.105233424681302 
743	 0.105281852620489 
744	 0.105551662217137 
745	 0.105849248556072 
746	 0.106205116106738 
747	 0.106499839793762 
748	 0.106504274075016 
749	 0.106248426084655 
750	 0.105918313630531 
751	 0.106368539997724 
752	 0.106970703379868 
753	 0.107012495609438 
754	 0.107146815506836 
755	 0.107237480992408 
756	 0.106480831682128 
757	 0.105879253220141 
758	 0.1058912708999 
759	 0.106293654030963 
760	 0.107263703067564 
761	 0.108235501612174 
762	 0.108144156580853 
763	 0.107487877798406 
764	 0.107751512707247 
765	 0.1081795997434 
766	 0.108426106862564 
767	 0.10833869345941 
768	 0.108246807701864 
769	 0.108544571717261 
770	 0.108621511714658 
771	 0.108459350537451 
772	 0.108496262405719 
773	 0.108856187747979 
774	 0.109514692493604 
775	 0.109544353816142 
776	 0.109190759535855 
777	 0.109124879693289 
778	 0.10933981702322 
779	 0.109706920233452 
780	 0.109581201632889 
781	 0.109573117902788 
782	 0.110082119600855 
783	 0.109777215847195 
784	 0.109167260370455 
785	 0.109836826777094 
786	 0.110059931556488 
787	 0.10952576259955 
788	 0.109603211391318 
789	 0.110167074148707 
790	 0.110967322623301 
791	 0.111198119811803 
792	 0.110947735644069 
793	 0.110914424262762 
794	 0.110393553425431 
795	 0.109566334053951 
796	 0.110499159244903 
797	 0.111728055019604 
798	 0.111696532225583 
799	 0.111240563423853 
800	 0.110815620369788 
801	 0.111217894496945 
802	 0.111580893743442 
803	 0.111575295176729 
804	 0.11151674603223 
805	 0.111361772976173 
806	 0.111070467543705 
807	 0.111246915234789 
808	 0.111727222007272 
809	 0.111645975453157 
810	 0.111742702911112 
811	 0.112141370722513 
812	 0.111447787126843 
813	 0.110857462750172 
814	 0.112063841381274 
815	 0.113285933612333 
816	 0.113871695397004 
817	 0.113498066336837 
818	 0.112920960293225 
819	 0.112575389973321 
820	 0.112368292307274 
821	 0.112524013319646 
822	 0.113287531910298 
823	 0.113651414383761 
824	 0.113527587907582 
825	 0.113464587995042 
826	 0.113393566705608 
827	 0.113290590177523 
828	 0.113026091174331 
829	 0.112913391445836 
830	 0.113324122531363 
831	 0.113656369337174 
832	 0.11388617204938 
833	 0.114347532204473 
834	 0.115099308446346 
835	 0.115845778574132 
836	 0.114710174918858 
837	 0.113853399195806 
838	 0.115726780602393 
839	 0.115668721287836 
840	 0.114055751382862 
841	 0.114941345753531 
842	 0.115652605109028 
843	 0.115312977275304 
844	 0.115720353512708 
845	 0.116195625305217 
846	 0.115857698408227 
847	 0.115460766406176 
848	 0.115276576230338 
849	 0.115691796524488 
850	 0.115491576504315 
851	 0.114549383852734 
852	 0.115330679421697 
853	 0.11654134201623 
854	 0.116582763379603 
855	 0.11597006649624 
856	 0.115240653321085 
857	 0.115384746360988 
858	 0.116143574526364 
859	 0.11702352269994 
860	 0.116008621998911 
861	 0.115007504853252 
862	 0.11584380510514 
863	 0.116356991289154 
864	 0.116229428563097 
865	 0.11553524091914 
866	 0.116065125132384 
867	 0.117794480571696 
868	 0.117428575626511 
869	 0.116712868068023 
870	 0.117131618026966 
871	 0.117594625405673 
872	 0.117774095993286 
873	 0.117346380907897 
874	 0.117024053302511 
875	 0.116971118900893 
876	 0.116723739073187 
877	 0.116859801238165 
878	 0.117654566333997 
879	 0.117790678387622 
880	 0.117723158743123 
881	 0.118509840148966 
882	 0.118435928010965 
883	 0.11745933255847 
884	 0.11711413573695 
885	 0.117061167493911 
886	 0.116894279263836 
887	 0.114751780428166 
888	 0.113735006934357 
889	 0.117999866066683 
890	 0.120456932844824 
891	 0.119844913098278 
892	 0.117830823879368 
893	 0.116752879092028 
894	 0.117725132625261 
895	 0.118726220071851 
896	 0.119438330824846 
897	 0.119670262429186 
898	 0.119348821364003 
899	 0.1190218509956 
900	 0.120085442526423 
901	 0.120525710883819 
902	 0.119777157454761 
903	 0.118450449321691 
904	 0.11794366959502 
905	 0.11914295244488 
906	 0.119684211719368 
907	 0.119970625372711 
908	 0.121453432327588 
909	 0.121117357306516 
910	 0.118905016858398 
911	 0.117737807549234 
912	 0.119049884327129 
913	 0.122468383296874 
914	 0.119711271894821 
915	 0.115981899153932 
916	 0.118391636848472 
917	 0.119872833435628 
918	 0.119647741683573 
919	 0.119682851146442 
920	 0.120722758982387 
921	 0.121908691500804 
922	 0.116945496498366 
923	 0.113720753312572 
924	 0.118967190983284 
925	 0.121508243549598 
926	 0.120099997832325 
927	 0.116029797586585 
928	 0.115896698295641 
929	 0.120962323941816 
930	 0.12306782933683 
931	 0.123401276861978 
932	 0.122088616100364 
933	 0.113475490876686 
934	 0.10807470687064 
935	 0.12137169823664 
936	 0.123181075367122 
937	 0.113813057653304 
938	 0.113389144794669 
939	 0.116505820894655 
940	 0.121157809982496 
941	 0.126279062831237 
942	 0.127436022600552 
943	 0.12265818933463 
944	 0.125299514646663 
945	 0.129791338069949 
946	 0.12472298607636 
947	 0.121661351813864 
948	 0.123105407938091 
949	 0.127709391722317 
950	 0.124979132179982 
951	 0.114834370507667 
952	 0.122969683808795 
953	 0.131751525195725 
954	 0.12462878648052 
955	 0.113562973297241 
956	 0.109070319281552 
957	 0.126655409957544 
958	 0.129954370205068 
959	 0.116396167695938 
960	 0.110484720844866 
961	 0.112456703930933 
962	 0.120523238060941 
963	 0.125831720624158 
964	 0.125407736492583 
965	 0.118360097438687 
966	 0.123512542650135 
967	 0.132611549780296 
968	 0.123383644292005 
969	 0.116024177937643 
970	 0.115159180747214 
971	 0.115368705926358 
972	 0.116065777779927 
973	 0.117333351032674 
974	 0.12308960054491 
975	 0.126883367417793 
976	 0.122257328556968 
977	 0.123870472655806 
978	 0.129378650550001 
979	 0.127945058872411 
980	 0.123860293585477 
981	 0.119606919701804 
982	 0.119730219221593 
983	 0.119902519243171 
984	 0.118002914019065 
985	 0.116397074613059 
986	 0.117299068348476 
987	 0.122214100169795 
988	 0.123379512123086 
989	 0.120950239971375 
990	 0.118046857640733 
991	 0.116816109977714 
992	 0.11865714331143 
993	 0.125704374077776 
994	 0.128895647568023 
995	 0.124801646512474 
996	 0.122977977052516 
997	 0.124749539605505 
998	 0.129402875601703 
999	 0.12244325492192 
1000	 0.111666875615753 
1001	 0.114930602742969 
1002	 0.113566722876724 
1003	 0.109865250174743 
1004	 0.12843152817227 
1005	 0.137812976611688 
1006	 0.128402233291228 
1007	 0.12493315627278 
1008	 0.124896696682543 
1009	 0.124860446685348 
1010	 0.119123456956589 
1011	 0.114022601082478 
1012	 0.119068311577033 
1013	 0.123169172458714 
1014	 0.125452821072074 
1015	 0.130196618314708 
1016	 0.129869060623015 
1017	 0.124867913397983 
1018	 0.12612764572108 
1019	 0.129167932975569 
1020	 0.130001052251602 
1021	 0.121866843031681 
1022	 0.113904672416883 
1023	 0.114549502486201 
1024	 0.114925277331402 
1025	 0.118724409037099 
1026	 0.133966222745012 
1027	 0.138228153238513 
1028	 0.131221115914879 
1029	 0.129130436684673 
1030	 0.136482424647241 
1031	 0.148271803031015 
1032	 0.136334335280729 
1033	 0.127103322250113 
1034	 0.134349695499807 
1035	 0.123457232982409 
1036	 0.108453383830185 
1037	 0.107335208990564 
1038	 0.129144486569643 
1039	 0.149390517529109 
1040	 0.130260021644212 
1041	 0.12522830246145 
1042	 0.134597501936416 
1043	 0.117001211403848 
1044	 0.103288388394346 
1045	 0.105350054793093 
1046	 0.125715368625245 
1047	 0.136547640863542 
1048	 0.125838820465765 
1049	 0.115729767493552 
1050	 0.120316098101146 
1051	 0.145828272898494 
1052	 0.14708496683103 
1053	 0.134726722060249 
1054	 0.137681385699213 
1055	 0.142504728470219 
1056	 0.142284784193717 
1057	 0.126235078091495 
1058	 0.112755838668157 
1059	 0.109274236997032 
1060	 0.122329507844115 
1061	 0.123791442896949 
1062	 0.110916768845595 
1063	 0.145426081655837 
1064	 0.166051662768354 
1065	 0.137871760445909 
1066	 0.145782654417746 
1067	 0.14874719610557 
1068	 0.100135177434233 
1069	 0.138000149025286 
1070	 0.184887374779781 
1071	 9.38974606878338E-02 
1072	 9.05557302516445E-02 
1073	 0.160335493901382 
1074	 0.148216908389939 
1075	 0.116260765766408 
