Wavelength	SHSI00393.asd
325	 6.30072370764791E-02 
326	 7.91921073162369E-02 
327	 8.94063335297346E-02 
328	 8.27626333006353E-02 
329	 8.12100197845063E-02 
330	 8.88041536196194E-02 
331	 8.28721525668696E-02 
332	 7.27938390488589E-02 
333	 6.88916750458684E-02 
334	 6.84692101690534E-02 
335	 6.92540520969692E-02 
336	 6.59859210673567E-02 
337	 6.94463625938218E-02 
338	 0.078828144826123 
339	 7.64069472687658E-02 
340	 7.07117897863493E-02 
341	 6.92370159174996E-02 
342	 6.75394429956663E-02 
343	 6.56874279811307E-02 
344	 0.064525390304513 
345	 6.60568720516266E-02 
346	 0.070028272566659 
347	 7.39052884757153E-02 
348	 7.63419843421167E-02 
349	 7.64827882236381E-02 
350	 7.43459434744868E-02 
351	 7.12734767793691E-02 
352	 6.89377008341655E-02 
353	 6.76522514412583E-02 
354	 6.79770519845191E-02 
355	 7.16022845304571E-02 
356	 0.073951544376015 
357	 0.072550493202764 
358	 7.05454236664251E-02 
359	 6.94582816262207E-02 
360	 7.08482084379446E-02 
361	 7.06024593283079E-02 
362	 6.87915580721897E-02 
363	 6.90214859038555E-02 
364	 0.070393222310131 
365	 7.19155000284449E-02 
366	 7.07568352656318E-02 
367	 6.87102332747251E-02 
368	 6.84863634706691E-02 
369	 6.78635976818346E-02 
370	 6.71986037445397E-02 
371	 6.92771161051199E-02 
372	 7.13277714693901E-02 
373	 7.17372193116282E-02 
374	 7.12191330009632E-02 
375	 6.97838303562514E-02 
376	 6.73935777769565E-02 
377	 6.59924301173307E-02 
378	 6.60516518563913E-02 
379	 6.73336082350809E-02 
380	 6.82002720855248E-02 
381	 6.78604982714449E-02 
382	 6.74644947916105E-02 
383	 6.71809637235742E-02 
384	 6.70807521540736E-02 
385	 6.80832837738928E-02 
386	 6.97083215872727E-02 
387	 7.01705360915293E-02 
388	 6.92979665786346E-02 
389	 6.75418122993004E-02 
390	 6.78251864385496E-02 
391	 6.85570215383204E-02 
392	 6.76456243452974E-02 
393	 0.067430984028667 
394	 0.068187011386539 
395	 6.96223377352119E-02 
396	 6.90319530750865E-02 
397	 6.61275650119736E-02 
398	 6.58217261985748E-02 
399	 6.64689491281948E-02 
400	 6.60014760659622E-02 
401	 6.57773518063602E-02 
402	 6.59541022538455E-02 
403	 0.066403783965226 
404	 6.68663571986172E-02 
405	 6.71280942275899E-02 
406	 0.066614385194438 
407	 6.62713376610618E-02 
408	 6.72646127925854E-02 
409	 6.74519593611038E-02 
410	 6.68373417992386E-02 
411	 6.68557868701153E-02 
412	 6.69313917935572E-02 
413	 6.68523610189811E-02 
414	 6.70080593072375E-02 
415	 6.72231940082235E-02 
416	 6.72345357665602E-02 
417	 6.75199842157044E-02 
418	 6.78826968647458E-02 
419	 6.73152414523715E-02 
420	 6.70038777606018E-02 
421	 6.75208365588491E-02 
422	 6.80552002275031E-02 
423	 6.82397398368202E-02 
424	 0.067696685237713 
425	 6.75381618187334E-02 
426	 6.79963600090591E-02 
427	 6.88398382230468E-02 
428	 6.91433199138745E-02 
429	 6.84204409229452E-02 
430	 0.067975629918451 
431	 6.79451558333497E-02 
432	 6.82335799135478E-02 
433	 6.82533054010336E-02 
434	 0.068016480549414 
435	 6.81997205551971E-02 
436	 6.85865887740891E-02 
437	 6.89539479570628E-02 
438	 6.86723300918801E-02 
439	 6.82154728042246E-02 
440	 6.86220952967052E-02 
441	 0.068927297043615 
442	 6.89265108740215E-02 
443	 6.90542447086483E-02 
444	 6.92105244470528E-02 
445	 6.93136830946261E-02 
446	 6.95008691106396E-02 
447	 6.96833048039498E-02 
448	 6.95835831777226E-02 
449	 6.97045605648787E-02 
450	 7.01295330348124E-02 
451	 7.03638912608748E-02 
452	 7.04944912267793E-02 
453	 7.06232182047736E-02 
454	 7.04608330036517E-02 
455	 7.02008253990322E-02 
456	 7.05176464225244E-02 
457	 7.07465081733693E-02 
458	 7.06900681111691E-02 
459	 0.070933253296025 
460	 7.11887864087331E-02 
461	 7.10794347851903E-02 
462	 7.11805589060897E-02 
463	 7.14891702039434E-02 
464	 7.15735741745285E-02 
465	 7.16911970570423E-02 
466	 7.19097032162819E-02 
467	 7.17660342636287E-02 
468	 7.15162695548292E-02 
469	 7.15974040583353E-02 
470	 7.17809695940553E-02 
471	 0.071933757758342 
472	 7.18183256941266E-02 
473	 7.16485187551641E-02 
474	 7.16227759770176E-02 
475	 7.21460216139724E-02 
476	 7.27917949540641E-02 
477	 7.27582724905815E-02 
478	 7.24978845711658E-02 
479	 7.22742379271741E-02 
480	 7.25784464925246E-02 
481	 7.28605782205928E-02 
482	 7.26916661344594E-02 
483	 7.26041129325555E-02 
484	 7.26306628056729E-02 
485	 7.25891188474787E-02 
486	 7.28404317506467E-02 
487	 7.33247298441997E-02 
488	 7.30583557217169E-02 
489	 7.26352785215298E-02 
490	 7.27118951319732E-02 
491	 7.30007996168197E-02 
492	 7.33228903773356E-02 
493	 7.33605346848443E-02 
494	 7.33584076369824E-02 
495	 7.34527737348013E-02 
496	 7.37733764455899E-02 
497	 7.41116399844876E-02 
498	 7.41866698155273E-02 
499	 7.44701224376416E-02 
500	 7.48946065213053E-02 
501	 7.48110183516242E-02 
502	 7.48086333015756E-02 
503	 7.51969447628692E-02 
504	 7.53620774099127E-02 
505	 7.55263615665396E-02 
506	 7.62270670130292E-02 
507	 7.63235211017851E-02 
508	 7.58618134053567E-02 
509	 0.076357036521898 
510	 7.71492885686043E-02 
511	 0.077672084741807 
512	 7.80409159293448E-02 
513	 7.84232198491791E-02 
514	 0.079247241206298 
515	 7.97570235463519E-02 
516	 7.97593873319379E-02 
517	 7.98488475325615E-02 
518	 0.080134755926491 
519	 8.06623597238838E-02 
520	 8.10762344975259E-02 
521	 8.14376504488783E-02 
522	 8.21569484872779E-02 
523	 8.28456418663441E-02 
524	 8.33443931512793E-02 
525	 8.38980606333256E-02 
526	 8.43836821848834E-02 
527	 8.45964306005319E-02 
528	 8.46315883099064E-02 
529	 8.46899022420577E-02 
530	 8.53304261674337E-02 
531	 8.59504710400015E-02 
532	 8.61897721516504E-02 
533	 8.66581727117883E-02 
534	 8.72506819536449E-02 
535	 8.76072740820679E-02 
536	 8.78453612684363E-02 
537	 8.80255618989667E-02 
538	 8.82307774007634E-02 
539	 8.85707381174561E-02 
540	 8.91212447702329E-02 
541	 8.94789332582788E-02 
542	 8.96637669372428E-02 
543	 8.99656195162452E-02 
544	 9.02639999231023E-02 
545	 9.05394477837824E-02 
546	 9.09710156259882E-02 
547	 9.13055699650994E-02 
548	 9.12012933807963E-02 
549	 9.14753275929498E-02 
550	 9.20471177099472E-02 
551	 9.18547887737126E-02 
552	 9.18775034225037E-02 
553	 9.26328241544147E-02 
554	 9.29329340126463E-02 
555	 9.28879233008986E-02 
556	 9.30279607075917E-02 
557	 9.30202496691546E-02 
558	 9.28712084432887E-02 
559	 9.30013252399531E-02 
560	 9.32584766969566E-02 
561	 9.34851831551137E-02 
562	 9.38211830673163E-02 
563	 9.40597784959633E-02 
564	 9.35824595202786E-02 
565	 9.32581595381577E-02 
566	 9.34068746513161E-02 
567	 9.35255347673275E-02 
568	 9.34973284435296E-02 
569	 9.32371341779471E-02 
570	 9.32421408393523E-02 
571	 9.34547597144061E-02 
572	 9.32047894005376E-02 
573	 9.30027967716634E-02 
574	 9.31453959915748E-02 
575	 9.34051287287226E-02 
576	 9.34753909791258E-02 
577	 9.28504383689456E-02 
578	 9.23667410779149E-02 
579	 9.22831878120169E-02 
580	 0.092334760446652 
581	 9.25141232592364E-02 
582	 9.27808005695618E-02 
583	 9.26408789778123E-02 
584	 9.22566977299767E-02 
585	 9.22807018632011E-02 
586	 9.23251592048853E-02 
587	 0.092252808918841 
588	 9.21130230096618E-02 
589	 9.21813393862957E-02 
590	 0.09278901905258 
591	 9.27471585321138E-02 
592	 9.21152221616205E-02 
593	 9.20535209688995E-02 
594	 9.20851306596292E-02 
595	 0.091963724649454 
596	 9.19835505472654E-02 
597	 9.20818701507539E-02 
598	 9.20901373232732E-02 
599	 9.21023353719117E-02 
600	 9.21667429553998E-02 
601	 9.24437231585728E-02 
602	 9.24269710333272E-02 
603	 0.091750145806875 
604	 9.16346451021524E-02 
605	 9.19928782005029E-02 
606	 9.20613022565936E-02 
607	 9.18849342216338E-02 
608	 9.15127160836954E-02 
609	 9.13456152591854E-02 
610	 9.12513888363312E-02 
611	 9.10141841309848E-02 
612	 9.06549766638386E-02 
613	 9.03461583388931E-02 
614	 9.06604341653271E-02 
615	 9.08832226788492E-02 
616	 0.090593124632416 
617	 9.02289177546461E-02 
618	 8.99860194334505E-02 
619	 9.00791121417674E-02 
620	 9.02064932697576E-02 
621	 0.090277231777626 
622	 9.03909071146451E-02 
623	 9.03836403587475E-02 
624	 9.01306426937959E-02 
625	 9.00045140594429E-02 
626	 9.00460809733727E-02 
627	 9.02165607473534E-02 
628	 9.00483342019578E-02 
629	 8.95207711564465E-02 
630	 8.97913403279303E-02 
631	 9.02474049942133E-02 
632	 0.0900176932015 
633	 8.96986892145335E-02 
634	 8.94140545101605E-02 
635	 8.90390382280253E-02 
636	 8.88661904468896E-02 
637	 8.90601091760487E-02 
638	 8.94434048799926E-02 
639	 0.089732441319222 
640	 8.94975670816256E-02 
641	 8.91355938786165E-02 
642	 8.88025953676602E-02 
643	 8.85172422403319E-02 
644	 8.83236234230722E-02 
645	 8.82454934755809E-02 
646	 8.81172181256379E-02 
647	 8.79292115902567E-02 
648	 0.087801375809791 
649	 8.73989274409042E-02 
650	 8.67352000407706E-02 
651	 8.66364588808631E-02 
652	 8.67474640787971E-02 
653	 8.65647338846138E-02 
654	 8.64955648400565E-02 
655	 8.65071007136959E-02 
656	 8.62566703818742E-02 
657	 8.56489004458787E-02 
658	 8.47877235633058E-02 
659	 8.45060338415244E-02 
660	 8.44773088352409E-02 
661	 0.084046465812974 
662	 8.36101904560944E-02 
663	 8.32103804544775E-02 
664	 8.25511986114999E-02 
665	 8.19779786486057E-02 
666	 8.17598968922451E-02 
667	 8.14540346005114E-02 
668	 8.10250116302215E-02 
669	 8.05661202633351E-02 
670	 0.080193553432225 
671	 7.99715148244264E-02 
672	 7.98956766336684E-02 
673	 7.99297691407867E-02 
674	 8.00271365234674E-02 
675	 7.99920918445467E-02 
676	 7.99139581090513E-02 
677	 8.01854024226808E-02 
678	 8.06430012421046E-02 
679	 8.11362122890814E-02 
680	 8.13270501990937E-02 
681	 8.12655610453942E-02 
682	 8.10588373092569E-02 
683	 8.17226652480085E-02 
684	 8.31015469652209E-02 
685	 0.083259319225473 
686	 8.36472712955837E-02 
687	 8.54830000731268E-02 
688	 0.086781919351671 
689	 8.75979549608533E-02 
690	 8.91902504402955E-02 
691	 9.06561676673435E-02 
692	 9.18926747203999E-02 
693	 9.36215603389371E-02 
694	 9.54611774652547E-02 
695	 9.69109595004426E-02 
696	 0.098198616533216 
697	 0.099615519933895 
698	 0.10199587315314 
699	 0.103782866578763 
700	 0.10442213237446 
701	 0.10596613964632 
702	 0.107812758211915 
703	 0.108834085021027 
704	 0.110081247828306 
705	 0.111605342182375 
706	 0.112686785088981 
707	 0.113509506030666 
708	 0.114232025998994 
709	 0.115190849112449 
710	 0.116195114382348 
711	 0.116772040987094 
712	 0.117558278108916 
713	 0.118574665023427 
714	 0.119039742038166 
715	 0.119241789214169 
716	 0.119518806397149 
717	 0.120318309640166 
718	 0.121479491042979 
719	 0.121922403693412 
720	 0.122314174013763 
721	 0.122847212228268 
722	 0.123306404050221 
723	 0.123666427537522 
724	 0.123862500147944 
725	 0.123959292543889 
726	 0.124136980775993 
727	 0.124932542718037 
728	 0.12549243732772 
729	 0.125460148957718 
730	 0.125686624868221 
731	 0.126015650190291 
732	 0.126102712514901 
733	 0.126173646784841 
734	 0.1263325307887 
735	 0.126735540446487 
736	 0.12715320744513 
737	 0.127427826492215 
738	 0.127756388984155 
739	 0.128075228209255 
740	 0.128204886516921 
741	 0.128470783447631 
742	 0.128838966493411 
743	 0.128731400525026 
744	 0.128522876634916 
745	 0.128554919649184 
746	 0.128802959651117 
747	 0.129127843990044 
748	 0.129200163582303 
749	 0.129338019570172 
750	 0.129581100496306 
751	 0.12953730113547 
752	 0.129358325081503 
753	 0.129248326399121 
754	 0.129517426714997 
755	 0.129937787059291 
756	 0.129670290576476 
757	 0.129414342884133 
758	 0.129478234101625 
759	 0.129661659601001 
760	 0.130089561006349 
761	 0.13066716875745 
762	 0.130605309466534 
763	 0.130191382652434 
764	 0.13034527399807 
765	 0.130907639624699 
766	 0.131628181965624 
767	 0.131904508740587 
768	 0.131880146774757 
769	 0.131710898069391 
770	 0.131915462940573 
771	 0.132389876390664 
772	 0.132237717148086 
773	 0.131991943206525 
774	 0.131999378709131 
775	 0.131895947814236 
776	 0.131917356807293 
777	 0.132604774198858 
778	 0.13275628320893 
779	 0.132279992033867 
780	 0.132513180036525 
781	 0.132689938622558 
782	 0.132258092385143 
783	 0.132304951938073 
784	 0.132775143664409 
785	 0.133198193582321 
786	 0.133407499356003 
787	 0.133365958747464 
788	 0.133325484087618 
789	 0.133341835678185 
790	 0.133467273849901 
791	 0.133872893444915 
792	 0.134288627183114 
793	 0.134007929373224 
794	 0.133663099002225 
795	 0.133546610772322 
796	 0.133868225154768 
797	 0.134062716439085 
798	 0.133616235190262 
799	 0.133785083100171 
800	 0.134331350012397 
801	 0.133845973273272 
802	 0.133834393493148 
803	 0.134629021881182 
804	 0.134608930006683 
805	 0.13436849480153 
806	 0.134643076272704 
807	 0.134498238147388 
808	 0.134146930431059 
809	 0.134741016002303 
810	 0.135306748816181 
811	 0.135399711369248 
812	 0.135153499918313 
813	 0.134879954171884 
814	 0.134972142585612 
815	 0.134917207452876 
816	 0.134701929761836 
817	 0.134708029462141 
818	 0.134657849280767 
819	 0.134571441578458 
820	 0.135208600258532 
821	 0.136114490980015 
822	 0.136690370096061 
823	 0.136837748344371 
824	 0.136683417247981 
825	 0.136730388047282 
826	 0.136663547238963 
827	 0.136413481347586 
828	 0.136370964136426 
829	 0.13634542650809 
830	 0.136077018133565 
831	 0.136047773005206 
832	 0.136249734683604 
833	 0.136286506726788 
834	 0.136690510421699 
835	 0.137425643865723 
836	 0.137020040908032 
837	 0.136233387204107 
838	 0.13608138764688 
839	 0.137153681611896 
840	 0.138613452288048 
841	 0.137733130721246 
842	 0.136848585195623 
843	 0.136894860320895 
844	 0.136854328166718 
845	 0.137083992583464 
846	 0.137974200514822 
847	 0.137378461065956 
848	 0.135882062361608 
849	 0.136486246498916 
850	 0.137197112981728 
851	 0.137211790848753 
852	 0.136755524074118 
853	 0.136677099574865 
854	 0.137773149692807 
855	 0.138327115943143 
856	 0.13819176329624 
857	 0.137879485984034 
858	 0.137894600213012 
859	 0.138263225386267 
860	 0.137985096602706 
861	 0.137507762366008 
862	 0.137334520957683 
863	 0.137639857482326 
864	 0.138130680697053 
865	 0.138060537197122 
866	 0.137725523621055 
867	 0.137407773064816 
868	 0.137925212619352 
869	 0.138287822502291 
870	 0.137789533020844 
871	 0.138068161951495 
872	 0.138673968638717 
873	 0.13824060515892 
874	 0.13790480392055 
875	 0.138169220990935 
876	 0.139725427267402 
877	 0.140398394484004 
878	 0.138933870786403 
879	 0.138540999222135 
880	 0.138919100560612 
881	 0.138811586574651 
882	 0.138891998946524 
883	 0.139072457783503 
884	 0.138462821470051 
885	 0.138169431425938 
886	 0.138713488072899 
887	 0.138905294665835 
888	 0.139133549007335 
889	 0.140059107453077 
890	 0.140823955554243 
891	 0.140955832044785 
892	 0.139517982301651 
893	 0.139044675488569 
894	 0.140341188047252 
895	 0.13991650350267 
896	 0.138757912130871 
897	 0.138422670056741 
898	 0.138749084502411 
899	 0.139502668759652 
900	 0.140058979253496 
901	 0.140998732287119 
902	 0.142122169575832 
903	 0.142056069329414 
904	 0.141091407121169 
905	 0.139677507134509 
906	 0.1393176938457 
907	 0.139735862780472 
908	 0.139991404156556 
909	 0.139986220902864 
910	 0.139819464963197 
911	 0.140133296953635 
912	 0.140613280991316 
913	 0.141008932538243 
914	 0.141181995751736 
915	 0.140775122414171 
916	 0.139464562829516 
917	 0.13875350290682 
918	 0.138833480423933 
919	 0.139398650522748 
920	 0.138956465170264 
921	 0.137607136187748 
922	 0.138940186459777 
923	 0.140277206382395 
924	 0.139399158996337 
925	 0.141263441998979 
926	 0.143727886523115 
927	 0.140285152306545 
928	 0.138017917981412 
929	 0.138902980926643 
930	 0.138722141245682 
931	 0.138993602039073 
932	 0.140461746809549 
933	 0.13931230686847 
934	 0.13678263865396 
935	 0.135727432250718 
936	 0.134966954780595 
937	 0.134289742119833 
938	 0.132780486605125 
939	 0.137368133645555 
940	 0.146394438071582 
941	 0.145038918404207 
942	 0.142126978300911 
943	 0.143872304603758 
944	 0.141545054085733 
945	 0.136558587459366 
946	 0.132876897827418 
947	 0.136302923135437 
948	 0.143963611527149 
949	 0.142024516322209 
950	 0.138402508195011 
951	 0.136772205200973 
952	 0.13708843794735 
953	 0.137313467107801 
954	 0.135949839106691 
955	 0.138543283368731 
956	 0.142195637284302 
957	 0.140372397986622 
958	 0.139745231790596 
959	 0.142068507260832 
960	 0.148054997138049 
961	 0.147777153933076 
962	 0.139091911459516 
963	 0.137840213797805 
964	 0.140865985972198 
965	 0.143390107773724 
966	 0.14090456232962 
967	 0.135696906279679 
968	 0.133487535316603 
969	 0.135881730063148 
970	 0.141098417118294 
971	 0.14166548161311 
972	 0.141417266684279 
973	 0.141989946887078 
974	 0.139295571619998 
975	 0.137041746940189 
976	 0.139395951098323 
977	 0.13965054242106 
978	 0.138725695532237 
979	 0.14136766493498 
980	 0.144134064745355 
981	 0.145479974536701 
982	 0.144192200071432 
983	 0.141272106690294 
984	 0.138779147232371 
985	 0.145550594401723 
986	 0.151742996434402 
987	 0.147061623502396 
988	 0.14337597023344 
989	 0.142193812291338 
990	 0.141827999952632 
991	 0.142143724201027 
992	 0.14303587544964 
993	 0.145187482638974 
994	 0.144427916666589 
995	 0.140207272725213 
996	 0.143117819893707 
997	 0.145086601246642 
998	 0.138585132765416 
999	 0.136140543984243 
1000	 0.139733963833936 
1001	 0.149084253657887 
1002	 0.147147323644992 
1003	 0.135617470474298 
1004	 0.136234737598827 
1005	 0.140702096960946 
1006	 0.145068315976372 
1007	 0.146907408648696 
1008	 0.145980911775402 
1009	 0.142909215547027 
1010	 0.142356206169579 
1011	 0.142082627523114 
1012	 0.13839245897072 
1013	 0.140230305701806 
1014	 0.146215507783296 
1015	 0.148524641596915 
1016	 0.146975803529213 
1017	 0.142163414297093 
1018	 0.136398721029842 
1019	 0.138230081838835 
1020	 0.148369602223312 
1021	 0.140786424723059 
1022	 0.128539069987534 
1023	 0.127541337790854 
1024	 0.13638713389792 
1025	 0.146100546030787 
1026	 0.142591158525408 
1027	 0.142604543180254 
1028	 0.1462109225034 
1029	 0.141609417394164 
1030	 0.133624429508309 
1031	 0.126411113945206 
1032	 0.128200491907091 
1033	 0.133150708937948 
1034	 0.137642884278698 
1035	 0.145216046173946 
1036	 0.151689602821441 
1037	 0.152747577449636 
1038	 0.151741219883275 
1039	 0.147305414258171 
1040	 0.136555230894358 
1041	 0.14101043278078 
1042	 0.154362866880563 
1043	 0.142764866249999 
1044	 0.132135176519856 
1045	 0.130396784831268 
1046	 0.127029825355418 
1047	 0.130017453805115 
1048	 0.140629894935333 
1049	 0.136520612597668 
1050	 0.130919380371517 
1051	 0.137581732355575 
1052	 0.145285352514605 
1053	 0.145758594399778 
1054	 0.132014454160515 
1055	 0.126274493637838 
1056	 0.134987685429126 
1057	 0.162306987454137 
1058	 0.15540025453112 
1059	 0.115454604748239 
1060	 0.11348004346884 
1061	 0.124926007675941 
1062	 0.135614135133007 
1063	 0.135742208437257 
1064	 0.135089177540581 
1065	 0.138240234303217 
1066	 0.122067709908336 
1067	 9.60755331664203E-02 
1068	 7.44197006577244E-02 
1069	 0.109148648017559 
1070	 0.166983784989833 
1071	 0.170027492968909 
1072	 0.159225379859455 
1073	 0.149186890667093 
1074	 0.157445344985883 
1075	 0.164309267716664 
