Wavelength	SHSI00107.asd
325	 2.84832156080249E-02 
326	 3.28704498149531E-02 
327	 4.92210354983417E-02 
328	 5.05494370165363E-02 
329	 4.29376766289623E-02 
330	 3.22286992819325E-02 
331	 3.46246251008783E-02 
332	 4.39780740094272E-02 
333	 5.26395241984614E-02 
334	 5.16835136893389E-02 
335	 4.38694651306923E-02 
336	 3.84751998345178E-02 
337	 3.61392843797156E-02 
338	 3.67584768478878E-02 
339	 3.69609135832417E-02 
340	 3.76229036821526E-02 
341	 0.039466442767691 
342	 4.08569251910632E-02 
343	 4.15779978544436E-02 
344	 4.18461684638191E-02 
345	 4.17199525405149E-02 
346	 4.09310488164091E-02 
347	 3.83787512066611E-02 
348	 3.52730011562298E-02 
349	 0.032791491622934 
350	 3.38410774823411E-02 
351	 3.63645886646669E-02 
352	 3.66397955878648E-02 
353	 0.038388537480002 
354	 0.040916176681518 
355	 3.86951289979984E-02 
356	 3.65398275008967E-02 
357	 3.72395957908841E-02 
358	 3.76709424188378E-02 
359	 3.77065549878684E-02 
360	 3.76925915991001E-02 
361	 3.86907314467476E-02 
362	 3.96359951148045E-02 
363	 3.54644841296638E-02 
364	 3.47511590534959E-02 
365	 4.04690318648971E-02 
366	 3.98714368583647E-02 
367	 3.62064020576145E-02 
368	 3.54296083579943E-02 
369	 3.71725465728557E-02 
370	 3.96315271507702E-02 
371	 3.69052625534743E-02 
372	 3.43983709325483E-02 
373	 3.48911223787322E-02 
374	 3.58280912539781E-02 
375	 3.61493885745574E-02 
376	 3.48507960815642E-02 
377	 3.35704032035076E-02 
378	 3.31053925674727E-02 
379	 3.45187900226951E-02 
380	 3.56461893578561E-02 
381	 3.51577434378263E-02 
382	 3.24781090345242E-02 
383	 3.04983751290462E-02 
384	 3.29281184941759E-02 
385	 0.03300534818419 
386	 3.09874057012205E-02 
387	 3.34852478942842E-02 
388	 3.36035791488223E-02 
389	 2.97406535937192E-02 
390	 3.28469261833495E-02 
391	 3.64741618652417E-02 
392	 0.032547686380545 
393	 3.03466195338991E-02 
394	 3.11513912794033E-02 
395	 3.27175618258603E-02 
396	 0.032855654147326 
397	 3.12400413456869E-02 
398	 3.22090803115899E-02 
399	 0.033502798367289 
400	 0.032556271967968 
401	 3.20843959270876E-02 
402	 3.20630420856406E-02 
403	 3.09575644868545E-02 
404	 3.07609082206144E-02 
405	 3.19519939324675E-02 
406	 3.21342807612985E-02 
407	 3.20324308402141E-02 
408	 3.27801319587888E-02 
409	 3.28212559442135E-02 
410	 0.032145020490426 
411	 3.16732452621608E-02 
412	 0.031429591215787 
413	 3.14488104750142E-02 
414	 3.17083506710715E-02 
415	 3.20219136876678E-02 
416	 3.21669567034068E-02 
417	 3.25566794472629E-02 
418	 0.032958928462854 
419	 3.24100635803662E-02 
420	 3.16543490746721E-02 
421	 3.11325687235616E-02 
422	 3.07017824808379E-02 
423	 3.05533780423977E-02 
424	 3.09554038730238E-02 
425	 0.031634535619232 
426	 3.21716140579876E-02 
427	 3.14168961173345E-02 
428	 3.07986112360321E-02 
429	 3.12180063758214E-02 
430	 3.18868150527161E-02 
431	 3.21502788440221E-02 
432	 3.11097910581325E-02 
433	 0.030561786780022 
434	 3.07894976938104E-02 
435	 3.07496949594823E-02 
436	 3.08284790634705E-02 
437	 3.11828763880042E-02 
438	 3.06462080954234E-02 
439	 3.00730744928193E-02 
440	 3.14125637516536E-02 
441	 3.18309510443219E-02 
442	 0.030982909849209 
443	 3.13997064234368E-02 
444	 3.17411863198953E-02 
445	 0.030969799067795 
446	 3.07866523596256E-02 
447	 3.11839215254416E-02 
448	 3.15298438901057E-02 
449	 3.18022047096732E-02 
450	 3.19141079747284E-02 
451	 3.17487537163851E-02 
452	 3.13699310581499E-02 
453	 3.08726058438407E-02 
454	 3.06353315176634E-02 
455	 3.07162872688885E-02 
456	 3.10464373933385E-02 
457	 3.12892526688231E-02 
458	 3.13268830531561E-02 
459	 3.15182976924806E-02 
460	 3.17319898891563E-02 
461	 3.17857601139638E-02 
462	 3.21199477347182E-02 
463	 3.24884501074322E-02 
464	 0.031838231672553 
465	 3.11201104610602E-02 
466	 3.09136226532581E-02 
467	 3.14425342151442E-02 
468	 3.19784676635184E-02 
469	 0.03143242751517 
470	 3.10936869506593E-02 
471	 3.13474295381306E-02 
472	 3.23762946971959E-02 
473	 3.27239133284264E-02 
474	 3.16217946871467E-02 
475	 3.10133977482391E-02 
476	 3.09201668875372E-02 
477	 3.08177345283192E-02 
478	 3.13865914677676E-02 
479	 3.24154903881101E-02 
480	 0.0324025725239 
481	 3.19938681876397E-02 
482	 0.031790947010771 
483	 3.20799653973697E-02 
484	 3.25777028834323E-02 
485	 3.24898434724957E-02 
486	 3.21529695255096E-02 
487	 3.18732017968471E-02 
488	 3.26278033650645E-02 
489	 3.31994717213055E-02 
490	 3.23799824654008E-02 
491	 3.22085153730653E-02 
492	 3.27555312558026E-02 
493	 3.32036425269134E-02 
494	 3.29745325404946E-02 
495	 3.20565495715316E-02 
496	 0.032314071351676 
497	 3.28662248692349E-02 
498	 3.23543752313085E-02 
499	 3.21148840264757E-02 
500	 3.23144292580314E-02 
501	 3.23382942119759E-02 
502	 3.24509638605573E-02 
503	 0.03275911997821 
504	 3.28870475796181E-02 
505	 3.27726737485998E-02 
506	 3.23284011435801E-02 
507	 3.29444708038196E-02 
508	 3.43788412007189E-02 
509	 3.40665386100218E-02 
510	 3.31688230433272E-02 
511	 3.27436355546039E-02 
512	 3.32518142938604E-02 
513	 3.41262780634066E-02 
514	 3.38246560323822E-02 
515	 3.36057839489773E-02 
516	 3.38754481464375E-02 
517	 3.42831061575762E-02 
518	 3.44984290778424E-02 
519	 3.42270594873587E-02 
520	 3.43267203081643E-02 
521	 3.47450191899513E-02 
522	 3.48731267150995E-02 
523	 3.47582611501517E-02 
524	 0.034542909134761 
525	 3.51630352729093E-02 
526	 3.57151810301339E-02 
527	 3.47858656865937E-02 
528	 3.45558294123063E-02 
529	 3.53028329668154E-02 
530	 3.59452056160525E-02 
531	 3.61072244561545E-02 
532	 0.035665075517024 
533	 3.59731990823595E-02 
534	 3.67172845247431E-02 
535	 3.69035668142939E-02 
536	 3.68116052302978E-02 
537	 3.66241080867246E-02 
538	 3.69053292126111E-02 
539	 3.69955082874348E-02 
540	 3.63025071110011E-02 
541	 3.63256707717006E-02 
542	 3.69013507948138E-02 
543	 3.67169098889453E-02 
544	 3.68258159176803E-02 
545	 3.74488299832759E-02 
546	 3.71064636802396E-02 
547	 3.67051284067844E-02 
548	 3.75801438522438E-02 
549	 3.78762065750014E-02 
550	 3.74552652519765E-02 
551	 3.74937151776289E-02 
552	 3.77039426260908E-02 
553	 3.78812620959033E-02 
554	 0.037815701296424 
555	 3.77051024732571E-02 
556	 3.79900510182142E-02 
557	 3.81282309067794E-02 
558	 0.038083197290445 
559	 3.85738413471711E-02 
560	 3.89442122686742E-02 
561	 0.038604066086361 
562	 3.82981600609501E-02 
563	 0.03817787904676 
564	 3.82063900790753E-02 
565	 0.038394349092756 
566	 3.86684002315655E-02 
567	 3.85918007033534E-02 
568	 3.85471439337628E-02 
569	 3.90655407704899E-02 
570	 3.90130700737692E-02 
571	 0.038435746125711 
572	 3.84812377886215E-02 
573	 3.86712961212832E-02 
574	 3.87326668765383E-02 
575	 3.89112340281887E-02 
576	 0.039129242932221 
577	 3.91949366257196E-02 
578	 3.92934770738898E-02 
579	 3.94571709824452E-02 
580	 0.039640068277947 
581	 3.94858871277337E-02 
582	 3.87752697147175E-02 
583	 3.88348550028236E-02 
584	 3.94439209875065E-02 
585	 3.93850231655988E-02 
586	 3.92806331611825E-02 
587	 3.93803650019187E-02 
588	 3.98358532540059E-02 
589	 3.99911583981269E-02 
590	 3.89951129616616E-02 
591	 3.85794696375998E-02 
592	 3.89020040659478E-02 
593	 0.038817073388213 
594	 3.92273414557105E-02 
595	 4.04132295471914E-02 
596	 4.02688735021526E-02 
597	 3.94245120243087E-02 
598	 3.94423814877514E-02 
599	 3.98165883479804E-02 
600	 4.02976954511767E-02 
601	 0.040337187884828 
602	 4.03426929290602E-02 
603	 4.06774065446349E-02 
604	 4.09782197377737E-02 
605	 0.041207949339665 
606	 4.15138853059296E-02 
607	 4.14207566929109E-02 
608	 4.08793707704743E-02 
609	 4.08103284403467E-02 
610	 0.041091379284663 
611	 4.14463806078352E-02 
612	 0.041207154722704 
613	 4.07016327267488E-02 
614	 4.16961320075922E-02 
615	 4.24409149709082E-02 
616	 4.19702082278543E-02 
617	 4.18905285944707E-02 
618	 4.19588095405278E-02 
619	 4.13182600994696E-02 
620	 4.12277131753535E-02 
621	 4.18639383098423E-02 
622	 4.23276628730038E-02 
623	 4.23210151593762E-02 
624	 4.16703908261132E-02 
625	 4.13834091018304E-02 
626	 4.16722084002441E-02 
627	 4.26065886684148E-02 
628	 4.31371383905277E-02 
629	 4.28570291718059E-02 
630	 4.23991657740361E-02 
631	 4.22220028446157E-02 
632	 0.042791313555301 
633	 4.31617441588883E-02 
634	 4.30520679009948E-02 
635	 4.23344645303764E-02 
636	 4.18996288251676E-02 
637	 4.22687827460662E-02 
638	 4.28753268583263E-02 
639	 4.33756773188813E-02 
640	 0.043314057068387 
641	 4.33415222630195E-02 
642	 4.35360144985434E-02 
643	 4.32588437549325E-02 
644	 4.29997146906255E-02 
645	 0.043184014575451 
646	 0.043293974092342 
647	 4.33242600961338E-02 
648	 4.35741423359626E-02 
649	 4.35618900429775E-02 
650	 4.32216975904199E-02 
651	 4.33821955753403E-02 
652	 4.35592400999492E-02 
653	 4.31123757774201E-02 
654	 4.36160931502864E-02 
655	 4.46775463952479E-02 
656	 4.34269027279809E-02 
657	 4.22571752864927E-02 
658	 4.26423759892659E-02 
659	 4.37914202351436E-02 
660	 0.044661244291428 
661	 4.37440371181837E-02 
662	 4.31104682593818E-02 
663	 4.32986768193734E-02 
664	 4.38267008816858E-02 
665	 4.39679053626263E-02 
666	 4.32273374501596E-02 
667	 4.31996323515113E-02 
668	 4.37197327826433E-02 
669	 4.37294637686009E-02 
670	 4.33320073978423E-02 
671	 4.27419660991212E-02 
672	 4.30510126573434E-02 
673	 4.37319175302452E-02 
674	 4.40765876808143E-02 
675	 4.42168513478541E-02 
676	 4.41481811412216E-02 
677	 4.36649138794647E-02 
678	 4.39294185859765E-02 
679	 4.53429331623778E-02 
680	 4.58329880543331E-02 
681	 4.57371992743245E-02 
682	 4.60013757785997E-02 
683	 4.63164838649288E-02 
684	 4.66979778951391E-02 
685	 4.74907176246387E-02 
686	 4.81746319085851E-02 
687	 4.83350738005364E-02 
688	 4.92888413473012E-02 
689	 5.04616789896142E-02 
690	 0.050176343280169 
691	 5.06200999703566E-02 
692	 5.21105599168509E-02 
693	 5.24307720535703E-02 
694	 5.28220458430034E-02 
695	 0.054584706445025 
696	 5.54348585818965E-02 
697	 5.56898466548372E-02 
698	 5.76124771759228E-02 
699	 5.89111700276782E-02 
700	 5.87827494195414E-02 
701	 6.00213332923233E-02 
702	 6.14505151584302E-02 
703	 0.061070184937082 
704	 6.17014307060975E-02 
705	 6.35186688641873E-02 
706	 6.47574936495172E-02 
707	 6.52076174588006E-02 
708	 6.49198707481637E-02 
709	 6.57225393169411E-02 
710	 6.70537560879609E-02 
711	 6.73955387497588E-02 
712	 6.74611491703639E-02 
713	 6.76403490721432E-02 
714	 6.86962194689219E-02 
715	 6.98720938403944E-02 
716	 7.04751010151761E-02 
717	 7.06804856197086E-02 
718	 7.09001264582684E-02 
719	 7.23258131914132E-02 
720	 7.35094674903925E-02 
721	 7.38504110075162E-02 
722	 7.35966096957654E-02 
723	 0.073534984245783 
724	 7.45213556012317E-02 
725	 7.51551004879731E-02 
726	 7.54661773564921E-02 
727	 7.68643541804512E-02 
728	 7.80338537626908E-02 
729	 7.83701366609774E-02 
730	 7.87000126142337E-02 
731	 7.89472660283221E-02 
732	 7.88786790987911E-02 
733	 7.92689037963328E-02 
734	 8.00263109877817E-02 
735	 8.01819742119256E-02 
736	 8.04576842623255E-02 
737	 8.12623667460311E-02 
738	 8.18252922830276E-02 
739	 8.21940831485767E-02 
740	 8.26541290635882E-02 
741	 0.083196612719979 
742	 8.37460165140216E-02 
743	 8.39264762454318E-02 
744	 8.42892799130314E-02 
745	 8.52447004131561E-02 
746	 8.57440269269147E-02 
747	 8.59626013517918E-02 
748	 8.69017165636699E-02 
749	 8.70760450529865E-02 
750	 8.64162188759351E-02 
751	 8.75841728907349E-02 
752	 8.90734929812474E-02 
753	 0.089136722740344 
754	 0.089092176631403 
755	 0.089232478834381 
756	 8.96225041820743E-02 
757	 8.98709833155338E-02 
758	 8.98976540000259E-02 
759	 9.06115696604904E-02 
760	 9.23621338019492E-02 
761	 0.093718051166125 
762	 9.49495089746914E-02 
763	 9.55190465480872E-02 
764	 9.39763298301705E-02 
765	 9.35771031735727E-02 
766	 9.49155659879849E-02 
767	 9.53887874684094E-02 
768	 0.095503840986966 
769	 9.60004813940358E-02 
770	 9.61585048717639E-02 
771	 9.62252031375837E-02 
772	 0.097738678802751 
773	 9.89861576596599E-02 
774	 9.89181232161573E-02 
775	 9.90792811934718E-02 
776	 9.96209848960564E-02 
777	 0.100433088194916 
778	 0.100807697969568 
779	 0.100740133267097 
780	 0.101232055031062 
781	 0.101884378444227 
782	 0.102393202161456 
783	 0.103328291964054 
784	 0.10427398701883 
785	 0.104132286219193 
786	 0.104363780827203 
787	 0.105318183780939 
788	 0.106143500813645 
789	 0.106413251962353 
790	 0.10588199954214 
791	 0.106332760529888 
792	 0.10726799168457 
793	 0.106410936251947 
794	 0.106821185182216 
795	 0.109192838623373 
796	 0.111259759046686 
797	 0.111967550232622 
798	 0.110607491832185 
799	 0.110504311126091 
800	 0.111555073475157 
801	 0.111370118096604 
802	 0.111791270621636 
803	 0.113234458736181 
804	 0.114084414600332 
805	 0.114451903241494 
806	 0.114610967373178 
807	 0.114775114607992 
808	 0.115352747760862 
809	 0.11749236155939 
810	 0.118662983345078 
811	 0.117910839153664 
812	 0.117270901616764 
813	 0.117396569635303 
814	 0.118897699239748 
815	 0.120596584047354 
816	 0.12175338939586 
817	 0.12139346283313 
818	 0.121099229147921 
819	 0.121813858978287 
820	 0.124297693649692 
821	 0.126747821534409 
822	 0.126982090919107 
823	 0.126235403777208 
824	 0.125285763272335 
825	 0.125355134379194 
826	 0.125299408587541 
827	 0.12513330192837 
828	 0.128137089213639 
829	 0.130947800414152 
830	 0.129325851294803 
831	 0.130363543779588 
832	 0.133616030094232 
833	 0.133385964032254 
834	 0.132418691225217 
835	 0.132000008979698 
836	 0.132368465240549 
837	 0.133241988708388 
838	 0.134250766302416 
839	 0.135828584820629 
840	 0.137498965492238 
841	 0.13791135616895 
842	 0.137469136281961 
843	 0.136611232168672 
844	 0.136552294744512 
845	 0.137470154062932 
846	 0.139339757173852 
847	 0.14040270563074 
848	 0.140504379015268 
849	 0.140295271042669 
850	 0.14099615151642 
851	 0.142769689892614 
852	 0.14296223564855 
853	 0.14260148501991 
854	 0.143045863725555 
855	 0.144332755564575 
856	 0.145911997159622 
857	 0.14658587920664 
858	 0.146147466711039 
859	 0.145139146545196 
860	 0.14672468704148 
861	 0.148226452918182 
862	 0.14716543212246 
863	 0.14765076362372 
864	 0.149392723677486 
865	 0.149910605012633 
866	 0.150207963498973 
867	 0.150617782195652 
868	 0.151206708873856 
869	 0.152064133563116 
870	 0.153276092748074 
871	 0.155317137098189 
872	 0.157048255182495 
873	 0.156057280697494 
874	 0.157009488349809 
875	 0.159775949288175 
876	 0.157405256766085 
877	 0.155977108197719 
878	 0.159394676122809 
879	 0.161356295707136 
880	 0.161773797610527 
881	 0.161927733918347 
882	 0.163373599335899 
883	 0.165817072430667 
884	 0.166606118668183 
885	 0.166459075796517 
886	 0.16585904631199 
887	 0.164925742710296 
888	 0.164973704476193 
889	 0.167571637068802 
890	 0.168896162832601 
891	 0.168966922695991 
892	 0.171121164762296 
893	 0.172835176089555 
894	 0.172869488463024 
895	 0.171589149072956 
896	 0.170105540770886 
897	 0.169888346448505 
898	 0.172503934335771 
899	 0.17678515072325 
900	 0.179324920191318 
901	 0.180860980852607 
902	 0.181103862469532 
903	 0.178150323257805 
904	 0.175323924261263 
905	 0.175300985118942 
906	 0.176426194376142 
907	 0.178444606777783 
908	 0.181395473746936 
909	 0.182443728080776 
910	 0.181378677026567 
911	 0.181122691623899 
912	 0.181169533288133 
913	 0.181523454010979 
914	 0.183775253390636 
915	 0.186522725735797 
916	 0.187920052166234 
917	 0.185355729891932 
918	 0.18222722810703 
919	 0.189963135825228 
920	 0.191439088627506 
921	 0.184081989315106 
922	 0.187114258079291 
923	 0.192736377159243 
924	 0.193147465523077 
925	 0.190346348291108 
926	 0.187032365447033 
927	 0.188570386057839 
928	 0.192593568935211 
929	 0.196858663816121 
930	 0.194582994626186 
931	 0.192145110138233 
932	 0.194933677755122 
933	 0.197944693079532 
934	 0.201121786579048 
935	 0.204819742745616 
936	 0.192427542081556 
937	 0.174841319455535 
938	 0.190943110141798 
939	 0.195368905330407 
940	 0.1827858113694 
941	 0.19956949377925 
942	 0.207138693577179 
943	 0.182315077372305 
944	 0.181332869572029 
945	 0.193136414650908 
946	 0.188354982650108 
947	 0.189142466922137 
948	 0.198088821043349 
949	 0.206860690846942 
950	 0.207403653555679 
951	 0.197991474264875 
952	 0.185656174656499 
953	 0.183288063936167 
954	 0.200235171063167 
955	 0.209215681586631 
956	 0.20979879710618 
957	 0.209420545782235 
958	 0.203910304676706 
959	 0.19612482001643 
960	 0.195792926772947 
961	 0.198295143079462 
962	 0.200855816827551 
963	 0.20108759438892 
964	 0.202557679254629 
965	 0.208334096982636 
966	 0.211575495165587 
967	 0.209111602978901 
968	 0.19589729440539 
969	 0.197664029417771 
970	 0.212348786022367 
971	 0.20458075241409 
972	 0.197102784492968 
973	 0.20132414501821 
974	 0.202387112855362 
975	 0.201572754698369 
976	 0.201839486337663 
977	 0.204031740479436 
978	 0.206905523495772 
979	 0.207369137649492 
980	 0.207506377332159 
981	 0.208772520216913 
982	 0.213528338018836 
983	 0.220453511515062 
984	 0.226603657691831 
985	 0.217975608754316 
986	 0.206193733672756 
987	 0.204878051020347 
988	 0.215055482107942 
989	 0.225454281874144 
990	 0.213770332881977 
991	 0.207067622984973 
992	 0.210686800003729 
993	 0.213010316104889 
994	 0.21129205699347 
995	 0.207013594884386 
996	 0.219999894561786 
997	 0.230258397426038 
998	 0.219549007197892 
999	 0.216521057589033 
1000	 0.219026239382026 
1001	 0.214718525182829 
1002	 0.215370188418122 
1003	 0.221437319666382 
1004	 0.225731394327142 
1005	 0.221050227487183 
1006	 0.210585261826068 
1007	 0.225107859924619 
1008	 0.239574698711571 
1009	 0.234310894534474 
1010	 0.234466026353106 
1011	 0.235478409103998 
1012	 0.227247984832791 
1013	 0.220024839749957 
1014	 0.217140322486958 
1015	 0.220842533777064 
1016	 0.227057118534234 
1017	 0.231509495354455 
1018	 0.225470805307318 
1019	 0.220183351433727 
1020	 0.222215722721505 
1021	 0.227642715832001 
1022	 0.231966958531134 
1023	 0.232130673837139 
1024	 0.236415671225657 
1025	 0.239069320732191 
1026	 0.228511292183417 
1027	 0.233795285415088 
1028	 0.249989853965281 
1029	 0.239862941160632 
1030	 0.235144723871903 
1031	 0.241421659457007 
1032	 0.230213851610329 
1033	 0.229667182904843 
1034	 0.250080522623673 
1035	 0.236472535523109 
1036	 0.221700774752254 
1037	 0.241722258587701 
1038	 0.237894066737016 
1039	 0.221436463358442 
1040	 0.228047303303614 
1041	 0.2386427292598 
1042	 0.245488604461266 
1043	 0.251072285783781 
1044	 0.221411819295286 
1045	 0.165948245062012 
1046	 0.181313014291955 
1047	 0.208809123771702 
1048	 0.212030941193409 
1049	 0.200830120013968 
1050	 0.193971071800542 
1051	 0.205511421255867 
1052	 0.198612339816844 
1053	 0.204926752713874 
1054	 0.276096392312868 
1055	 0.261995629915953 
1056	 0.192015746356273 
1057	 0.216225871205928 
1058	 0.236526716131719 
1059	 0.230245686726965 
1060	 0.234459049318724 
1061	 0.222315341197933 
1062	 0.195635224433089 
1063	 0.24095711789219 
1064	 0.268363859360353 
1065	 0.227545750625439 
1066	 0.198260295734218 
1067	 0.19823760673686 
1068	 0.223760868410335 
1069	 0.196005338858264 
1070	 0.14817129660839 
1071	 0.174370513714813 
1072	 0.170650192616646 
1073	 0.143906885062885 
1074	 0.185783312254759 
1075	 0.209070996363896 
