Wavelength	SHSI00022.asd
325	 5.42832685976257E-02 
326	 5.62059948693915E-02 
327	 5.21810428453397E-02 
328	 5.80043580409092E-02 
329	 6.07287829331841E-02 
330	 5.64345345067859E-02 
331	 4.95776819751246E-02 
332	 4.53446455164944E-02 
333	 4.77759296305368E-02 
334	 5.09148431550002E-02 
335	 5.40609470214119E-02 
336	 5.96247293912632E-02 
337	 5.83412498391947E-02 
338	 5.06711867275315E-02 
339	 5.29788969756765E-02 
340	 5.64500698341886E-02 
341	 5.35792616101912E-02 
342	 5.07896500138714E-02 
343	 4.95787307714672E-02 
344	 5.08607921231772E-02 
345	 0.051643414061374 
346	 5.09298220464057E-02 
347	 4.82553719617155E-02 
348	 0.047615380110778 
349	 5.08203826529884E-02 
350	 4.94819365441797E-02 
351	 0.046785940427011 
352	 4.95829514457893E-02 
353	 5.02788325797973E-02 
354	 0.04860887595821 
355	 5.09714541678922E-02 
356	 5.23153705264511E-02 
357	 5.01217250143229E-02 
358	 4.99695671367656E-02 
359	 5.09810637789698E-02 
360	 5.08221021610675E-02 
361	 5.05136208774639E-02 
362	 5.02490969861737E-02 
363	 5.00566412947873E-02 
364	 4.92186335530444E-02 
365	 4.77840246640955E-02 
366	 4.88356184060271E-02 
367	 0.050074768461222 
368	 4.81048171431229E-02 
369	 4.86178987203347E-02 
370	 5.11868344537146E-02 
371	 4.99235174306243E-02 
372	 4.83805856308368E-02 
373	 4.84954847473032E-02 
374	 4.96139488387973E-02 
375	 5.05938295200714E-02 
376	 5.00261457234626E-02 
377	 0.049980332632855 
378	 5.03239385057932E-02 
379	 0.048821947017109 
380	 4.77133989282163E-02 
381	 0.048063778605047 
382	 4.88118217653909E-02 
383	 4.90268940595247E-02 
384	 4.76908649488957E-02 
385	 4.75335630397667E-02 
386	 4.84285930770037E-02 
387	 0.047889545346356 
388	 4.66487902778996E-02 
389	 4.52979915453575E-02 
390	 0.045081145757202 
391	 4.52280511754202E-02 
392	 4.47398313996086E-02 
393	 4.63582186401403E-02 
394	 4.85787665513902E-02 
395	 4.54837559018773E-02 
396	 4.37375034613929E-02 
397	 4.54321649172309E-02 
398	 0.04490891132239 
399	 4.36425793592781E-02 
400	 0.043581990052638 
401	 4.41079716607455E-02 
402	 4.46724100071857E-02 
403	 4.42202278502248E-02 
404	 4.38762250925915E-02 
405	 4.39916805292555E-02 
406	 4.36031148458665E-02 
407	 4.33566812105695E-02 
408	 4.41147850465712E-02 
409	 4.32071389039712E-02 
410	 4.12055886884957E-02 
411	 4.13636516897513E-02 
412	 4.22703068456945E-02 
413	 4.30606479270353E-02 
414	 4.29710961517817E-02 
415	 0.042340513667641 
416	 4.17142411703092E-02 
417	 4.18045071511528E-02 
418	 4.22513339495861E-02 
419	 4.12982508025502E-02 
420	 4.04565023982745E-02 
421	 4.05364480206181E-02 
422	 4.09966977834101E-02 
423	 4.13902092982332E-02 
424	 4.11788379125555E-02 
425	 0.041165285912452 
426	 4.14877086357284E-02 
427	 0.041926390057831 
428	 4.19400460039343E-02 
429	 4.12910574173262E-02 
430	 4.11752202989131E-02 
431	 4.12133010374023E-02 
432	 4.04835948989757E-02 
433	 4.00946563560846E-02 
434	 4.02212987839789E-02 
435	 4.03695084406188E-02 
436	 4.02840924673256E-02 
437	 3.98653229972631E-02 
438	 3.97360023516489E-02 
439	 3.99986460452946E-02 
440	 4.07411176863059E-02 
441	 4.08166669916683E-02 
442	 4.00762380353118E-02 
443	 3.94681022912041E-02 
444	 3.94948728290652E-02 
445	 4.04147019497302E-02 
446	 4.07505812302447E-02 
447	 4.06749360611667E-02 
448	 4.12732905673307E-02 
449	 4.11861369025942E-02 
450	 4.02980349692577E-02 
451	 4.02506395432268E-02 
452	 4.09587218299577E-02 
453	 4.21424181260708E-02 
454	 4.20078311247654E-02 
455	 4.11393832502941E-02 
456	 4.23193070010305E-02 
457	 4.29075883520828E-02 
458	 0.042131509598825 
459	 4.22787110804458E-02 
460	 4.26487184454323E-02 
461	 4.22153251727677E-02 
462	 4.20028143601037E-02 
463	 0.042160766557721 
464	 4.23375206236382E-02 
465	 4.29050357774684E-02 
466	 4.38229670373831E-02 
467	 4.35367373356199E-02 
468	 4.27799223758607E-02 
469	 4.28760603622079E-02 
470	 4.30626091825499E-02 
471	 4.32531551375025E-02 
472	 4.39562734938488E-02 
473	 4.39344360840636E-02 
474	 4.26803778730561E-02 
475	 4.28776806286792E-02 
476	 4.40546835862431E-02 
477	 4.48037807260017E-02 
478	 4.45680753194878E-02 
479	 4.35274910111007E-02 
480	 4.32558245157054E-02 
481	 4.35984577880843E-02 
482	 4.43031777710582E-02 
483	 4.43433855881607E-02 
484	 4.40305904000201E-02 
485	 4.46430018265544E-02 
486	 4.48471937549733E-02 
487	 0.044323033009923 
488	 4.41004551538198E-02 
489	 4.40999233668366E-02 
490	 4.41592985638061E-02 
491	 4.42665520616381E-02 
492	 4.43835759011742E-02 
493	 4.43664786707404E-02 
494	 4.47830066655734E-02 
495	 4.56989796628782E-02 
496	 4.59330850593782E-02 
497	 4.57549058422749E-02 
498	 4.56616441122342E-02 
499	 0.045994131604086 
500	 4.66325693846053E-02 
501	 4.67599292391341E-02 
502	 4.70469494764568E-02 
503	 4.78316692611015E-02 
504	 4.84813909250822E-02 
505	 4.87708357657192E-02 
506	 4.84427988671202E-02 
507	 4.86568100674423E-02 
508	 4.95064322433292E-02 
509	 4.97902690688027E-02 
510	 5.02457245792236E-02 
511	 5.13579043904951E-02 
512	 5.13882787188209E-02 
513	 5.09280749779328E-02 
514	 5.20726241232255E-02 
515	 5.29787284534111E-02 
516	 5.30916297639425E-02 
517	 5.31943664616032E-02 
518	 5.35452599729379E-02 
519	 5.43286828000151E-02 
520	 5.49570896854434E-02 
521	 5.53602829691573E-02 
522	 5.56551065429683E-02 
523	 5.63241535153105E-02 
524	 5.75036615309374E-02 
525	 0.058413511306794 
526	 5.90970424238613E-02 
527	 5.97464391311164E-02 
528	 6.00807667984548E-02 
529	 6.02554794820861E-02 
530	 6.09875931374127E-02 
531	 6.18399487679366E-02 
532	 6.25302063081671E-02 
533	 0.063315272353691 
534	 6.40284720924243E-02 
535	 6.42528049361254E-02 
536	 6.47371190406005E-02 
537	 6.56467442296763E-02 
538	 6.65185976352592E-02 
539	 6.72425294703687E-02 
540	 6.77408115479463E-02 
541	 6.82121571661127E-02 
542	 6.87850371178987E-02 
543	 6.97258693393009E-02 
544	 7.03897577219895E-02 
545	 7.05980410961483E-02 
546	 7.11106312937672E-02 
547	 7.17501082183431E-02 
548	 7.21853873947148E-02 
549	 0.072801695338503 
550	 7.36079520025276E-02 
551	 7.43865709495159E-02 
552	 0.074839387994234 
553	 7.48570505304583E-02 
554	 7.52100375338389E-02 
555	 7.58834783261567E-02 
556	 7.66513228309676E-02 
557	 7.72418118290432E-02 
558	 7.76354276174077E-02 
559	 7.83692643024291E-02 
560	 7.88003522525232E-02 
561	 7.84144750073666E-02 
562	 7.87687700478865E-02 
563	 7.96378942330284E-02 
564	 7.96360801739477E-02 
565	 7.96604603063592E-02 
566	 7.99666691564506E-02 
567	 7.98717063459366E-02 
568	 7.96283212906767E-02 
569	 7.96293456576688E-02 
570	 7.98625790129515E-02 
571	 8.01745111314919E-02 
572	 7.99889173119015E-02 
573	 8.00746162540497E-02 
574	 8.07894030262004E-02 
575	 8.09751079207964E-02 
576	 0.080695636004298 
577	 8.03394166423249E-02 
578	 0.08035553505195 
579	 8.07086183978593E-02 
580	 8.03828674810158E-02 
581	 8.02400947138942E-02 
582	 8.09810474691453E-02 
583	 0.081149737697609 
584	 8.07663589938205E-02 
585	 8.05351924046738E-02 
586	 8.05610653810866E-02 
587	 8.08783186334195E-02 
588	 8.11701913496999E-02 
589	 8.12611167534512E-02 
590	 8.09761820274584E-02 
591	 8.09976055180252E-02 
592	 8.13470792197604E-02 
593	 8.15289865404541E-02 
594	 8.15299870687984E-02 
595	 8.13743047920113E-02 
596	 8.14199611993028E-02 
597	 8.15125427386363E-02 
598	 8.12794019742617E-02 
599	 8.11717422293921E-02 
600	 8.13054533397136E-02 
601	 8.15594738613329E-02 
602	 8.16423202438269E-02 
603	 8.13452151681412E-02 
604	 8.14181911066921E-02 
605	 8.16073924671887E-02 
606	 8.08334552712698E-02 
607	 0.080411628453912 
608	 8.07450818515368E-02 
609	 8.07779947416863E-02 
610	 8.05623886920041E-02 
611	 8.02887964415455E-02 
612	 0.080023994060783 
613	 7.98071814562379E-02 
614	 7.96956735478477E-02 
615	 7.94178510050736E-02 
616	 7.88497498898769E-02 
617	 7.84449615588124E-02 
618	 7.81686591999986E-02 
619	 0.077819066664353 
620	 7.76868180805097E-02 
621	 0.077742325240543 
622	 7.75200502531888E-02 
623	 7.71622201439857E-02 
624	 7.68460139668411E-02 
625	 0.076963637138558 
626	 7.73444234776837E-02 
627	 7.73428859548621E-02 
628	 7.74038796927951E-02 
629	 7.76244015771858E-02 
630	 7.75723213465757E-02 
631	 7.73518400335496E-02 
632	 7.71417891158677E-02 
633	 7.72081028824092E-02 
634	 7.75435312902241E-02 
635	 7.79619266138495E-02 
636	 7.79891307640209E-02 
637	 7.74540784424783E-02 
638	 0.077434012077228 
639	 7.78587324219828E-02 
640	 7.83766820839314E-02 
641	 7.83734113838385E-02 
642	 7.78618816158171E-02 
643	 7.79208591928553E-02 
644	 7.80925575874836E-02 
645	 7.79364103951972E-02 
646	 7.75036097842171E-02 
647	 7.70466960974036E-02 
648	 7.72283918555143E-02 
649	 7.73256789645743E-02 
650	 7.70722502783082E-02 
651	 7.67809071645422E-02 
652	 7.65312943150028E-02 
653	 7.63807205119754E-02 
654	 7.61113930235352E-02 
655	 7.55740970645521E-02 
656	 7.46541255200525E-02 
657	 7.32298497172865E-02 
658	 7.14744901457123E-02 
659	 7.04358040127656E-02 
660	 6.97166877702981E-02 
661	 6.85133954838853E-02 
662	 6.74650036803951E-02 
663	 6.65701883199088E-02 
664	 6.51010107100692E-02 
665	 6.35550268403899E-02 
666	 6.23975560046965E-02 
667	 6.18882139502988E-02 
668	 6.16235620889653E-02 
669	 6.05059320868533E-02 
670	 5.94357094786918E-02 
671	 5.87754639752016E-02 
672	 5.85302152306746E-02 
673	 5.84526505575319E-02 
674	 5.82531357287688E-02 
675	 5.79108319945506E-02 
676	 5.76252307118392E-02 
677	 5.80069640714059E-02 
678	 0.05852434037012 
679	 5.88873847902429E-02 
680	 5.92223949911838E-02 
681	 5.97434181692658E-02 
682	 6.07637955004005E-02 
683	 6.18897712640853E-02 
684	 6.30406707908629E-02 
685	 6.44477109805478E-02 
686	 6.62232826815049E-02 
687	 6.84644613112229E-02 
688	 7.12212323758313E-02 
689	 7.41472852044748E-02 
690	 7.70648386713036E-02 
691	 8.03026244379574E-02 
692	 8.38450779295319E-02 
693	 8.66430255674897E-02 
694	 8.97345578204467E-02 
695	 9.39869466230718E-02 
696	 9.73435703970297E-02 
697	 0.099849606793474 
698	 0.102817749011137 
699	 0.10582756694833 
700	 0.108728461641381 
701	 0.112025009127903 
702	 0.115148487913143 
703	 0.117308978501142 
704	 0.119486619576221 
705	 0.121811140555602 
706	 0.123617154753923 
707	 0.125614816565755 
708	 0.128138351916452 
709	 0.129898284466731 
710	 0.131338968709944 
711	 0.133639208413819 
712	 0.135603665121622 
713	 0.136912142390398 
714	 0.138008142543015 
715	 0.138750539449884 
716	 0.13907324640297 
717	 0.13987783032431 
718	 0.141377659957018 
719	 0.143169737791884 
720	 0.144592295368245 
721	 0.145413541573363 
722	 0.146241668149951 
723	 0.14736207866924 
724	 0.148977600644405 
725	 0.149736172789265 
726	 0.149743948344183 
727	 0.150614897739047 
728	 0.151545077024617 
729	 0.152217246460098 
730	 0.153243332279076 
731	 0.154399369126351 
732	 0.155310625705222 
733	 0.155718730342181 
734	 0.1558502185781 
735	 0.156567546660079 
736	 0.157370776624263 
737	 0.157924778062016 
738	 0.158564590902865 
739	 0.159344892603268 
740	 0.160308690703959 
741	 0.160948341471912 
742	 0.161222934188439 
743	 0.161724396870296 
744	 0.162220186759984 
745	 0.162542789069007 
746	 0.16331907153538 
747	 0.164267656875049 
748	 0.164464571085845 
749	 0.16466573531025 
750	 0.165119215683396 
751	 0.165633854962601 
752	 0.165983844757849 
753	 0.16595854637414 
754	 0.165692031966212 
755	 0.165528684945572 
756	 0.166361668788591 
757	 0.166998626589761 
758	 0.16692445269991 
759	 0.166598963926158 
760	 0.16617903649761 
761	 0.166521476265221 
762	 0.166247903496616 
763	 0.16580536885571 
764	 0.167007307431836 
765	 0.16842149107491 
766	 0.1694249147094 
767	 0.17011510291765 
768	 0.170707669012357 
769	 0.171412765070673 
770	 0.171871622052685 
771	 0.172048315632892 
772	 0.172125792542305 
773	 0.172318854623121 
774	 0.172772125353848 
775	 0.173434610922895 
776	 0.173890572844519 
777	 0.173387424970074 
778	 0.173519668248798 
779	 0.174526950322225 
780	 0.175218966561167 
781	 0.175447121483765 
782	 0.175218340242771 
783	 0.175683469500572 
784	 0.176498151787387 
785	 0.176533022719814 
786	 0.176330932659507 
787	 0.176094862650862 
788	 0.175904210373112 
789	 0.175905440519207 
790	 0.176210696992433 
791	 0.176557937407513 
792	 0.176858069973956 
793	 0.17706364560578 
794	 0.177158160514904 
795	 0.177198630451723 
796	 0.177446967430332 
797	 0.177866284015802 
798	 0.178379487412114 
799	 0.178719654808596 
800	 0.178756387027764 
801	 0.178186853615706 
802	 0.178181466098057 
803	 0.179088053628534 
804	 0.179921265103398 
805	 0.180288498449758 
806	 0.17991764621181 
807	 0.179910772530078 
808	 0.180330529777186 
809	 0.180609288647156 
810	 0.180940060151397 
811	 0.181274774434122 
812	 0.180986030904817 
813	 0.180326952342935 
814	 0.179750208312475 
815	 0.180290896338393 
816	 0.181754731526694 
817	 0.182518089408317 
818	 0.183196153262367 
819	 0.183895345690804 
820	 0.18387038638617 
821	 0.183743803750982 
822	 0.184288845776661 
823	 0.185370872504318 
824	 0.186510089080878 
825	 0.186589775684241 
826	 0.18676672131916 
827	 0.18727476349501 
828	 0.186133912384845 
829	 0.185129578228382 
830	 0.186556482099956 
831	 0.187678628916273 
832	 0.188009279858589 
833	 0.188065683728967 
834	 0.188133097609582 
835	 0.188353500226318 
836	 0.188576740419224 
837	 0.188661253234745 
838	 0.18849546738714 
839	 0.189077925663392 
840	 0.1902131902969 
841	 0.190989229215627 
842	 0.190307674618078 
843	 0.188264084419929 
844	 0.188432800125535 
845	 0.189437536357877 
846	 0.189411932974281 
847	 0.18919560634223 
848	 0.18901120199011 
849	 0.189029310544633 
850	 0.189288611336803 
851	 0.189767480884142 
852	 0.190247665549535 
853	 0.190573328148909 
854	 0.190537397869026 
855	 0.188858832078329 
856	 0.186540152386702 
857	 0.186441775253491 
858	 0.18702959179478 
859	 0.187666489607319 
860	 0.188020274666262 
861	 0.187735023499715 
862	 0.186673728045335 
863	 0.187345835733487 
864	 0.188814246033841 
865	 0.187611012475146 
866	 0.187239515263445 
867	 0.188501102719107 
868	 0.189273369432986 
869	 0.189533645133075 
870	 0.189498003304948 
871	 0.191001094457622 
872	 0.192832521663678 
873	 0.192071426124915 
874	 0.191803744120496 
875	 0.192699074870981 
876	 0.193317769709258 
877	 0.194053207492906 
878	 0.195143316851707 
879	 0.196104009279523 
880	 0.197063692441387 
881	 0.198351861922472 
882	 0.199490838802261 
883	 0.200457471394107 
884	 0.201751066568129 
885	 0.202767929208174 
886	 0.20320423348657 
887	 0.203699757128145 
888	 0.203840619807961 
889	 0.203026637834443 
890	 0.203401080763521 
891	 0.204620184679671 
892	 0.203587084369511 
893	 0.2040743780308 
894	 0.207124988248738 
895	 0.207227957867025 
896	 0.205584238258189 
897	 0.204465922227501 
898	 0.20729510346427 
899	 0.212004795186438 
900	 0.211863150919251 
901	 0.210243498202618 
902	 0.208885321754031 
903	 0.210183944125932 
904	 0.211742766573393 
905	 0.211845301332674 
906	 0.213257437947829 
907	 0.215017116542534 
908	 0.214826388671226 
909	 0.213968532035357 
910	 0.213315914064709 
911	 0.214809185755362 
912	 0.215047365497555 
913	 0.212828576213089 
914	 0.214271086277609 
915	 0.216667385778429 
916	 0.216164702972726 
917	 0.218165333778239 
918	 0.221093860615623 
919	 0.217749729839585 
920	 0.215458753494589 
921	 0.216355800950253 
922	 0.216819971309956 
923	 0.216826894428218 
924	 0.21653417706671 
925	 0.216499413330988 
926	 0.21685034676355 
927	 0.217628110485794 
928	 0.218067876887933 
929	 0.217811651915576 
930	 0.216606894373812 
931	 0.217371046861592 
932	 0.221335984416999 
933	 0.217621141797735 
934	 0.210290528003119 
935	 0.208209101045547 
936	 0.204757948097474 
937	 0.202795290489943 
938	 0.213679286382 
939	 0.221086570184117 
940	 0.220583440927241 
941	 0.218222150479403 
942	 0.215349106426489 
943	 0.212874096150749 
944	 0.210450081501585 
945	 0.207990573413944 
946	 0.205302378069431 
947	 0.206606729158701 
948	 0.211583148900935 
949	 0.216391176993577 
950	 0.217714356774234 
951	 0.215674112721535 
952	 0.220650718081429 
953	 0.223621413428848 
954	 0.216447283147629 
955	 0.206309971495547 
956	 0.201004554240446 
957	 0.211376871325153 
958	 0.215672968569868 
959	 0.211543573043225 
960	 0.212428474118798 
961	 0.213955006051893 
962	 0.214162932178089 
963	 0.214341631318853 
964	 0.214468697550859 
965	 0.214388002615309 
966	 0.21304482765612 
967	 0.211531094527216 
968	 0.212086603799484 
969	 0.215142404131693 
970	 0.218635007447573 
971	 0.214605255111331 
972	 0.211472188660995 
973	 0.213193715312327 
974	 0.212289870808974 
975	 0.213364054874477 
976	 0.221271774073128 
977	 0.220055908589571 
978	 0.213546788647326 
979	 0.216401241829599 
980	 0.217097872414416 
981	 0.214555446648009 
982	 0.217333996104184 
983	 0.220912529723036 
984	 0.222469715861227 
985	 0.220438180017375 
986	 0.220026820908212 
987	 0.22611637563878 
988	 0.227187132323473 
989	 0.22428977309559 
990	 0.223963970550639 
991	 0.219723925990831 
992	 0.214086161607063 
993	 0.222509708240042 
994	 0.22628053485693 
995	 0.218983282608862 
996	 0.224638001130965 
997	 0.229718360949774 
998	 0.220515812436434 
999	 0.213530580334911 
1000	 0.214094095716659 
1001	 0.225691806454341 
1002	 0.227961728393981 
1003	 0.221209798401798 
1004	 0.227047744084275 
1005	 0.22762099353622 
1006	 0.21909202333754 
1007	 0.219213259393141 
1008	 0.225136738643433 
1009	 0.23226888564403 
1010	 0.230718033612962 
1011	 0.225690066658317 
1012	 0.226391792980272 
1013	 0.228547601635431 
1014	 0.230516494007925 
1015	 0.230691412329733 
1016	 0.228467510589123 
1017	 0.225401779782229 
1018	 0.227578697267811 
1019	 0.234563192785526 
1020	 0.242986481250119 
1021	 0.236951216246075 
1022	 0.231565584671783 
1023	 0.241371334628998 
1024	 0.243737955659498 
1025	 0.237096347104468 
1026	 0.225714898735535 
1027	 0.22140855994639 
1028	 0.227303383425839 
1029	 0.242110937909253 
1030	 0.253660672926238 
1031	 0.256045470432126 
1032	 0.245502482634568 
1033	 0.232603777076363 
1034	 0.227474929451164 
1035	 0.239152139984251 
1036	 0.251487596030899 
1037	 0.24727837533636 
1038	 0.242620739839879 
1039	 0.238954000476014 
1040	 0.233686144287897 
1041	 0.22977385456764 
1042	 0.229843372755386 
1043	 0.23990084845936 
1044	 0.237807663795234 
1045	 0.22289761421677 
1046	 0.224714794071652 
1047	 0.238037457176435 
1048	 0.253598651407386 
1049	 0.245101833717809 
1050	 0.223781006881993 
1051	 0.209734675951578 
1052	 0.233226584589339 
1053	 0.263264223433078 
1054	 0.245332140933109 
1055	 0.246290906424495 
1056	 0.266430249412706 
1057	 0.271454962087893 
1058	 0.248947545456635 
1059	 0.214369152235615 
1060	 0.243394828505242 
1061	 0.265335559928675 
1062	 0.250986346750835 
1063	 0.235578807771529 
1064	 0.237881783842955 
1065	 0.261293792938768 
1066	 0.239071643965971 
1067	 0.209793362007681 
1068	 0.221718827186607 
1069	 0.244297790709414 
1070	 0.25615448391119 
1071	 0.232983302777039 
1072	 0.234132559094985 
1073	 0.249886710880042 
1074	 0.218532222585078 
1075	 0.214221706988531 
