Wavelength	SHSI00291.asd
325	 0.090534168754815 
326	 9.62859028932186E-02 
327	 9.73095670768266E-02 
328	 0.111941479739508 
329	 0.116529155199423 
330	 0.105987758062826 
331	 0.102283500424465 
332	 0.105649169585974 
333	 0.113958058731538 
334	 0.112402118225829 
335	 0.106123391770278 
336	 0.114121722065442 
337	 0.116785738306745 
338	 0.109980628945032 
339	 0.102535558728526 
340	 0.101244851651522 
341	 0.109563468848391 
342	 0.109762981641353 
343	 0.106212298997187 
344	 0.112756128917503 
345	 0.116394306760614 
346	 0.114482341816314 
347	 0.11002116026027 
348	 0.109025239192761 
349	 0.114114325119019 
350	 0.113208008182633 
351	 0.109874122268472 
352	 0.112146488725873 
353	 0.112767698437283 
354	 0.111687245928736 
355	 0.11551489104823 
356	 0.118607509730321 
357	 0.117752249881176 
358	 0.117034227767425 
359	 0.116914383434759 
360	 0.11725361132281 
361	 0.117707812188697 
362	 0.117386276166661 
363	 0.113562355648539 
364	 0.111335697798179 
365	 0.11303017298574 
366	 0.114306399210952 
367	 0.115399689972262 
368	 0.117235773703643 
369	 0.11966364890404 
370	 0.121795977864699 
371	 0.120626302909624 
372	 0.120359297011161 
373	 0.122748407989311 
374	 0.123037180116396 
375	 0.120665376591038 
376	 0.115753335874733 
377	 0.113430689186778 
378	 0.114379362022796 
379	 0.116444598596259 
380	 0.117611687035126 
381	 0.117035353561295 
382	 0.118061672869781 
383	 0.11845977081536 
384	 0.115016098272579 
385	 0.115090457294524 
386	 0.117242834823448 
387	 0.111763527345866 
388	 0.107410327472865 
389	 0.107839978365332 
390	 0.109392923297462 
391	 0.111782253531318 
392	 0.114988356935915 
393	 0.115887204133264 
394	 0.114132619245389 
395	 0.110933326058386 
396	 0.108404113399434 
397	 0.107235864244113 
398	 0.105685482562281 
399	 0.104310111432668 
400	 0.10375467426854 
401	 0.104136918671789 
402	 0.105399643660992 
403	 0.10774509665229 
404	 0.108964066467721 
405	 0.108436655120983 
406	 0.108750679781514 
407	 0.109386401807633 
408	 0.109416148768703 
409	 0.109308388776152 
410	 0.108963330597317 
411	 0.107697858363393 
412	 0.106942557203781 
413	 0.107213619689557 
414	 0.106999900055639 
415	 0.10677002709706 
416	 0.107313339124189 
417	 0.107465987507103 
418	 0.107326669837715 
419	 0.108220973967705 
420	 0.108560784020322 
421	 0.107657564992549 
422	 0.107144168103061 
423	 0.107000898021418 
424	 0.106893513447921 
425	 0.106959397224486 
426	 0.107222861325732 
427	 0.107731323103217 
428	 0.108138226265545 
429	 0.108176609815399 
430	 0.107897077317593 
431	 0.107205644819901 
432	 0.105915169609898 
433	 0.105295884185617 
434	 0.105403297808217 
435	 0.104970278845341 
436	 0.104966069513333 
437	 0.105921639450326 
438	 0.106383208251032 
439	 0.106502460539189 
440	 0.107026792578459 
441	 0.106903344290309 
442	 0.10622782777118 
443	 0.106575885136381 
444	 0.107580428643266 
445	 0.108785999742168 
446	 0.109123309689367 
447	 0.10877136943207 
448	 0.108512143741422 
449	 0.108524206262394 
450	 0.108917284790603 
451	 0.109588060742273 
452	 0.110387627821769 
453	 0.111152031222401 
454	 0.11153917820232 
455	 0.111611074802052 
456	 0.111773673907397 
457	 0.111718237448363 
458	 0.111493660089461 
459	 0.112076197152036 
460	 0.112613759408448 
461	 0.112049431881142 
462	 0.111829219109192 
463	 0.112149786078831 
464	 0.112495295199304 
465	 0.112989751645694 
466	 0.11360718054481 
467	 0.113921501398374 
468	 0.113970568340088 
469	 0.113896883608711 
470	 0.113576209189712 
471	 0.113220209298759 
472	 0.113526268331399 
473	 0.114137467417293 
474	 0.114739400516749 
475	 0.114859978660727 
476	 0.114672166450418 
477	 0.11459833834961 
478	 0.114528118168299 
479	 0.114557992645142 
480	 0.115131910763933 
481	 0.115624701847749 
482	 0.115610696449079 
483	 0.116377348799877 
484	 0.117629649860994 
485	 0.118286365798489 
486	 0.117881578106768 
487	 0.116504473829365 
488	 0.115664735132742 
489	 0.115429527517879 
490	 0.115715083274466 
491	 0.116392749133266 
492	 0.117003639629377 
493	 0.116424592545434 
494	 0.116253764053601 
495	 0.11703864801704 
496	 0.117362914774822 
497	 0.117600683429638 
498	 0.118400017487489 
499	 0.119472315148613 
500	 0.120489513259158 
501	 0.120753867379166 
502	 0.120476518314721 
503	 0.119965694949935 
504	 0.120334685909752 
505	 0.121206838018378 
506	 0.121693163370271 
507	 0.122362127274685 
508	 0.123284241019568 
509	 0.124153483516468 
510	 0.125012298622862 
511	 0.125875753995486 
512	 0.126361876851045 
513	 0.126878820917048 
514	 0.128610589663358 
515	 0.12983583466777 
516	 0.130048110014252 
517	 0.130340859573021 
518	 0.130753143388907 
519	 0.131233503884204 
520	 0.131729827477245 
521	 0.132266705255681 
522	 0.132913687724052 
523	 0.133725664731416 
524	 0.134750983727174 
525	 0.136109075187952 
526	 0.137412596876557 
527	 0.138127462231811 
528	 0.138087501682418 
529	 0.137788126521561 
530	 0.138903336587613 
531	 0.140454746237327 
532	 0.141695707005944 
533	 0.142234669398541 
534	 0.142409435819943 
535	 0.142973064055825 
536	 0.143859043267597 
537	 0.144970857805132 
538	 0.145855707419834 
539	 0.146593846846141 
540	 0.147278130026999 
541	 0.147737394304341 
542	 0.148119382745724 
543	 0.148857843202955 
544	 0.149720656493857 
545	 0.150557366493379 
546	 0.151071097586503 
547	 0.151561286433154 
548	 0.15244637335164 
549	 0.153097940593667 
550	 0.153486641656464 
551	 0.154049780551708 
552	 0.154702155430973 
553	 0.155410056420724 
554	 0.156354064443989 
555	 0.157303554671042 
556	 0.157806105374884 
557	 0.15832253181967 
558	 0.158854370852829 
559	 0.158695768312459 
560	 0.158569680193447 
561	 0.159148081504969 
562	 0.159977036794199 
563	 0.16081598104622 
564	 0.161367889131014 
565	 0.161513843036997 
566	 0.161321501545733 
567	 0.161540752726829 
568	 0.162006396456895 
569	 0.162410571356533 
570	 0.1623391023169 
571	 0.162004216731209 
572	 0.162502328914652 
573	 0.163044870650364 
574	 0.163200418119211 
575	 0.163651367580785 
576	 0.164150681765343 
577	 0.164069368833085 
578	 0.164235201044882 
579	 0.164757754229651 
580	 0.164853079463138 
581	 0.165012200845066 
582	 0.165650176821459 
583	 0.16611704429047 
584	 0.166232534859416 
585	 0.165747347890456 
586	 0.16578870662632 
587	 0.166628712613209 
588	 0.166656360908561 
589	 0.166384318761419 
590	 0.166672399799223 
591	 0.166691427532108 
592	 0.166552817640092 
593	 0.167272849815329 
594	 0.167786176827242 
595	 0.167528794389793 
596	 0.167336394353888 
597	 0.167505227118454 
598	 0.168387059929907 
599	 0.168758024888355 
600	 0.168423189239687 
601	 0.168403945593622 
602	 0.168597596582767 
603	 0.168874339003524 
604	 0.16923510326529 
605	 0.169486605477203 
606	 0.169121028061857 
607	 0.168970281671857 
608	 0.169297237107886 
609	 0.169427253047098 
610	 0.169330180120243 
611	 0.169053621547902 
612	 0.168890318864037 
613	 0.168709920962716 
614	 0.167737810292665 
615	 0.166991876495364 
616	 0.167085320866413 
617	 0.167498220150196 
618	 0.167658380074758 
619	 0.16668151466809 
620	 0.166377119232631 
621	 0.166999053218666 
622	 0.167032564395834 
623	 0.166909125546506 
624	 0.167045073008128 
625	 0.167078311226523 
626	 0.167081739892817 
627	 0.167418811655484 
628	 0.167659345239638 
629	 0.167709262491405 
630	 0.168218726382897 
631	 0.168502781896104 
632	 0.16768311090078 
633	 0.167379500471526 
634	 0.167779060442974 
635	 0.168079922533818 
636	 0.168377236197481 
637	 0.168714047314155 
638	 0.169137503022494 
639	 0.169556978621918 
640	 0.169826236095896 
641	 0.169799677208962 
642	 0.169521755461431 
643	 0.169340669792823 
644	 0.169405718029002 
645	 0.169795333456882 
646	 0.169859829975453 
647	 0.169707247299158 
648	 0.17003382065767 
649	 0.170085568098424 
650	 0.169630171720166 
651	 0.169146081149616 
652	 0.168856567211165 
653	 0.168956108443651 
654	 0.16835979264357 
655	 0.167077216653058 
656	 0.166461558941882 
657	 0.165259783351766 
658	 0.163055969224147 
659	 0.16187141073216 
660	 0.161248528105161 
661	 0.16017340017615 
662	 0.158574176583805 
663	 0.156594073419215 
664	 0.15502628261683 
665	 0.153730241662737 
666	 0.152549798074677 
667	 0.151416691078345 
668	 0.150282125176368 
669	 0.149006150885392 
670	 0.148077489132102 
671	 0.147668374183464 
672	 0.147592262504124 
673	 0.147405080086766 
674	 0.146654792107749 
675	 0.146679891078755 
676	 0.147440334407548 
677	 0.147829786743735 
678	 0.148267619878527 
679	 0.14896635695211 
680	 0.149811940161366 
681	 0.150864913286912 
682	 0.152216658442254 
683	 0.154197181601316 
684	 0.156696717891864 
685	 0.159024883989242 
686	 0.161657162117261 
687	 0.164988036395242 
688	 0.168947606397787 
689	 0.17281848482635 
690	 0.175913040162582 
691	 0.179642704301154 
692	 0.184390630976408 
693	 0.189253948411406 
694	 0.194013972787259 
695	 0.198283928621812 
696	 0.202045018079898 
697	 0.205645619640676 
698	 0.210163303210262 
699	 0.214488316945475 
700	 0.218047115293007 
701	 0.221360975098453 
702	 0.224741958139648 
703	 0.228555804665742 
704	 0.231916209333275 
705	 0.234661650403543 
706	 0.236803762100434 
707	 0.239358880737905 
708	 0.242853650102948 
709	 0.245831603524636 
710	 0.248305231246688 
711	 0.25069730618941 
712	 0.252959912302771 
713	 0.255066580285867 
714	 0.256940582282017 
715	 0.258536917424188 
716	 0.25994179530666 
717	 0.261871946136882 
718	 0.26438168795405 
719	 0.26674683928068 
720	 0.268213825535051 
721	 0.26881603191419 
722	 0.270221797687634 
723	 0.272050822125098 
724	 0.273694297803201 
725	 0.275070211138957 
726	 0.276312873004284 
727	 0.278399203742989 
728	 0.279943622127639 
729	 0.280435699905048 
730	 0.281555238359876 
731	 0.283187781463403 
732	 0.284895914568126 
733	 0.286071677505305 
734	 0.286795770403864 
735	 0.287811213467046 
736	 0.28886060650132 
737	 0.289771890703095 
738	 0.29090922380731 
739	 0.292079878123148 
740	 0.292812336611581 
741	 0.293761789752873 
742	 0.295006495299532 
743	 0.296007459947008 
744	 0.296812330598115 
745	 0.29747956826487 
746	 0.297885953169149 
747	 0.298355322860724 
748	 0.299690943782415 
749	 0.301035392496282 
750	 0.302056325986927 
751	 0.302957080129207 
752	 0.303617631060588 
753	 0.303924347433588 
754	 0.304149989420511 
755	 0.304605822394527 
756	 0.306229518538194 
757	 0.306359495964072 
758	 0.304160299818618 
759	 0.303971516089228 
760	 0.306880606183955 
761	 0.311575029496575 
762	 0.314240092627231 
763	 0.314863016876713 
764	 0.317090420377324 
765	 0.318243444271465 
766	 0.317727471640887 
767	 0.3172165059566 
768	 0.317223337120552 
769	 0.318241333014932 
770	 0.318912466020571 
771	 0.319166664203412 
772	 0.32003189664357 
773	 0.321281975755299 
774	 0.322628353014849 
775	 0.322940426506985 
776	 0.322907872746003 
777	 0.324072267322259 
778	 0.325201605149576 
779	 0.325957028901448 
780	 0.326514822671293 
781	 0.327328546796729 
782	 0.328645900737165 
783	 0.329120176950761 
784	 0.329126961764724 
785	 0.329898849441859 
786	 0.330946880035387 
787	 0.332024440923134 
788	 0.332686839870622 
789	 0.333132716098715 
790	 0.333593563807303 
791	 0.334202843971081 
792	 0.335163669383172 
793	 0.337027493546183 
794	 0.337913451964766 
795	 0.337560547359134 
796	 0.338577754742263 
797	 0.339719417157594 
798	 0.339668662561753 
799	 0.340020604215279 
800	 0.341104381902387 
801	 0.343119832941153 
802	 0.344083885943003 
803	 0.343613819392901 
804	 0.344664955879174 
805	 0.3460893541988 
806	 0.346442689266505 
807	 0.346294687909012 
808	 0.34626488332536 
809	 0.347844641771057 
810	 0.349126478671399 
811	 0.349320151044224 
812	 0.349295605718481 
813	 0.349521097303092 
814	 0.350529598333313 
815	 0.352591294145323 
816	 0.35523674137769 
817	 0.35691567117603 
818	 0.358333982988985 
819	 0.359492103626567 
820	 0.358558297938498 
821	 0.357924225496191 
822	 0.36042446359491 
823	 0.362855792526253 
824	 0.364081269990976 
825	 0.363361525644138 
826	 0.363308512202514 
827	 0.364843391854536 
828	 0.365755690643552 
829	 0.366282532664074 
830	 0.366970838653451 
831	 0.368182816399084 
832	 0.369619225070969 
833	 0.370188555615917 
834	 0.370839471972671 
835	 0.371737859356937 
836	 0.371316372436944 
837	 0.370741852202677 
838	 0.371440802005244 
839	 0.37307343168424 
840	 0.374859797564227 
841	 0.374812201191207 
842	 0.375020332184096 
843	 0.376185887501226 
844	 0.376890728895659 
845	 0.376757783419612 
846	 0.37560003815495 
847	 0.37547692624303 
848	 0.376408898088423 
849	 0.377177237972996 
850	 0.377157662415255 
851	 0.376512878110878 
852	 0.37792962118335 
853	 0.380478895346004 
854	 0.382798183627988 
855	 0.383552142350337 
856	 0.382879783744888 
857	 0.381654598554811 
858	 0.382060030225576 
859	 0.384254094545299 
860	 0.384473401244816 
861	 0.384098177160708 
862	 0.384625195842413 
863	 0.385434608441369 
864	 0.386156148011676 
865	 0.385959718588836 
866	 0.387299632166334 
867	 0.390175822341026 
868	 0.390344873197481 
869	 0.39053526160159 
870	 0.39280195350917 
871	 0.393141504348349 
872	 0.392331796108936 
873	 0.392977084003583 
874	 0.394154144064337 
875	 0.395668257061876 
876	 0.397644602197387 
877	 0.39953659755855 
878	 0.401077200073177 
879	 0.403420692345507 
880	 0.405754442305861 
881	 0.406580274771749 
882	 0.406896793318879 
883	 0.407222891363143 
884	 0.408109649596387 
885	 0.409918010835633 
886	 0.412406993078224 
887	 0.412670647090005 
888	 0.411938804527652 
889	 0.412253933500799 
890	 0.412068504398561 
891	 0.411620586417072 
892	 0.412776291855059 
893	 0.413039034993211 
894	 0.411973462700562 
895	 0.414670331558099 
896	 0.4186266959973 
897	 0.42040319182032 
898	 0.422704598895669 
899	 0.425841693322589 
900	 0.429558783698008 
901	 0.430886110311643 
902	 0.429336194984947 
903	 0.42760051951603 
904	 0.426420660981826 
905	 0.426370510832419 
906	 0.427638732909068 
907	 0.429241555329452 
908	 0.429421381583766 
909	 0.429283095365317 
910	 0.429654497546676 
911	 0.43230026318595 
912	 0.434685182406706 
913	 0.435665090824503 
914	 0.438433623309472 
915	 0.441177034542839 
916	 0.441403718436633 
917	 0.44187141945403 
918	 0.442060619484285 
919	 0.438677363392197 
920	 0.437009733874282 
921	 0.437993186217269 
922	 0.435876604034197 
923	 0.433808321203338 
924	 0.434339463391573 
925	 0.43131932400721 
926	 0.426072846335046 
927	 0.423581165283607 
928	 0.424771832025073 
929	 0.429774023584858 
930	 0.435732152619926 
931	 0.439692529133348 
932	 0.440271625223239 
933	 0.45240862950494 
934	 0.464012218435 
935	 0.455218255197592 
936	 0.446761302145104 
937	 0.441046736279606 
938	 0.427247381047054 
939	 0.424529353080316 
940	 0.434548838295668 
941	 0.438841527737222 
942	 0.440038105876271 
943	 0.440706307666844 
944	 0.443316989050312 
945	 0.444637767697459 
946	 0.438951777503488 
947	 0.439249807206493 
948	 0.444446353936434 
949	 0.440188552812869 
950	 0.431168739537783 
951	 0.423063302332009 
952	 0.435056711885432 
953	 0.447163020607008 
954	 0.441753114179957 
955	 0.433685273683439 
956	 0.429933555137431 
957	 0.437775602927514 
958	 0.449129477505001 
959	 0.456874024524916 
960	 0.446609809977966 
961	 0.439093789150595 
962	 0.443341520604337 
963	 0.447040619878149 
964	 0.447033873635238 
965	 0.441560711380118 
966	 0.43614292071821 
967	 0.432384855929806 
968	 0.43061219085178 
969	 0.432742409939753 
970	 0.436649376018712 
971	 0.432594422225748 
972	 0.430870322391917 
973	 0.436266699238063 
974	 0.440338749679542 
975	 0.442722018079795 
976	 0.444060100131008 
977	 0.445908678431448 
978	 0.446950917815722 
979	 0.443628303809612 
980	 0.441763736472666 
981	 0.442741529573482 
982	 0.444225987085294 
983	 0.444548549531533 
984	 0.443537270678012 
985	 0.446328611654767 
986	 0.449570053214381 
987	 0.449544825146975 
988	 0.454219657115617 
989	 0.459145570870874 
990	 0.45266513977008 
991	 0.451998656657939 
992	 0.457512270353211 
993	 0.451363898867847 
994	 0.447006294870259 
995	 0.450158609153654 
996	 0.451931864227785 
997	 0.450459215824612 
998	 0.445820947381697 
999	 0.453574067202821 
1000	 0.464597749383639 
1001	 0.459447858964045 
1002	 0.456928956299455 
1003	 0.459721439006479 
1004	 0.45968478619751 
1005	 0.459679346876964 
1006	 0.460678393055521 
1007	 0.462369513576136 
1008	 0.463077042113036 
1009	 0.461568586678345 
1010	 0.458536380814601 
1011	 0.45756520712533 
1012	 0.462954198931966 
1013	 0.45959028983627 
1014	 0.451178143258494 
1015	 0.454937891827685 
1016	 0.460501106237628 
1017	 0.463625931286685 
1018	 0.458968522046221 
1019	 0.464007538376089 
1020	 0.483609926940976 
1021	 0.485873882151861 
1022	 0.471071557528892 
1023	 0.446850370047938 
1024	 0.455184718917641 
1025	 0.477496061607468 
1026	 0.471785872445699 
1027	 0.47270788816392 
1028	 0.478867976134031 
1029	 0.459308265993825 
1030	 0.449878084139597 
1031	 0.461512392982815 
1032	 0.48455821119671 
1033	 0.491641962134624 
1034	 0.471397483160803 
1035	 0.469346896466309 
1036	 0.473598411240222 
1037	 0.469005392693508 
1038	 0.490383372579562 
1039	 0.514112427016648 
1040	 0.492445433771964 
1041	 0.479052642053936 
1042	 0.47966612202344 
1043	 0.471628810884807 
1044	 0.467652749177772 
1045	 0.473335699709231 
1046	 0.496419865843258 
1047	 0.501895034421206 
1048	 0.472930128059564 
1049	 0.447894822324458 
1050	 0.443322638033795 
1051	 0.467695780886476 
1052	 0.478174205663331 
1053	 0.47755457542321 
1054	 0.479980382912758 
1055	 0.479264751243983 
1056	 0.480180842453424 
1057	 0.497747926840028 
1058	 0.488776920346087 
1059	 0.456686399912479 
1060	 0.456710223441605 
1061	 0.477908127311696 
1062	 0.502592727736442 
1063	 0.468204775096891 
1064	 0.433338846474457 
1065	 0.439575799197604 
1066	 0.449214978489848 
1067	 0.4509401617866 
1068	 0.439955401808182 
1069	 0.454184958211228 
1070	 0.471948859368747 
1071	 0.449834376722543 
1072	 0.416430424241048 
1073	 0.408277080774026 
1074	 0.479366055085081 
1075	 0.481832299452751 
