Wavelength	SHSI00093.asd
325	 0.120079659664616 
326	 0.116034039885394 
327	 0.109292415414714 
328	 0.11310046068102 
329	 0.115961731679221 
330	 0.113729044932041 
331	 0.107138983765667 
332	 0.104809949808286 
333	 0.113806387244883 
334	 0.115717964737521 
335	 0.112267990404142 
336	 0.115380860190956 
337	 0.117144049173248 
338	 0.115628365253001 
339	 0.112471070592707 
340	 0.111765426313048 
341	 0.115974591520366 
342	 0.114600493563917 
343	 0.111260064488404 
344	 0.116079035917619 
345	 0.117395750793583 
346	 0.113903712447905 
347	 0.112807694840731 
348	 0.114032620079007 
349	 0.116610704913641 
350	 0.113557930515196 
351	 0.110153701710576 
352	 0.116054310794428 
353	 0.118255169668331 
354	 0.115722826138063 
355	 0.117225203062049 
356	 0.11885724871304 
357	 0.118384183534041 
358	 0.118085901838271 
359	 0.118312812884305 
360	 0.11917310252442 
361	 0.119418037485264 
362	 0.118824811614825 
363	 0.117647331373028 
364	 0.117431360963941 
365	 0.118596503854283 
366	 0.118157226718535 
367	 0.116999531668609 
368	 0.116683640246312 
369	 0.11717894362328 
370	 0.117985965889128 
371	 0.117444522668801 
372	 0.116940125186823 
373	 0.11710893490456 
374	 0.116670643132883 
375	 0.116418336233389 
376	 0.117560061521313 
377	 0.116016611588762 
378	 0.112598226193682 
379	 0.112946546442901 
380	 0.114152680187958 
381	 0.114579899687816 
382	 0.11391840777787 
383	 0.112719406229894 
384	 0.111771664161095 
385	 0.111004748133551 
386	 0.110726407851699 
387	 0.111945635170904 
388	 0.11188479959233 
389	 0.109860663013237 
390	 0.109923016894441 
391	 0.110675436052651 
392	 0.110115267424767 
393	 0.109931808232701 
394	 0.109876546543996 
395	 0.108151382334322 
396	 0.107302690536326 
397	 0.107966604638202 
398	 0.107371938026094 
399	 0.106194917972227 
400	 0.105350430653869 
401	 0.104690545610658 
402	 0.104448828564039 
403	 0.105408062941266 
404	 0.105706897236041 
405	 0.104815672550143 
406	 0.104734148535104 
407	 0.104897719010942 
408	 0.104407860537605 
409	 0.103611380565363 
410	 0.102796198095547 
411	 0.102522419094952 
412	 0.102300042670667 
413	 0.101949042262677 
414	 0.101991627477971 
415	 0.101971972835959 
416	 0.10126530314329 
417	 0.100826475768158 
418	 0.100822491837265 
419	 0.101056912554655 
420	 0.101159830179873 
421	 0.100898928800395 
422	 0.100222738633747 
423	 9.96521683913472E-02 
424	 9.99154002675337E-02 
425	 0.100165116355986 
426	 0.100083042203902 
427	 9.93455357637029E-02 
428	 9.88967708140778E-02 
429	 9.93125925301215E-02 
430	 9.99482471590549E-02 
431	 0.100140407160698 
432	 9.89814669897621E-02 
433	 9.81044611624406E-02 
434	 9.79490599791969E-02 
435	 9.82070737912808E-02 
436	 9.84387840074276E-02 
437	 9.83712812792136E-02 
438	 9.83598060252202E-02 
439	 9.84271170626497E-02 
440	 9.85343139111219E-02 
441	 9.85308328724718E-02 
442	 9.84036941570958E-02 
443	 9.82785062354442E-02 
444	 9.83281546603877E-02 
445	 9.86794932359439E-02 
446	 9.92053747679828E-02 
447	 9.97486358970043E-02 
448	 0.100075348964428 
449	 0.100099496902475 
450	 9.99584568648319E-02 
451	 0.100460476638018 
452	 0.101081232559391 
453	 0.10127829985393 
454	 0.10157338290621 
455	 0.101954910153582 
456	 0.102128906880123 
457	 0.10222819810708 
458	 0.102315215825186 
459	 0.102420252876653 
460	 0.102541830729006 
461	 0.102673945314498 
462	 0.102927790530957 
463	 0.103213211790659 
464	 0.103141090747887 
465	 0.103291689335394 
466	 0.103886631316631 
467	 0.104169112692698 
468	 0.10431793201248 
469	 0.10472274393454 
470	 0.104889517365243 
471	 0.104925063136457 
472	 0.105646648598886 
473	 0.106367900616214 
474	 0.106644423672888 
475	 0.106721233859813 
476	 0.106766390897451 
477	 0.10700948417776 
478	 0.107249026315636 
479	 0.107364436193252 
480	 0.107106669228536 
481	 0.106938855226045 
482	 0.107230608030877 
483	 0.107670431907476 
484	 0.108077555261963 
485	 0.108165721723019 
486	 0.108251086832203 
487	 0.108396961822092 
488	 0.108288733458176 
489	 0.10814552469631 
490	 0.108202920183886 
491	 0.108297737823976 
492	 0.108448951694098 
493	 0.108786689649627 
494	 0.109162549460423 
495	 0.109527847323022 
496	 0.110068862234236 
497	 0.110530295006993 
498	 0.110571763339275 
499	 0.111263284227194 
500	 0.112526950890003 
501	 0.113183363459369 
502	 0.113632935930064 
503	 0.114116951879927 
504	 0.114501304721897 
505	 0.115085876243116 
506	 0.116375044670732 
507	 0.117641593747232 
508	 0.118593794352773 
509	 0.119001418657123 
510	 0.119562989066913 
511	 0.12078650038648 
512	 0.121736449600857 
513	 0.122546829420253 
514	 0.123942616362007 
515	 0.125163556111318 
516	 0.125963743682978 
517	 0.126617059588024 
518	 0.12742608763876 
519	 0.128654904027834 
520	 0.129575316808259 
521	 0.130259528336377 
522	 0.131341827468171 
523	 0.13245578092012 
524	 0.13349412135923 
525	 0.134816927333004 
526	 0.136249082559206 
527	 0.137486443014489 
528	 0.138698287034129 
529	 0.139818775200867 
530	 0.140492550105905 
531	 0.141332783353847 
532	 0.142704178838309 
533	 0.143890777387971 
534	 0.144882154850273 
535	 0.145864259448796 
536	 0.146917416340043 
537	 0.148089347507632 
538	 0.149416568890791 
539	 0.15062382658846 
540	 0.151464648863655 
541	 0.152421981886052 
542	 0.153530960950182 
543	 0.154635368953746 
544	 0.155644193249053 
545	 0.156573827275807 
546	 0.157790524022323 
547	 0.159078046847758 
548	 0.160112371153222 
549	 0.160951435876561 
550	 0.16172685903929 
551	 0.162869673531133 
552	 0.163861084274142 
553	 0.164414036693346 
554	 0.165047620947218 
555	 0.165889713367219 
556	 0.167046612019207 
557	 0.168097597784127 
558	 0.168886100653723 
559	 0.169486938421642 
560	 0.170008051536092 
561	 0.170551467086123 
562	 0.171080694885811 
563	 0.171614065965254 
564	 0.172255447392502 
565	 0.172589541975841 
566	 0.172585857295662 
567	 0.173254918404339 
568	 0.173913219944832 
569	 0.173590370438036 
570	 0.173490475980006 
571	 0.173768392483398 
572	 0.17384710531765 
573	 0.173895291374035 
574	 0.174024891964022 
575	 0.174320176133048 
576	 0.174618978383245 
577	 0.174615397187267 
578	 0.17444874720021 
579	 0.174338391656759 
580	 0.175039375629203 
581	 0.175559094498368 
582	 0.175080439424742 
583	 0.174998899910584 
584	 0.175360496545999 
585	 0.175611986369766 
586	 0.175771489143716 
587	 0.175865265406394 
588	 0.176203298919975 
589	 0.176515666066558 
590	 0.176414118982383 
591	 0.176316187837863 
592	 0.176370910341624 
593	 0.176679366615034 
594	 0.176975331525156 
595	 0.177100146161761 
596	 0.177169555293979 
597	 0.177265950463001 
598	 0.177507271781553 
599	 0.177756325440996 
600	 0.177896753839741 
601	 0.177652801537454 
602	 0.17738327142385 
603	 0.177394628844761 
604	 0.177307984253756 
605	 0.177008071827448 
606	 0.176382676713185 
607	 0.175649596192257 
608	 0.174979736545225 
609	 0.174710359998807 
610	 0.174538631013918 
611	 0.174046473360266 
612	 0.17334549081568 
613	 0.172589034958256 
614	 0.172204603355265 
615	 0.17177576647344 
616	 0.171081863411503 
617	 0.170542371450431 
618	 0.170091514765635 
619	 0.169489986179876 
620	 0.169118004013656 
621	 0.16896313272435 
622	 0.168448725038236 
623	 0.167988147818466 
624	 0.167970368740254 
625	 0.168216083368929 
626	 0.168482278654776 
627	 0.168300423262839 
628	 0.167868505800543 
629	 0.167393338251806 
630	 0.16756479773163 
631	 0.167862392404942 
632	 0.167575934440564 
633	 0.167585798996918 
634	 0.167924196375492 
635	 0.168024942941669 
636	 0.167982133516968 
637	 0.16788333525219 
638	 0.168010437881473 
639	 0.168226764949076 
640	 0.168224758111467 
641	 0.168104001742798 
642	 0.168021955078651 
643	 0.168541110886727 
644	 0.168946126749184 
645	 0.168643156063753 
646	 0.168688073322793 
647	 0.168908545012428 
648	 0.168362596076645 
649	 0.167527393085836 
650	 0.166714228343945 
651	 0.166507919107539 
652	 0.166289069283515 
653	 0.165265567530692 
654	 0.164055574348636 
655	 0.162723713951694 
656	 0.161271422589966 
657	 0.159387335311536 
658	 0.157064508709994 
659	 0.154926630434476 
660	 0.152930636288765 
661	 0.150965866297574 
662	 0.14835200092635 
663	 0.145196813565061 
664	 0.142774866107176 
665	 0.140765719088418 
666	 0.138852200512318 
667	 0.136983953069228 
668	 0.13515239726326 
669	 0.133334304424582 
670	 0.131867010872521 
671	 0.130865529937836 
672	 0.130109735021848 
673	 0.129594645765381 
674	 0.129326610191405 
675	 0.129273510296265 
676	 0.129394475962422 
677	 0.129586778291292 
678	 0.130031775921928 
679	 0.130852343940994 
680	 0.13210550649454 
681	 0.13369832737787 
682	 0.135481041345853 
683	 0.137405335210382 
684	 0.139623307504475 
685	 0.142847072950201 
686	 0.146937180762317 
687	 0.151672240015441 
688	 0.156369411684207 
689	 0.160783174560397 
690	 0.165754456133976 
691	 0.170947386272329 
692	 0.176443630164275 
693	 0.182468581462056 
694	 0.188633205798675 
695	 0.194268215041174 
696	 0.200007215903085 
697	 0.205739387137688 
698	 0.211129080537401 
699	 0.216396573620952 
700	 0.221490624721672 
701	 0.226020400810081 
702	 0.230431413242602 
703	 0.235413326543198 
704	 0.239770892851977 
705	 0.243442363056947 
706	 0.247071354342212 
707	 0.250477632950297 
708	 0.253560685690834 
709	 0.256429349579859 
710	 0.259230274319737 
711	 0.262201160709512 
712	 0.265070593210604 
713	 0.267712968085583 
714	 0.27010462690968 
715	 0.272274267107276 
716	 0.274386630977445 
717	 0.276923019288006 
718	 0.27971863849219 
719	 0.281483570429297 
720	 0.282800087037401 
721	 0.283983858550154 
722	 0.285395065575235 
723	 0.287200896880545 
724	 0.289455497146723 
725	 0.290962728383532 
726	 0.291655593703733 
727	 0.292699839010383 
728	 0.293827938955118 
729	 0.29490329282466 
730	 0.295796368041094 
731	 0.296503260631913 
732	 0.297045245234563 
733	 0.297780107922779 
734	 0.298615320534072 
735	 0.298790788698181 
736	 0.29929902061287 
737	 0.300669916140733 
738	 0.301491577554574 
739	 0.301906068605441 
740	 0.302565006662272 
741	 0.303162414113483 
742	 0.303644495528939 
743	 0.304123522965157 
744	 0.30458506812221 
745	 0.305030335274412 
746	 0.305619150712579 
747	 0.306253638384654 
748	 0.30663275596825 
749	 0.30707321783459 
750	 0.30768347642914 
751	 0.308422866424895 
752	 0.30897071445342 
753	 0.30903046838657 
754	 0.309428509243122 
755	 0.310127478288429 
756	 0.310589388360573 
757	 0.310474327991088 
758	 0.309876008646296 
759	 0.311380053761316 
760	 0.3153157910559 
761	 0.317197300862617 
762	 0.31789268633656 
763	 0.318220414019337 
764	 0.318971664810822 
765	 0.318826050396126 
766	 0.317737184676818 
767	 0.317321933286745 
768	 0.317252167215366 
769	 0.317050107426088 
770	 0.317183046702368 
771	 0.317612465546945 
772	 0.317798228885461 
773	 0.318045886078613 
774	 0.318541038325059 
775	 0.319009104318365 
776	 0.319514482017823 
777	 0.320283571198166 
778	 0.320644254716387 
779	 0.32059332352706 
780	 0.321026375492164 
781	 0.321638367943807 
782	 0.322144647415986 
783	 0.322404149827569 
784	 0.322528238140797 
785	 0.322811646619063 
786	 0.323086482067614 
787	 0.3233385905515 
788	 0.323700128705323 
789	 0.324179048231395 
790	 0.324747160606812 
791	 0.325076391464605 
792	 0.325228736363556 
793	 0.325560061992735 
794	 0.325583535482695 
795	 0.32533645234084 
796	 0.325891196045648 
797	 0.326518824772418 
798	 0.326475558460022 
799	 0.326806365276639 
800	 0.327435227376099 
801	 0.32754967705996 
802	 0.327968751342777 
803	 0.328776880642704 
804	 0.328617957268454 
805	 0.328331463838398 
806	 0.328900125165268 
807	 0.329719507598593 
808	 0.330526391944023 
809	 0.330937733907625 
810	 0.331332100372467 
811	 0.331874405910729 
812	 0.332398011337314 
813	 0.333121216990122 
814	 0.334319428509466 
815	 0.33552701601939 
816	 0.33650295958168 
817	 0.337063106553067 
818	 0.337415709554902 
819	 0.337746380815538 
820	 0.338387763250162 
821	 0.338975957020177 
822	 0.339056753119058 
823	 0.339261315403237 
824	 0.339635094357603 
825	 0.33985725145873 
826	 0.340246135426433 
827	 0.340908312327178 
828	 0.341634077475276 
829	 0.341895941532067 
830	 0.3411432259858 
831	 0.340988136647959 
832	 0.341598713670897 
833	 0.342365962398016 
834	 0.342833039435593 
835	 0.342798039857215 
836	 0.342657475026627 
837	 0.342321325510515 
838	 0.341673481382338 
839	 0.341457218900114 
840	 0.341587418096176 
841	 0.341227699854782 
842	 0.341429106853141 
843	 0.342375238859796 
844	 0.342488536841789 
845	 0.342043397191582 
846	 0.341520554996216 
847	 0.341126444510335 
848	 0.340927745880117 
849	 0.340944362081394 
850	 0.340739132077965 
851	 0.340239682478339 
852	 0.34016850260162 
853	 0.340571486726362 
854	 0.341327027943973 
855	 0.340827692797575 
856	 0.339653217134308 
857	 0.340141464256182 
858	 0.34014513736712 
859	 0.3392596974066 
860	 0.339265008970273 
861	 0.339558200852871 
862	 0.33948963136713 
863	 0.339391891618354 
864	 0.339407106325518 
865	 0.339716379364516 
866	 0.340223741303663 
867	 0.340904359658281 
868	 0.341927832723588 
869	 0.342555832346265 
870	 0.342331201716841 
871	 0.342847896474631 
872	 0.344115308095039 
873	 0.345633534653282 
874	 0.347207893375949 
875	 0.348510116570241 
876	 0.348656151718538 
877	 0.349161759808402 
878	 0.350947653503798 
879	 0.35205536116158 
880	 0.352826192082619 
881	 0.354247123428007 
882	 0.355329901491057 
883	 0.356008094158561 
884	 0.356908450274234 
885	 0.358145182820932 
886	 0.35969078349323 
887	 0.360777767752414 
888	 0.361721079117427 
889	 0.363049450974977 
890	 0.363909402867299 
891	 0.364342592078819 
892	 0.365014196839606 
893	 0.366168544287138 
894	 0.367880111747412 
895	 0.369586103645023 
896	 0.371561557291022 
897	 0.373967531231302 
898	 0.373969552278413 
899	 0.372608791670404 
900	 0.374075250133024 
901	 0.374917566398343 
902	 0.374708083081132 
903	 0.376834206728758 
904	 0.378519938404266 
905	 0.377639322651698 
906	 0.375730165377028 
907	 0.375026998116851 
908	 0.379020284225116 
909	 0.380990392333285 
910	 0.379983992871424 
911	 0.380995389289097 
912	 0.381877923257409 
913	 0.381574082168612 
914	 0.381488993039999 
915	 0.382260842831333 
916	 0.384307069967701 
917	 0.383179970823573 
918	 0.380260289230146 
919	 0.381840615554373 
920	 0.38284579557422 
921	 0.381896871335967 
922	 0.381470195820816 
923	 0.381764468170728 
924	 0.382628154524837 
925	 0.380931264899533 
926	 0.378364305325934 
927	 0.379889730921849 
928	 0.38153185993463 
929	 0.381937293848722 
930	 0.381649491876466 
931	 0.383066401222065 
932	 0.387218108011541 
933	 0.384768546049208 
934	 0.380599463618336 
935	 0.383950448566803 
936	 0.390624192514806 
937	 0.395380283571726 
938	 0.388570030966037 
939	 0.381582903497634 
940	 0.378912358144815 
941	 0.381818732289857 
942	 0.382685500181311 
943	 0.376995385119805 
944	 0.376691872459455 
945	 0.380313817409229 
946	 0.382864367718159 
947	 0.381895144431564 
948	 0.378936812479612 
949	 0.381724189202108 
950	 0.383469389052481 
951	 0.38155284497351 
952	 0.378972518374019 
953	 0.377728595031238 
954	 0.378765058747552 
955	 0.373911404745424 
956	 0.368509391376373 
957	 0.374317295045087 
958	 0.375562175858694 
959	 0.370493176402628 
960	 0.366695248084441 
961	 0.368167068112637 
962	 0.374887657710865 
963	 0.376551211921297 
964	 0.374584425792904 
965	 0.371485264180338 
966	 0.369375817794483 
967	 0.368748832575928 
968	 0.369737315074782 
969	 0.369252096681491 
970	 0.367322247303105 
971	 0.367534409291986 
972	 0.368222960150786 
973	 0.368782784555337 
974	 0.371915436858343 
975	 0.37441267239457 
976	 0.372726909148996 
977	 0.372650008683571 
978	 0.37342641225815 
979	 0.3706669540019 
980	 0.372235029658034 
981	 0.377722829449469 
982	 0.376877589692251 
983	 0.375124596449226 
984	 0.375438132336013 
985	 0.376489561066169 
986	 0.376632295104114 
987	 0.374460123678157 
988	 0.372931624344629 
989	 0.373098692464932 
990	 0.375859060146169 
991	 0.377662120907243 
992	 0.377985686170041 
993	 0.379575027512486 
994	 0.378338706175378 
995	 0.373568930586652 
996	 0.373810344227926 
997	 0.375551042141611 
998	 0.374960185805393 
999	 0.377270110457682 
1000	 0.380741022894313 
1001	 0.380900249093434 
1002	 0.381084287804188 
1003	 0.382089396648456 
1004	 0.383863600399135 
1005	 0.38455377456884 
1006	 0.382958946288899 
1007	 0.377430453904557 
1008	 0.374325557656126 
1009	 0.377697792433956 
1010	 0.376834240419152 
1011	 0.376179644091593 
1012	 0.383290408650554 
1013	 0.388099356484708 
1014	 0.388018035780423 
1015	 0.382728644792281 
1016	 0.375080442050819 
1017	 0.369251634815822 
1018	 0.375123736146677 
1019	 0.383179524545659 
1020	 0.388103723936244 
1021	 0.395764233981007 
1022	 0.398921796152625 
1023	 0.391152359456302 
1024	 0.388691166399237 
1025	 0.390394445855749 
1026	 0.38936521680908 
1027	 0.386346653547353 
1028	 0.383184539709531 
1029	 0.38470434225399 
1030	 0.386570811578183 
1031	 0.387939976727631 
1032	 0.39300429392514 
1033	 0.394127826865676 
1034	 0.388303942462927 
1035	 0.388555197195 
1036	 0.393015412559205 
1037	 0.397657604817797 
1038	 0.39875552709341 
1039	 0.39725277439964 
1040	 0.39623140782207 
1041	 0.388935807960769 
1042	 0.38193183273119 
1043	 0.401024902035986 
1044	 0.399438243862395 
1045	 0.375532847188479 
1046	 0.397250794877503 
1047	 0.412966777333361 
1048	 0.395478767519803 
1049	 0.387292422323316 
1050	 0.39639841903687 
1051	 0.422847604657921 
1052	 0.415281506307526 
1053	 0.393802914134765 
1054	 0.402703036856008 
1055	 0.410374235953131 
1056	 0.405203380136947 
1057	 0.374557754991781 
1058	 0.365269596923015 
1059	 0.385818448373987 
1060	 0.401219777573161 
1061	 0.414378458834427 
1062	 0.422050470961568 
1063	 0.410224844190571 
1064	 0.397597948344589 
1065	 0.397263775254818 
1066	 0.389441426124278 
1067	 0.381509218762829 
1068	 0.381697088555955 
1069	 0.377951172309056 
1070	 0.381484506724889 
1071	 0.412370768994979 
1072	 0.419441588148737 
1073	 0.397574601217282 
1074	 0.3679238012388 
1075	 0.358927874019189 
