Wavelength	SHSI00016.asd
325	 4.74914342048671E-02 
326	 5.10749396855664E-02 
327	 4.79700002233335E-02 
328	 0.034482923657239 
329	 3.29712649575082E-02 
330	 4.68010022841434E-02 
331	 0.046742231013516 
332	 4.14682565426684E-02 
333	 4.10414362500181E-02 
334	 4.23194144486098E-02 
335	 4.39126696150106E-02 
336	 4.34398615453075E-02 
337	 4.40590059529928E-02 
338	 0.046190056010174 
339	 0.047538727036308 
340	 4.66559557142232E-02 
341	 4.29103497973307E-02 
342	 4.00639212301441E-02 
343	 3.93933843940542E-02 
344	 4.23318818505324E-02 
345	 4.15301817478547E-02 
346	 3.79455788040295E-02 
347	 4.35833791260839E-02 
348	 4.86364543181025E-02 
349	 4.68678725139948E-02 
350	 4.45771418257326E-02 
351	 4.41956812452853E-02 
352	 4.83014327873127E-02 
353	 4.96198056911923E-02 
354	 0.047729658284281 
355	 4.83332437047704E-02 
356	 4.95031018474717E-02 
357	 4.98430151755295E-02 
358	 4.82981341837185E-02 
359	 4.65682370718517E-02 
360	 4.73765521492198E-02 
361	 0.047172024750283 
362	 4.59171704050323E-02 
363	 4.64684098392872E-02 
364	 4.68591593527859E-02 
365	 4.62362247178914E-02 
366	 0.046377073512056 
367	 4.67661823898492E-02 
368	 4.65087102852196E-02 
369	 4.54492954835206E-02 
370	 4.42152063400027E-02 
371	 4.47733559803329E-02 
372	 4.63949538675588E-02 
373	 4.81288188945914E-02 
374	 4.69439668359212E-02 
375	 4.44047261381392E-02 
376	 4.31139854741365E-02 
377	 4.29340841536501E-02 
378	 4.36459454150396E-02 
379	 4.45568478565197E-02 
380	 4.50898655275086E-02 
381	 4.49610180182028E-02 
382	 4.47243590449991E-02 
383	 4.46806853856968E-02 
384	 4.51251045465035E-02 
385	 4.58611920410468E-02 
386	 4.62683920728586E-02 
387	 4.49489332277553E-02 
388	 4.30374864243435E-02 
389	 4.15122056282524E-02 
390	 4.23247003815624E-02 
391	 4.42461199088676E-02 
392	 4.56257426980281E-02 
393	 4.50968496382724E-02 
394	 4.33610510163425E-02 
395	 4.35418654950615E-02 
396	 0.042801601658579 
397	 4.04876405620328E-02 
398	 3.93207089244224E-02 
399	 0.039459700209003 
400	 4.07003660924443E-02 
401	 4.09908690317469E-02 
402	 4.04099382702243E-02 
403	 4.01009042234109E-02 
404	 4.01720664016744E-02 
405	 0.040603707713702 
406	 4.08906340379165E-02 
407	 4.07784595518101E-02 
408	 4.00516854848805E-02 
409	 3.98502143169148E-02 
410	 4.00996600097425E-02 
411	 3.97142867930124E-02 
412	 3.96315604261897E-02 
413	 4.01705417158832E-02 
414	 4.04216042942593E-02 
415	 0.040505498373245 
416	 4.07022478288095E-02 
417	 4.04818570815683E-02 
418	 3.99038883918602E-02 
419	 3.94727309494183E-02 
420	 3.92204499924119E-02 
421	 3.91778980929426E-02 
422	 0.039315203564242 
423	 3.95830356881099E-02 
424	 3.99443088687791E-02 
425	 3.97899165141322E-02 
426	 3.92574863093548E-02 
427	 3.94290915314945E-02 
428	 3.97184720975569E-02 
429	 3.97310107721667E-02 
430	 3.96476188722623E-02 
431	 3.93780874626645E-02 
432	 3.87175290247236E-02 
433	 0.038738042121824 
434	 3.93263785330999E-02 
435	 3.89742045683917E-02 
436	 3.86871822848421E-02 
437	 3.90774145730985E-02 
438	 3.91531548277882E-02 
439	 3.90897953616465E-02 
440	 3.95234304947304E-02 
441	 0.039379835005648 
442	 3.86736969522064E-02 
443	 3.88707018295002E-02 
444	 3.92019111378918E-02 
445	 0.039043697375605 
446	 3.90184703526192E-02 
447	 3.93129573057878E-02 
448	 4.01866744821446E-02 
449	 4.06844670779961E-02 
450	 0.040558038407385 
451	 4.04087467758155E-02 
452	 4.05618708478443E-02 
453	 4.12445936334095E-02 
454	 4.12715717408882E-02 
455	 4.08096346935143E-02 
456	 4.09866922315822E-02 
457	 4.12871083622355E-02 
458	 0.041423755636663 
459	 4.08775163102359E-02 
460	 4.05462822993566E-02 
461	 4.14877739350445E-02 
462	 4.17192022958858E-02 
463	 4.12563013717455E-02 
464	 0.041718532264832 
465	 4.17529499257144E-02 
466	 4.09318094405397E-02 
467	 4.13786005662386E-02 
468	 4.23450521786413E-02 
469	 4.24128837562623E-02 
470	 4.21988134736086E-02 
471	 0.042020998545503 
472	 4.25054945328318E-02 
473	 4.27214223935604E-02 
474	 4.22014590832727E-02 
475	 4.23525443464613E-02 
476	 4.27643809841054E-02 
477	 4.23681812763923E-02 
478	 4.22787755029191E-02 
479	 4.26879765264619E-02 
480	 4.30034381654162E-02 
481	 4.31102753928907E-02 
482	 4.29628109003853E-02 
483	 4.30405229862227E-02 
484	 0.043268998726459 
485	 0.04327079298335 
486	 4.31291615272617E-02 
487	 4.29415458636016E-02 
488	 4.30363279083342E-02 
489	 0.043296514432047 
490	 4.35751544814588E-02 
491	 4.39697949548313E-02 
492	 0.044270264508586 
493	 4.38311880910471E-02 
494	 4.36298397015239E-02 
495	 4.40660719065616E-02 
496	 4.46456072235284E-02 
497	 4.51696836202503E-02 
498	 4.54566581670545E-02 
499	 4.54370600133825E-02 
500	 4.52924904107916E-02 
501	 0.045672970209049 
502	 4.60361157837706E-02 
503	 0.046080222418888 
504	 4.61710678048778E-02 
505	 4.64453977515686E-02 
506	 0.04705726323975 
507	 4.75086116353072E-02 
508	 4.77338762028762E-02 
509	 4.81342451410756E-02 
510	 4.85085145984781E-02 
511	 4.87017858630011E-02 
512	 4.88511701000903E-02 
513	 0.049189157487529 
514	 5.03066218404202E-02 
515	 0.050819286889879 
516	 5.04495946245466E-02 
517	 5.07621490556844E-02 
518	 5.14311661991078E-02 
519	 5.19663462160007E-02 
520	 5.23913785615185E-02 
521	 5.28382903444438E-02 
522	 5.37614149259453E-02 
523	 5.43721343116951E-02 
524	 5.44110302133129E-02 
525	 5.47730931881418E-02 
526	 0.055282469198093 
527	 5.55358270085377E-02 
528	 5.62635278154312E-02 
529	 5.72899177545248E-02 
530	 5.74143147823123E-02 
531	 5.74708902375254E-02 
532	 5.80089814508897E-02 
533	 5.86168932002644E-02 
534	 5.91694524331675E-02 
535	 5.95197847816875E-02 
536	 6.00000335225495E-02 
537	 6.07172928684675E-02 
538	 6.16580856609361E-02 
539	 6.23536152461762E-02 
540	 6.23885883078579E-02 
541	 0.0625422356434 
542	 6.29383979618714E-02 
543	 6.34311521191959E-02 
544	 6.39725580609199E-02 
545	 6.45294778087226E-02 
546	 6.51310280975592E-02 
547	 6.56299020765216E-02 
548	 6.58370131220594E-02 
549	 6.61802221797126E-02 
550	 6.66879807318812E-02 
551	 6.70067012475661E-02 
552	 6.75024149630308E-02 
553	 6.83465830448672E-02 
554	 6.89810675681835E-02 
555	 0.069303370327239 
556	 6.92428358199557E-02 
557	 6.96043341937816E-02 
558	 7.04143963361215E-02 
559	 7.04412779343282E-02 
560	 7.02896193688515E-02 
561	 7.05557608785684E-02 
562	 7.09180848826623E-02 
563	 7.12521702248981E-02 
564	 7.14001676750868E-02 
565	 7.14307060981573E-02 
566	 7.14403061158942E-02 
567	 7.18266723717878E-02 
568	 7.22260863124082E-02 
569	 7.21361677913168E-02 
570	 7.22002097895395E-02 
571	 7.23972313939344E-02 
572	 7.20631814390976E-02 
573	 7.18471070202127E-02 
574	 7.21109669653063E-02 
575	 7.23341900351386E-02 
576	 7.24302994992067E-02 
577	 7.23795639820468E-02 
578	 7.23049131280525E-02 
579	 0.07230417099213 
580	 7.26063899776275E-02 
581	 7.27436759669171E-02 
582	 7.23622420762372E-02 
583	 0.072523520469199 
584	 7.30189784833325E-02 
585	 7.27703340794847E-02 
586	 7.26533368696248E-02 
587	 7.29552321897055E-02 
588	 7.31778267055634E-02 
589	 7.32720504289396E-02 
590	 7.32326728450127E-02 
591	 7.30332868162563E-02 
592	 7.28763016771435E-02 
593	 7.34007230080023E-02 
594	 7.38007342483862E-02 
595	 7.36158250906799E-02 
596	 7.32477677208482E-02 
597	 7.30665793678064E-02 
598	 7.36201414495297E-02 
599	 7.40779058461108E-02 
600	 7.41508006494354E-02 
601	 7.38968054030783E-02 
602	 7.35832908945614E-02 
603	 7.34513550533078E-02 
604	 7.34144702565576E-02 
605	 7.33744889805903E-02 
606	 0.073084708924751 
607	 7.29851870301568E-02 
608	 7.31602929437503E-02 
609	 7.29297356545604E-02 
610	 7.26618795885132E-02 
611	 7.28840274563043E-02 
612	 7.24761911631831E-02 
613	 7.15776047730717E-02 
614	 7.15441603926043E-02 
615	 7.17592571165689E-02 
616	 7.18079759160507E-02 
617	 7.15752047203305E-02 
618	 7.11955068138413E-02 
619	 7.09400421067439E-02 
620	 7.06590126589454E-02 
621	 7.03719544620339E-02 
622	 7.02600942199055E-02 
623	 0.070441337753049 
624	 7.09520289733904E-02 
625	 7.09059113363073E-02 
626	 7.04476601277915E-02 
627	 7.04243084983014E-02 
628	 7.03254823156643E-02 
629	 0.070090361055887 
630	 0.070508305856632 
631	 7.09593209968552E-02 
632	 7.06175485970932E-02 
633	 7.05160241286138E-02 
634	 7.07571349537393E-02 
635	 7.08363650935733E-02 
636	 7.08349730467114E-02 
637	 7.07738737610488E-02 
638	 7.04630383687452E-02 
639	 0.070137631924481 
640	 7.02094753330495E-02 
641	 7.08266426280092E-02 
642	 0.071683435588609 
643	 7.13142750852682E-02 
644	 7.08782497711351E-02 
645	 7.13752107364209E-02 
646	 7.15040569613028E-02 
647	 7.11856076133088E-02 
648	 7.08507116480911E-02 
649	 7.05067152492365E-02 
650	 7.02453476153242E-02 
651	 7.03792917898864E-02 
652	 7.04476482175505E-02 
653	 6.98870316249978E-02 
654	 6.93256482322831E-02 
655	 6.88204311599504E-02 
656	 6.81280167914045E-02 
657	 6.72391476775642E-02 
658	 6.62623166900165E-02 
659	 0.065640154088652 
660	 6.51769425415948E-02 
661	 6.45343723813047E-02 
662	 6.35068096246341E-02 
663	 6.21857573546084E-02 
664	 6.12908688537107E-02 
665	 6.03452784140287E-02 
666	 5.89907122039316E-02 
667	 5.81139104210276E-02 
668	 5.76443990883339E-02 
669	 5.69802209309961E-02 
670	 5.65689780465939E-02 
671	 5.64620761383841E-02 
672	 5.60871382622797E-02 
673	 5.56316555809156E-02 
674	 0.055363641180305 
675	 5.53418716583346E-02 
676	 5.54946551283423E-02 
677	 5.55575231326312E-02 
678	 5.55957049917846E-02 
679	 5.57202569841646E-02 
680	 5.64359441857167E-02 
681	 5.74647658949232E-02 
682	 0.058297111625164 
683	 5.89446788922229E-02 
684	 5.95528738123955E-02 
685	 6.07184148735604E-02 
686	 6.22806276655137E-02 
687	 6.40900611343443E-02 
688	 6.61584964254779E-02 
689	 6.83607466782264E-02 
690	 7.09564271125533E-02 
691	 7.32658193418866E-02 
692	 7.52032714480649E-02 
693	 7.71674482749852E-02 
694	 7.94224024083584E-02 
695	 8.20939138088304E-02 
696	 8.45391413247348E-02 
697	 8.66664935870363E-02 
698	 8.86932224301653E-02 
699	 9.07724134353418E-02 
700	 9.29362815934078E-02 
701	 9.49966204135939E-02 
702	 9.68687742675445E-02 
703	 9.84909876351753E-02 
704	 9.99188118581531E-02 
705	 0.101238545338609 
706	 0.102576467465207 
707	 0.103874904585838 
708	 0.105067297838784 
709	 0.105924331674019 
710	 0.106680074895502 
711	 0.10780962956762 
712	 0.109017180304448 
713	 0.11017715335592 
714	 0.111286314617426 
715	 0.112010912575963 
716	 0.112088125295219 
717	 0.112081215026369 
718	 0.112381974694392 
719	 0.113655983037096 
720	 0.114642458341172 
721	 0.114965526595455 
722	 0.115580400572168 
723	 0.116459643719241 
724	 0.117475699559547 
725	 0.118037559400335 
726	 0.118040375144105 
727	 0.117672102213778 
728	 0.118068224293851 
729	 0.119557821991871 
730	 0.119950453793425 
731	 0.119809012536835 
732	 0.12025159263322 
733	 0.121039562669667 
734	 0.12185636734092 
735	 0.12172701021561 
736	 0.121724862667301 
737	 0.122499147751101 
738	 0.123017947190395 
739	 0.123298346666456 
740	 0.123632850980572 
741	 0.124181858244511 
742	 0.124783006353528 
743	 0.124475454390047 
744	 0.124265365591373 
745	 0.124959205006113 
746	 0.125262280177704 
747	 0.125306834807127 
748	 0.125993181961186 
749	 0.12659608606063 
750	 0.126822248087077 
751	 0.126595157707192 
752	 0.12647871247463 
753	 0.127043898903093 
754	 0.127562363161885 
755	 0.127790041088616 
756	 0.127530459692564 
757	 0.127116918914314 
758	 0.126712762681741 
759	 0.126313555301122 
760	 0.126190611658301 
761	 0.127274604477392 
762	 0.127428292798978 
763	 0.126888709826268 
764	 0.12769864085787 
765	 0.128843826431644 
766	 0.129719109775163 
767	 0.129587939289288 
768	 0.129410938624087 
769	 0.130340866114833 
770	 0.130893110725229 
771	 0.130881258157058 
772	 0.13096869956962 
773	 0.131302911267564 
774	 0.131914195550772 
775	 0.132157215172209 
776	 0.132064589394325 
777	 0.131859098573819 
778	 0.131865516478859 
779	 0.132151257433715 
780	 0.132445549919838 
781	 0.132707919751501 
782	 0.132902325505873 
783	 0.132986690036009 
784	 0.13296372909825 
785	 0.132833500231755 
786	 0.132786314498292 
787	 0.132956745272031 
788	 0.133633763957265 
789	 0.134102792358988 
790	 0.133738200486761 
791	 0.133514574089234 
792	 0.133697609483658 
793	 0.13455622364479 
794	 0.134689494217138 
795	 0.133934175602773 
796	 0.134408343559957 
797	 0.13507580458428 
798	 0.134803680092503 
799	 0.1343146490263 
800	 0.133961889876851 
801	 0.134304438043566 
802	 0.134732510171687 
803	 0.134949213760038 
804	 0.134793063186106 
805	 0.134822866503084 
806	 0.135599670864875 
807	 0.135912607072264 
808	 0.135760680992923 
809	 0.1359409625994 
810	 0.135874639645549 
811	 0.135468194810402 
812	 0.135683602069189 
813	 0.136072722695271 
814	 0.135976365179718 
815	 0.136897453218807 
816	 0.138452526334395 
817	 0.138278285744239 
818	 0.138043510837509 
819	 0.138353769395924 
820	 0.138114914841778 
821	 0.137733877159976 
822	 0.137776575287035 
823	 0.138376265796594 
824	 0.139240668928605 
825	 0.139604089530042 
826	 0.139517286105742 
827	 0.139112875304774 
828	 0.139103252864961 
829	 0.139346586794278 
830	 0.139570498355089 
831	 0.139824436846665 
832	 0.14013864274547 
833	 0.140597668501971 
834	 0.141161662738447 
835	 0.141623217753441 
836	 0.140979222335614 
837	 0.140225037712354 
838	 0.140543904848897 
839	 0.141113352231957 
840	 0.141639379368736 
841	 0.141902054359864 
842	 0.141679472509598 
843	 0.141097752513374 
844	 0.141561822853545 
845	 0.14184407101191 
846	 0.140542804866227 
847	 0.1403031852762 
848	 0.141034459894937 
849	 0.140893527692868 
850	 0.140219753145094 
851	 0.139454002059188 
852	 0.140528866070398 
853	 0.14165857453134 
854	 0.140874572303234 
855	 0.140830243232328 
856	 0.14136719426925 
857	 0.140683858819791 
858	 0.140384655756601 
859	 0.140822609020217 
860	 0.140885288422083 
861	 0.140851287462497 
862	 0.140997714250949 
863	 0.140525885716023 
864	 0.140076243177154 
865	 0.14162516190616 
866	 0.14182130109868 
867	 0.140350902720161 
868	 0.141598301145694 
869	 0.142973888108672 
870	 0.142384247987707 
871	 0.142230402962498 
872	 0.142602566237874 
873	 0.142938220628686 
874	 0.143463645175028 
875	 0.144136591726817 
876	 0.144718238257696 
877	 0.144745199717411 
878	 0.144110223515753 
879	 0.144548448333975 
880	 0.145985209755587 
881	 0.147895844444886 
882	 0.148519743040449 
883	 0.14794714066642 
884	 0.148513748780601 
885	 0.148841827377392 
886	 0.148356689686058 
887	 0.148742287701217 
888	 0.149150398164682 
889	 0.14827836511715 
890	 0.148461989241532 
891	 0.149999807753982 
892	 0.152342792435438 
893	 0.152828358872295 
894	 0.150581253624487 
895	 0.149529138911289 
896	 0.149542699007361 
897	 0.150089927524332 
898	 0.152093119079797 
899	 0.154305380472152 
900	 0.153415506703573 
901	 0.152743281179627 
902	 0.153310442561463 
903	 0.154255560023903 
904	 0.154575128650605 
905	 0.153660629166616 
906	 0.153102947444299 
907	 0.153485931674535 
908	 0.155447997689101 
909	 0.155358812604086 
910	 0.153083056997349 
911	 0.152237568508237 
912	 0.153866129502792 
913	 0.157503468133751 
914	 0.156153589994245 
915	 0.153112247840026 
916	 0.153341546795653 
917	 0.155729749715002 
918	 0.158086483042967 
919	 0.154983162316477 
920	 0.153204328157165 
921	 0.154753273889595 
922	 0.156541312866686 
923	 0.156591630619978 
924	 0.153593566374516 
925	 0.15273382118838 
926	 0.153260315802129 
927	 0.151432000390636 
928	 0.149954426394161 
929	 0.150118605376182 
930	 0.153438254425365 
931	 0.155146228465092 
932	 0.151653459941127 
933	 0.149556550329828 
934	 0.150242316723849 
935	 0.153531881345165 
936	 0.148566158301041 
937	 0.141249162278602 
938	 0.154118041327775 
939	 0.15872951996221 
940	 0.150144792061079 
941	 0.150035849135426 
942	 0.151109183097603 
943	 0.148302432082298 
944	 0.149603040465134 
945	 0.152929882383131 
946	 0.153525579573871 
947	 0.148017256765506 
948	 0.140519449507731 
949	 0.146314848490488 
950	 0.15544466075279 
951	 0.160741864144379 
952	 0.151625989539378 
953	 0.140952614572186 
954	 0.141392844076974 
955	 0.148640455434565 
956	 0.154686933072725 
957	 0.146908731314815 
958	 0.146997031705441 
959	 0.154693046072249 
960	 0.148258997332035 
961	 0.14607359041895 
962	 0.154111143806385 
963	 0.154101467900762 
964	 0.151048241560846 
965	 0.151057204104852 
966	 0.151558286724904 
967	 0.152582361734362 
968	 0.155087819562436 
969	 0.155377833763153 
970	 0.153076096543057 
971	 0.150619871821235 
972	 0.15007795648299 
973	 0.152408889746615 
974	 0.155482167765644 
975	 0.157711654874034 
976	 0.157730427916933 
977	 0.155740067789886 
978	 0.153950018875129 
979	 0.156971774110739 
980	 0.157205286049343 
981	 0.154653041008066 
982	 0.158350408171674 
983	 0.161260641603193 
984	 0.159681558708311 
985	 0.156256022591399 
986	 0.153161795596435 
987	 0.152639694091526 
988	 0.156922968437789 
989	 0.162889446316676 
990	 0.16424856158243 
991	 0.160308975875418 
992	 0.15426425654129 
993	 0.157812936305178 
994	 0.163020731222002 
995	 0.165149115967344 
996	 0.162882474690442 
997	 0.160330221113676 
998	 0.161321703576527 
999	 0.158321108267266 
1000	 0.155081699125119 
1001	 0.160255410378282 
1002	 0.159423532716202 
1003	 0.153584541288967 
1004	 0.158656850479314 
1005	 0.162163574975482 
1006	 0.16027361370293 
1007	 0.160896895358311 
1008	 0.163449841666761 
1009	 0.166174639979511 
1010	 0.161883342700904 
1011	 0.156265582604277 
1012	 0.157979681485033 
1013	 0.158976839942025 
1014	 0.158866326171991 
1015	 0.161416038314944 
1016	 0.160926995044423 
1017	 0.156340333332006 
1018	 0.15034424764973 
1019	 0.150883475320007 
1020	 0.160115390674228 
1021	 0.161725894007121 
1022	 0.15994039469629 
1023	 0.160100835968294 
1024	 0.158164547860772 
1025	 0.158961099126048 
1026	 0.170930156858156 
1027	 0.171121831698759 
1028	 0.159324510809669 
1029	 0.151177459062206 
1030	 0.156737372062059 
1031	 0.172533505553705 
1032	 0.164052336986535 
1033	 0.160108860580825 
1034	 0.174371112556687 
1035	 0.163867284798568 
1036	 0.152620340658725 
1037	 0.167099522984215 
1038	 0.164882452383579 
1039	 0.156146046552449 
1040	 0.170170320737003 
1041	 0.166939767816268 
1042	 0.150261931403878 
1043	 0.162112628552155 
1044	 0.170883687340202 
1045	 0.16794652235738 
1046	 0.164477014459652 
1047	 0.162882758466361 
1048	 0.164671408748777 
1049	 0.169075050503097 
1050	 0.166984838976524 
1051	 0.153280005916943 
1052	 0.160574640912813 
1053	 0.168456067997861 
1054	 0.142505270555165 
1055	 0.14029248973182 
1056	 0.155802334228656 
1057	 0.139372406226096 
1058	 0.133188129298088 
1059	 0.146616702296946 
1060	 0.160438204696508 
1061	 0.157813809786123 
1062	 0.136545348088998 
1063	 0.131848851661106 
1064	 0.143348704993153 
1065	 0.165332581193141 
1066	 0.173694506135698 
1067	 0.172289718501234 
1068	 0.168993388438928 
1069	 0.15553536871882 
1070	 0.140063157799119 
1071	 0.1441346969169 
1072	 0.139393577100632 
1073	 0.135802164669697 
1074	 0.171583819886401 
1075	 0.194792823532254 
