Wavelength	SHSI00287.asd
325	 0.104915978205973 
326	 0.103746743711993 
327	 9.86040394778118E-02 
328	 0.106912884058778 
329	 0.108668765988853 
330	 0.099804844555881 
331	 0.101625010534753 
332	 0.103972220303028 
333	 9.65928760955741E-02 
334	 9.32705594810973E-02 
335	 9.44982537720267E-02 
336	 9.58358538601833E-02 
337	 9.54981655071036E-02 
338	 9.38517764402978E-02 
339	 9.57437043953508E-02 
340	 9.92264897260092E-02 
341	 0.101998906846052 
342	 9.74055577137189E-02 
343	 9.22240020860114E-02 
344	 0.101422402441599 
345	 0.105023114020089 
346	 0.100168917250304 
347	 9.69039112263411E-02 
348	 9.83269070558851E-02 
349	 0.104693607935869 
350	 0.102692400139478 
351	 0.097734685978388 
352	 0.100949317439298 
353	 0.102090251023128 
354	 0.100664501514274 
355	 0.104739143662001 
356	 0.107043209750261 
357	 0.103898018661668 
358	 0.104012086187188 
359	 0.10567236085253 
360	 0.104699433255957 
361	 0.105134981072765 
362	 0.106646834303465 
363	 0.105143805633607 
364	 0.103258831320763 
365	 0.102564974447576 
366	 0.102951461422239 
367	 0.104215193884164 
368	 0.106091507515788 
369	 0.107193931483328 
370	 0.10718901503735 
371	 0.1059209470184 
372	 0.106664229701467 
373	 0.110176288618529 
374	 0.108543025555468 
375	 0.104427330004007 
376	 0.102606616741112 
377	 0.101403783315938 
378	 0.10103678906567 
379	 0.103399679548326 
380	 0.10436875437732 
381	 0.102472313416589 
382	 0.103952812046339 
383	 0.105724284078627 
384	 0.103058595890602 
385	 0.101466290878092 
386	 0.101317205270996 
387	 0.09952605081458 
388	 9.75193078235914E-02 
389	 9.63137897047512E-02 
390	 9.78438880341278E-02 
391	 0.100288603153677 
392	 0.101320466649443 
393	 0.101148258438257 
394	 9.97819950531987E-02 
395	 9.71840322728511E-02 
396	 9.55552661299476E-02 
397	 9.52806720645649E-02 
398	 9.33780661132964E-02 
399	 9.09644988571146E-02 
400	 8.93529140570719E-02 
401	 8.99516701563989E-02 
402	 9.22677329201595E-02 
403	 9.48485694858011E-02 
404	 9.61768158903254E-02 
405	 9.58093783428979E-02 
406	 9.56871389997921E-02 
407	 9.56505078265973E-02 
408	 9.52667811000072E-02 
409	 9.47039523720135E-02 
410	 9.43054992860641E-02 
411	 9.49809512996638E-02 
412	 0.095306923982092 
413	 9.46987136184508E-02 
414	 9.40633351165229E-02 
415	 9.38085599345705E-02 
416	 9.43212350952431E-02 
417	 9.41182049594092E-02 
418	 9.33848278859787E-02 
419	 9.38782943214824E-02 
420	 9.43641214421998E-02 
421	 0.094230974660247 
422	 9.42811045475293E-02 
423	 9.42340400888819E-02 
424	 9.35488814576344E-02 
425	 9.33196892898213E-02 
426	 9.37860718617452E-02 
427	 9.48181853958009E-02 
428	 9.52375856466168E-02 
429	 9.43786134018661E-02 
430	 9.37596812677231E-02 
431	 9.32377173103925E-02 
432	 0.092187461757746 
433	 9.17631776088072E-02 
434	 9.20194439699711E-02 
435	 9.19126064674927E-02 
436	 9.22530148063825E-02 
437	 9.34048812502751E-02 
438	 9.34642461935686E-02 
439	 9.29035765732555E-02 
440	 9.31145465912688E-02 
441	 9.31746513903044E-02 
442	 9.29013998478641E-02 
443	 9.24875778033342E-02 
444	 9.27408780865383E-02 
445	 9.41191182158051E-02 
446	 9.41780532973575E-02 
447	 0.093399459803159 
448	 9.37619607322384E-02 
449	 9.43087498426182E-02 
450	 9.47524304062713E-02 
451	 9.51325389688074E-02 
452	 0.095610548751396 
453	 9.63234699931962E-02 
454	 9.67988003559721E-02 
455	 9.69595438314306E-02 
456	 9.69341326271986E-02 
457	 9.65507157014177E-02 
458	 9.59984656892757E-02 
459	 0.096609841420375 
460	 9.75130208016708E-02 
461	 9.75626124287023E-02 
462	 0.097260836106655 
463	 9.70028995381616E-02 
464	 9.76857379771512E-02 
465	 9.81514902262635E-02 
466	 9.79411858370059E-02 
467	 9.85223835547235E-02 
468	 9.91499021115383E-02 
469	 9.85329984148799E-02 
470	 9.80118479558954E-02 
471	 9.79809560713155E-02 
472	 9.84224382038574E-02 
473	 9.90076583156066E-02 
474	 9.94419520213602E-02 
475	 9.92617861673176E-02 
476	 9.89203170823838E-02 
477	 9.93309983355908E-02 
478	 9.94056247916696E-02 
479	 9.90633882169789E-02 
480	 9.92991654103274E-02 
481	 9.97446049902294E-02 
482	 0.100092874456884 
483	 0.100562788127045 
484	 0.10118306107501 
485	 0.102106435664737 
486	 0.102016848427568 
487	 0.100757342347366 
488	 0.100256787808932 
489	 0.100270976812289 
490	 0.100409076365305 
491	 0.101017737938033 
492	 0.101609288419872 
493	 0.100695222382376 
494	 0.100200204408031 
495	 0.100867917291143 
496	 0.101470230911097 
497	 0.102140298395597 
498	 0.103204932197534 
499	 0.103505602113243 
500	 0.103257820271425 
501	 0.104343287728855 
502	 0.104865767119048 
503	 0.10391764761576 
504	 0.103875841778419 
505	 0.104455832265011 
506	 0.104630863966971 
507	 0.105209188914096 
508	 0.106261600806501 
509	 0.107198848891925 
510	 0.108136518576794 
511	 0.109137292760251 
512	 0.109682886130262 
513	 0.110040312226966 
514	 0.111057759623949 
515	 0.111845652633919 
516	 0.112141811640762 
517	 0.112432406141485 
518	 0.112745861089425 
519	 0.113064333288724 
520	 0.113017324747311 
521	 0.113028080529338 
522	 0.114421262853193 
523	 0.115789425727117 
524	 0.116548458649977 
525	 0.117570696533323 
526	 0.118484114668313 
527	 0.11864653642275 
528	 0.118773607194428 
529	 0.119186623081545 
530	 0.120204838941756 
531	 0.12144493077587 
532	 0.122552448690084 
533	 0.122880413658485 
534	 0.122778403944922 
535	 0.123060122417848 
536	 0.123765804631653 
537	 0.12482934367559 
538	 0.125748599697857 
539	 0.126494186555223 
540	 0.127062454294385 
541	 0.127433038075182 
542	 0.127741067637045 
543	 0.128299188392588 
544	 0.128985379572583 
545	 0.12969923510218 
546	 0.13010045540472 
547	 0.13059940754412 
548	 0.13176102916456 
549	 0.132234257216628 
550	 0.13205006794298 
551	 0.132482251031681 
552	 0.133126200757752 
553	 0.133763780586099 
554	 0.134808837197085 
555	 0.135848963825832 
556	 0.136044791116508 
557	 0.136269709431472 
558	 0.136708241170554 
559	 0.136839809252431 
560	 0.136799391704674 
561	 0.136771645871544 
562	 0.137270259589678 
563	 0.138145001570811 
564	 0.138801895372931 
565	 0.13922315581857 
566	 0.139374054362058 
567	 0.1392939437598 
568	 0.139310988877687 
569	 0.139819016402327 
570	 0.13999946129291 
571	 0.139832495090712 
572	 0.139972603886146 
573	 0.140276303375982 
574	 0.140624083987076 
575	 0.14070451528347 
576	 0.140746068732485 
577	 0.141266796161529 
578	 0.141539915584052 
579	 0.141490498500951 
580	 0.14184187098897 
581	 0.142385873582038 
582	 0.142879415790302 
583	 0.142943735164249 
584	 0.142711780069456 
585	 0.142674638056015 
586	 0.142819281587539 
587	 0.143097115113541 
588	 0.143101334147839 
589	 0.142972231956048 
590	 0.142949870397146 
591	 0.143165863577958 
592	 0.143482704377251 
593	 0.143310681562079 
594	 0.143346776375611 
595	 0.143948388270779 
596	 0.144421566673871 
597	 0.144821739117249 
598	 0.145497759829135 
599	 0.14519425104664 
600	 0.144052027612158 
601	 0.144425427670327 
602	 0.145123980256472 
603	 0.145055722456694 
604	 0.145142770236873 
605	 0.145339368330722 
606	 0.145035123280772 
607	 0.145288389641177 
608	 0.146247251363609 
609	 0.146123082597238 
610	 0.145306357455679 
611	 0.144510516656157 
612	 0.144304351675241 
613	 0.144552839348145 
614	 0.144204957295213 
615	 0.143803061844972 
616	 0.143652618674524 
617	 0.143370549897037 
618	 0.143149754697207 
619	 0.143401209009854 
620	 0.143639529990755 
621	 0.143680936267323 
622	 0.14348289558256 
623	 0.143194390583183 
624	 0.14296941992053 
625	 0.142937809927609 
626	 0.143074907176546 
627	 0.143237851549851 
628	 0.143445097541552 
629	 0.143677575083659 
630	 0.143944317697574 
631	 0.143899574352616 
632	 0.143144912838518 
633	 0.143158324524073 
634	 0.143956750995116 
635	 0.144363101570796 
636	 0.144564590069133 
637	 0.144655912556216 
638	 0.144606347662466 
639	 0.1446269332966 
640	 0.145082212357666 
641	 0.145509168634589 
642	 0.145743597853309 
643	 0.14583798652195 
644	 0.145830453978207 
645	 0.145769342730911 
646	 0.145856765050621 
647	 0.145955768710384 
648	 0.145522323380691 
649	 0.145518881421466 
650	 0.146062893481268 
651	 0.145475547270931 
652	 0.144563323754921 
653	 0.144433521408437 
654	 0.144482024986225 
655	 0.144289811004027 
656	 0.143028990327083 
657	 0.141358105024911 
658	 0.139865974557155 
659	 0.138939833494258 
660	 0.138288513848913 
661	 0.13745927262332 
662	 0.135983625925476 
663	 0.134029796414585 
664	 0.133005565811617 
665	 0.131977639468796 
666	 0.130234837489364 
667	 0.129472155268554 
668	 0.129325765561425 
669	 0.128233920594385 
670	 0.126899947270365 
671	 0.125724993127042 
672	 0.125485360973164 
673	 0.125649412540832 
674	 0.125530835025127 
675	 0.125432339823251 
676	 0.125524093392946 
677	 0.126188908423975 
678	 0.126742938900878 
679	 0.126928195352852 
680	 0.127775250757712 
681	 0.128996459096809 
682	 0.129930271743027 
683	 0.131359700933235 
684	 0.13345230851973 
685	 0.136147935272425 
686	 0.13887328290751 
687	 0.141084332506347 
688	 0.143622002709368 
689	 0.146580594089519 
690	 0.150382542816536 
691	 0.153878852884879 
692	 0.157037693717747 
693	 0.161427556355463 
694	 0.165976252186466 
695	 0.169329262762371 
696	 0.172642247139643 
697	 0.176168056637725 
698	 0.180150881449944 
699	 0.183688837304968 
700	 0.186414733058586 
701	 0.189577129086215 
702	 0.192981139809497 
703	 0.196191165387482 
704	 0.198917891419777 
705	 0.201135505843281 
706	 0.202827136675633 
707	 0.204911696005385 
708	 0.207833881492185 
709	 0.209947282922283 
710	 0.211639034653677 
711	 0.214047064820961 
712	 0.216493396992918 
713	 0.218683172704192 
714	 0.220415428359765 
715	 0.221604474252638 
716	 0.222300044132893 
717	 0.223712694973387 
718	 0.225960457417655 
719	 0.228075272191521 
720	 0.2295564718417 
721	 0.230304421278863 
722	 0.231091953895099 
723	 0.23225573971914 
724	 0.234058603609128 
725	 0.235604409681628 
726	 0.236737768570376 
727	 0.238247072157159 
728	 0.239075652448612 
729	 0.238980771464808 
730	 0.240095164380559 
731	 0.241803392832901 
732	 0.242916710793295 
733	 0.244009320427686 
734	 0.245185529681818 
735	 0.246407519247734 
736	 0.247353886098349 
737	 0.247845511002089 
738	 0.248660130381407 
739	 0.249710233415074 
740	 0.250602861903281 
741	 0.2515215974657 
742	 0.25242901396187 
743	 0.252961051234304 
744	 0.253601977550279 
745	 0.254707871976995 
746	 0.255225655684183 
747	 0.255456447857958 
748	 0.256600792162138 
749	 0.257542431701058 
750	 0.258033932942346 
751	 0.259135442640074 
752	 0.260000661803232 
753	 0.259736859713866 
754	 0.26002669286334 
755	 0.260995809511061 
756	 0.262218390666934 
757	 0.261945456777268 
758	 0.259731514885508 
759	 0.259812477104903 
760	 0.262900612562993 
761	 0.266430601996814 
762	 0.267399228926599 
763	 0.26677489037999 
764	 0.268746540851841 
765	 0.270458790351468 
766	 0.270996724279337 
767	 0.27164162711509 
768	 0.272229519331922 
769	 0.272421426680828 
770	 0.272675142898217 
771	 0.273027633020523 
772	 0.273044856854775 
773	 0.27365728412229 
774	 0.27531561474522 
775	 0.276193756913077 
776	 0.276497907287213 
777	 0.277117845218922 
778	 0.277663991182156 
779	 0.278225763217761 
780	 0.27958171756935 
781	 0.280738891580871 
782	 0.280979361930238 
783	 0.281601925109226 
784	 0.282567475490406 
785	 0.283329125871635 
786	 0.284032336130382 
787	 0.284627020370504 
788	 0.28470532110792 
789	 0.284854677466868 
790	 0.28559840095566 
791	 0.286092896735671 
792	 0.286533086212696 
793	 0.2878780195155 
794	 0.288614616288291 
795	 0.288480621583541 
796	 0.289161550130926 
797	 0.290041593288354 
798	 0.290433389839885 
799	 0.290913865086566 
800	 0.291705181490718 
801	 0.293219983669173 
802	 0.294029237928203 
803	 0.293841165501753 
804	 0.294643342029037 
805	 0.295588427289385 
806	 0.295670048514524 
807	 0.296400511823298 
808	 0.297510900098832 
809	 0.297250738579124 
810	 0.297457704116873 
811	 0.298649298862307 
812	 0.298670876766825 
813	 0.298250608129352 
814	 0.298593201269906 
815	 0.299767598762204 
816	 0.301677110066227 
817	 0.303901555324354 
818	 0.305658528972126 
819	 0.306491981061414 
820	 0.306332725411982 
821	 0.306171933562964 
822	 0.307129529348216 
823	 0.3087632619976 
824	 0.310361675408893 
825	 0.310452075238488 
826	 0.310481195105191 
827	 0.311050012143765 
828	 0.311605289102869 
829	 0.31211206754524 
830	 0.312595731483599 
831	 0.313870027529831 
832	 0.315670771426845 
833	 0.316925219463047 
834	 0.317328201536366 
835	 0.316964585695034 
836	 0.317151509841498 
837	 0.31789738222487 
838	 0.319031543085418 
839	 0.319510018732895 
840	 0.319550535807555 
841	 0.320494772708186 
842	 0.321479337652515 
843	 0.322039108470533 
844	 0.321865572343695 
845	 0.321220342297289 
846	 0.320501421787508 
847	 0.321264969277457 
848	 0.322920073743343 
849	 0.322853641802563 
850	 0.322219933885103 
851	 0.321876662009474 
852	 0.323845573226472 
853	 0.326251291840487 
854	 0.326942452716975 
855	 0.327592399793454 
856	 0.327791438670732 
857	 0.325362307235662 
858	 0.325079372022361 
859	 0.327778672144844 
860	 0.328539228633407 
861	 0.328267087606454 
862	 0.32811598078769 
863	 0.328201415811446 
864	 0.328779261357646 
865	 0.330233439454124 
866	 0.332055354451616 
867	 0.333695161767631 
868	 0.333954775297457 
869	 0.333843879402015 
870	 0.334250776117376 
871	 0.334996860812212 
872	 0.335422133475247 
873	 0.334111201612768 
874	 0.335222438655391 
875	 0.33898677466943 
876	 0.340786843765453 
877	 0.341562914904024 
878	 0.342182470545561 
879	 0.3435482844804 
880	 0.345206362892942 
881	 0.34617932945352 
882	 0.347159335694185 
883	 0.348186484107795 
884	 0.348708954563338 
885	 0.349526047897916 
886	 0.350971257574394 
887	 0.352113538695973 
888	 0.352486476010601 
889	 0.351697550918452 
890	 0.352443017071993 
891	 0.354157697839052 
892	 0.352805618907597 
893	 0.351860642208168 
894	 0.352936307369077 
895	 0.354740348396297 
896	 0.356984821995582 
897	 0.359324723544138 
898	 0.360786201010619 
899	 0.36222373590936 
900	 0.36666393216104 
901	 0.36860799328802 
902	 0.366688790549028 
903	 0.363535899013375 
904	 0.362278571709998 
905	 0.364767111978454 
906	 0.364903695947715 
907	 0.364629725844895 
908	 0.369242774172886 
909	 0.369172020619804 
910	 0.364337397827181 
911	 0.365728924893743 
912	 0.367649376941312 
913	 0.367444053145264 
914	 0.37049328689712 
915	 0.37494236579543 
916	 0.377811887912665 
917	 0.377332537696512 
918	 0.374176925532263 
919	 0.370650688878273 
920	 0.370164503376025 
921	 0.372765490139974 
922	 0.371316475593425 
923	 0.369392886452131 
924	 0.370190424714805 
925	 0.369945815089054 
926	 0.367364881268741 
927	 0.360787093246544 
928	 0.359052736647096 
929	 0.364045640208626 
930	 0.366302169877539 
931	 0.366483230864235 
932	 0.366181221249857 
933	 0.376549332451063 
934	 0.386277893210292 
935	 0.377564449250419 
936	 0.379269571374751 
937	 0.387839252337649 
938	 0.375596358686469 
939	 0.367141637486083 
940	 0.36883521136461 
941	 0.37343062096383 
942	 0.376124225983618 
943	 0.37383043797352 
944	 0.371721644816571 
945	 0.369750974062472 
946	 0.366588334401078 
947	 0.366366208091378 
948	 0.368860704787128 
949	 0.369702548142706 
950	 0.369903011052805 
951	 0.370121386306867 
952	 0.372097771315749 
953	 0.372813407516844 
954	 0.369958070372412 
955	 0.369091950010217 
956	 0.367980285775547 
957	 0.360509777237088 
958	 0.362794161601927 
959	 0.373921629506636 
960	 0.376676934165516 
961	 0.37765878385712 
962	 0.379964881381827 
963	 0.383375088187843 
964	 0.383224460364818 
965	 0.375948318521548 
966	 0.376353625228695 
967	 0.380796881632201 
968	 0.376971803701431 
969	 0.375269668338111 
970	 0.375732842399079 
971	 0.367238443526912 
972	 0.363106689060437 
973	 0.369513975031091 
974	 0.375914782563609 
975	 0.379182644101884 
976	 0.377732842497814 
977	 0.382989311046254 
978	 0.389550067928226 
979	 0.381179553241894 
980	 0.377578088510635 
981	 0.381758805464456 
982	 0.380514196231605 
983	 0.380506300762317 
984	 0.384084238012922 
985	 0.382274622414757 
986	 0.380640586544997 
987	 0.385225308018985 
988	 0.38319190386201 
989	 0.378356308758688 
990	 0.382600759184135 
991	 0.389946577276374 
992	 0.395421242619551 
993	 0.387156915251411 
994	 0.382085480762339 
995	 0.387233931963446 
996	 0.389562546019416 
997	 0.385153040997688 
998	 0.372959811513507 
999	 0.374411052687772 
1000	 0.384717216599231 
1001	 0.389115453540211 
1002	 0.390721824965844 
1003	 0.39188973562196 
1004	 0.400110464006753 
1005	 0.401277539048309 
1006	 0.392528327753979 
1007	 0.39064206470482 
1008	 0.392170477310229 
1009	 0.393280504701642 
1010	 0.390140327059981 
1011	 0.38970564210486 
1012	 0.401467008022144 
1013	 0.402428223764356 
1014	 0.396334072146151 
1015	 0.405166631891726 
1016	 0.407520669176726 
1017	 0.400708591040863 
1018	 0.401588706845067 
1019	 0.400814357780798 
1020	 0.395164602120954 
1021	 0.400114075441776 
1022	 0.399981479614474 
1023	 0.381342646593734 
1024	 0.382459322860479 
1025	 0.396380144042744 
1026	 0.401188911942247 
1027	 0.405738619076333 
1028	 0.409280706367563 
1029	 0.405723947506403 
1030	 0.395494730174898 
1031	 0.385050928051256 
1032	 0.402391422529401 
1033	 0.417910076964737 
1034	 0.413805389134731 
1035	 0.412572885163427 
1036	 0.412425783825578 
1037	 0.410422738515185 
1038	 0.420192375743073 
1039	 0.432214734667828 
1040	 0.427127627778578 
1041	 0.417074673201658 
1042	 0.404210208928539 
1043	 0.383159786554638 
1044	 0.384128200785431 
1045	 0.40965310303027 
1046	 0.420548925677488 
1047	 0.413901483257364 
1048	 0.392480887402545 
1049	 0.381302274997106 
1050	 0.382381216816682 
1051	 0.394033268955438 
1052	 0.412725686014174 
1053	 0.416413897173877 
1054	 0.37600532577949 
1055	 0.369506587224924 
1056	 0.390335091052393 
1057	 0.382360085529763 
1058	 0.385448395918117 
1059	 0.400005135183711 
1060	 0.383827803482992 
1061	 0.394141816885072 
1062	 0.439683569795322 
1063	 0.413981718671599 
1064	 0.378926128319462 
1065	 0.382339536308742 
1066	 0.404752322185868 
1067	 0.409190031262396 
1068	 0.363989916139634 
1069	 0.35069877767165 
1070	 0.360084210987999 
1071	 0.346692631880883 
1072	 0.385855837843548 
1073	 0.448223566029495 
1074	 0.458146050302032 
1075	 0.41550227573016 
