Wavelength	SHSI00216.asd
325	 0.100170321568093 
326	 0.101189343612218 
327	 0.117596750152673 
328	 0.11993422471613 
329	 0.110739927201496 
330	 9.57969503415944E-02 
331	 0.098587927118679 
332	 0.106783626628863 
333	 0.107644176694326 
334	 0.108271107838376 
335	 0.109142264078279 
336	 0.109728224487128 
337	 0.105536216749732 
338	 9.75656850858427E-02 
339	 9.56167387975776E-02 
340	 9.85863424767679E-02 
341	 0.104251699488045 
342	 0.10343691361065 
343	 0.101199788741517 
344	 0.110464615837559 
345	 0.113257853386673 
346	 0.107839340926378 
347	 0.106276404708375 
348	 0.107594638290535 
349	 0.110330315664445 
350	 0.110532078698232 
351	 0.109533956017152 
352	 0.110288716172403 
353	 0.110414667023031 
354	 0.109881140095846 
355	 0.110575484672481 
356	 0.111614753954919 
357	 0.112525259017848 
358	 0.114561196808359 
359	 0.115767499374774 
360	 0.113150394887573 
361	 0.112119850353087 
362	 0.113024149027436 
363	 0.112162392204331 
364	 0.111273461712857 
365	 0.111423949415365 
366	 0.112922641981974 
367	 0.11539945443183 
368	 0.118324717084911 
369	 0.118397952553567 
370	 0.116443802933521 
371	 0.117703658999818 
372	 0.120939507986788 
373	 0.124423855096054 
374	 0.121707992582276 
375	 0.117329205705399 
376	 0.118255947957846 
377	 0.116311633898661 
378	 0.112110657372322 
379	 0.113492409838205 
380	 0.115966040335809 
381	 0.117228168898333 
382	 0.119009741935471 
383	 0.119260662249319 
384	 0.11531660948065 
385	 0.113262619382065 
386	 0.113425163711563 
387	 0.111689094656495 
388	 0.110481407399306 
389	 0.110816810599445 
390	 0.11212504551663 
391	 0.113648268601689 
392	 0.114571909452134 
393	 0.114709021018065 
394	 0.113892354609268 
395	 0.111820515415222 
396	 0.110318180042161 
397	 0.10965390512544 
398	 0.106769300772086 
399	 0.104277323491882 
400	 0.104796476099254 
401	 0.10562403045562 
402	 0.106612118224617 
403	 0.109146894095061 
404	 0.110310860403865 
405	 0.109325443290108 
406	 0.109630137847574 
407	 0.11055079075667 
408	 0.110869686688481 
409	 0.109828999730451 
410	 0.108223538736936 
411	 0.108775801960406 
412	 0.109318225575788 
413	 0.108936420170075 
414	 0.108847530992465 
415	 0.108945659258236 
416	 0.108953180177592 
417	 0.108718085281364 
418	 0.108517469479278 
419	 0.109531428446867 
420	 0.109569582342223 
421	 0.107875876423602 
422	 0.108065057124301 
423	 0.109208241239106 
424	 0.109367804928598 
425	 0.109346244236287 
426	 0.109462111938883 
427	 0.110316193811894 
428	 0.110760934483616 
429	 0.110134258852533 
430	 0.109735424295789 
431	 0.109381717503912 
432	 0.108473348288872 
433	 0.107727309550047 
434	 0.107396694965579 
435	 0.107441929565672 
436	 0.108317542988458 
437	 0.110040095149217 
438	 0.109940256656938 
439	 0.108942711808419 
440	 0.109451096902383 
441	 0.110058059702124 
442	 0.110387119436836 
443	 0.11052350999482 
444	 0.110930947797364 
445	 0.111880645438529 
446	 0.111985556243976 
447	 0.11159485262306 
448	 0.111948766253359 
449	 0.112607913721727 
450	 0.11339937554525 
451	 0.114108150876356 
452	 0.114760491032737 
453	 0.115415583937955 
454	 0.116440672403849 
455	 0.117458401548053 
456	 0.117312409782685 
457	 0.116870992969046 
458	 0.116652977598182 
459	 0.11727852724152 
460	 0.118102006035441 
461	 0.118305748877925 
462	 0.118252390716756 
463	 0.118258560549636 
464	 0.119045177640387 
465	 0.119785447751156 
466	 0.120106894294315 
467	 0.120756161370598 
468	 0.121431347604702 
469	 0.12160202185108 
470	 0.121155665284755 
471	 0.12052876037271 
472	 0.121186990713032 
473	 0.122309640741513 
474	 0.123215172802114 
475	 0.122954217527438 
476	 0.122429406802605 
477	 0.12346385656021 
478	 0.124056377970094 
479	 0.123903121293093 
480	 0.124271270968971 
481	 0.124901278476853 
482	 0.125547516570627 
483	 0.126146227666355 
484	 0.126616540943842 
485	 0.126856705482488 
486	 0.126823359501391 
487	 0.126526672959937 
488	 0.126086493684042 
489	 0.125634161172778 
490	 0.125323410392379 
491	 0.126042002166621 
492	 0.127218169758313 
493	 0.126875976882264 
494	 0.126576281819671 
495	 0.126999042121567 
496	 0.127742405908287 
497	 0.128800426767908 
498	 0.130210401098532 
499	 0.130952897204383 
500	 0.131102503530304 
501	 0.131947996700621 
502	 0.132522669422748 
503	 0.132375594278308 
504	 0.13271748502713 
505	 0.133474691339621 
506	 0.134229732435028 
507	 0.135303390204463 
508	 0.136710139359845 
509	 0.138179152411871 
510	 0.139701367756653 
511	 0.141220435188025 
512	 0.142100541203222 
513	 0.142709475124582 
514	 0.144150369320527 
515	 0.145479025469631 
516	 0.146384162568945 
517	 0.147202338864133 
518	 0.147863074009934 
519	 0.148285175750442 
520	 0.148693666094803 
521	 0.149354695781399 
522	 0.150754032539755 
523	 0.152463507491708 
524	 0.154234117541248 
525	 0.155906385803397 
526	 0.157324724569597 
527	 0.158319324885319 
528	 0.158710095941694 
529	 0.158900425708855 
530	 0.160238700823648 
531	 0.162045473595276 
532	 0.163744450628489 
533	 0.164523789385921 
534	 0.164885235293233 
535	 0.166052070568997 
536	 0.167242539225232 
537	 0.168323637210221 
538	 0.169800755003853 
539	 0.171213767221372 
540	 0.172100333016623 
541	 0.172633949458614 
542	 0.173171642052003 
543	 0.174542381844168 
544	 0.17589050615811 
545	 0.176841977907449 
546	 0.177519752598783 
547	 0.17828167955284 
548	 0.179564025949258 
549	 0.180677121591207 
550	 0.18145081812983 
551	 0.181914677407435 
552	 0.18257784726421 
553	 0.183737795079958 
554	 0.184913035145724 
555	 0.185958236959915 
556	 0.186748067378598 
557	 0.187617039370193 
558	 0.188550418577965 
559	 0.188986278487351 
560	 0.189222951234987 
561	 0.189593598982129 
562	 0.190482638904696 
563	 0.191675498307126 
564	 0.192516172541122 
565	 0.192847054267152 
566	 0.192712723355255 
567	 0.19295942574909 
568	 0.193473216247462 
569	 0.193996300238854 
570	 0.194294418534677 
571	 0.194403553441213 
572	 0.194708884675324 
573	 0.194980789671091 
574	 0.19517168127057 
575	 0.19606592817558 
576	 0.197136369874343 
577	 0.197216488911719 
578	 0.197552464603552 
579	 0.198339152066006 
580	 0.19865274705605 
581	 0.19873730859437 
582	 0.198875549181289 
583	 0.19955107088777 
584	 0.200365114758182 
585	 0.199993835123362 
586	 0.199894998214415 
587	 0.200573374337931 
588	 0.201180256321021 
589	 0.201529514633782 
590	 0.201479553113859 
591	 0.201403145858532 
592	 0.201424475532785 
593	 0.201521290023069 
594	 0.201780959089395 
595	 0.202239176627554 
596	 0.202716149072825 
597	 0.203253746708711 
598	 0.204016757403074 
599	 0.204421406479927 
600	 0.204320071595387 
601	 0.203955249128175 
602	 0.203690588142841 
603	 0.203843963676881 
604	 0.204381422163177 
605	 0.205014439220954 
606	 0.205113180268293 
607	 0.204954135235051 
608	 0.204672258086783 
609	 0.204492829127828 
610	 0.204174174839364 
611	 0.203395002748171 
612	 0.20293707910353 
613	 0.20276533307333 
614	 0.202035398131885 
615	 0.20143818062329 
616	 0.201346925193281 
617	 0.201070637071401 
618	 0.200759490840816 
619	 0.200821861526868 
620	 0.201069670892953 
621	 0.201299200955659 
622	 0.200956115578761 
623	 0.200450104858057 
624	 0.200183778387018 
625	 0.200173108907739 
626	 0.200322662817356 
627	 0.200294520748151 
628	 0.200634406460485 
629	 0.201439301283287 
630	 0.202008580328722 
631	 0.202161134843623 
632	 0.201779033109404 
633	 0.201445986076547 
634	 0.201442651629986 
635	 0.202124883820937 
636	 0.202577183544705 
637	 0.202374643911718 
638	 0.202909296452564 
639	 0.20384400107546 
640	 0.204276670657137 
641	 0.204450115009531 
642	 0.204472103944878 
643	 0.204522747623524 
644	 0.204819310503591 
645	 0.205488023744631 
646	 0.205618388926353 
647	 0.205335132494507 
648	 0.205554475918963 
649	 0.205212806220922 
650	 0.204126723024477 
651	 0.20365351315676 
652	 0.203643567059502 
653	 0.203760435372561 
654	 0.20319196212709 
655	 0.201673678615793 
656	 0.199409501042712 
657	 0.196994692377504 
658	 0.194917247499176 
659	 0.192899367306499 
660	 0.190933554362041 
661	 0.189108983381996 
662	 0.187419469311861 
663	 0.185611647885914 
664	 0.182667069871607 
665	 0.179892262520158 
666	 0.178323441714959 
667	 0.176547957384918 
668	 0.174563526935129 
669	 0.172993011130027 
670	 0.171252189442887 
671	 0.16943340551618 
672	 0.169195978284622 
673	 0.169332879531702 
674	 0.168354300484796 
675	 0.168093678587153 
676	 0.168699330420642 
677	 0.169426736536605 
678	 0.169789889596455 
679	 0.16974185651284 
680	 0.171070881195638 
681	 0.173290781054406 
682	 0.175269265159279 
683	 0.178023707965848 
684	 0.181593000351687 
685	 0.185263018666847 
686	 0.189337928276844 
687	 0.194030820559655 
688	 0.199444197099506 
689	 0.20483594738807 
690	 0.209777921929972 
691	 0.214894805361387 
692	 0.22068855653156 
693	 0.228023450677207 
694	 0.235313707173522 
695	 0.240628001449374 
696	 0.245949673904742 
697	 0.251611715403921 
698	 0.257631762626018 
699	 0.263222997977562 
700	 0.268058454830155 
701	 0.273640262447911 
702	 0.279024083615386 
703	 0.282780121397833 
704	 0.286199984759334 
705	 0.289792232058726 
706	 0.293960566556344 
707	 0.297541793552653 
708	 0.299884426098436 
709	 0.302500630387155 
710	 0.305297653484247 
711	 0.307605024158134 
712	 0.310442986457934 
713	 0.313791192516088 
714	 0.316209724037994 
715	 0.31825480929021 
716	 0.320608154323202 
717	 0.323013517012025 
718	 0.32550358671218 
719	 0.328056283940833 
720	 0.329586565141654 
721	 0.330072245620861 
722	 0.33126196553333 
723	 0.33313216167806 
724	 0.335482080631222 
725	 0.337142281486542 
726	 0.338110842363857 
727	 0.33988898898608 
728	 0.341214671960768 
729	 0.341727759925574 
730	 0.343528550591402 
731	 0.345641946826657 
732	 0.346453870237442 
733	 0.346949186587099 
734	 0.347543026156412 
735	 0.348727238737839 
736	 0.349944406098205 
737	 0.35082253120586 
738	 0.351996562123753 
739	 0.353159978239362 
740	 0.353545239151009 
741	 0.354337045366685 
742	 0.355723097844257 
743	 0.356876500078618 
744	 0.357692716822288 
745	 0.358136869428121 
746	 0.358523324531785 
747	 0.359010179504567 
748	 0.359728069967722 
749	 0.36088884504779 
750	 0.362401830617434 
751	 0.363464041479958 
752	 0.364072742003955 
753	 0.364348182878761 
754	 0.365436471582316 
755	 0.366918840730909 
756	 0.367160688193523 
757	 0.365781132937994 
758	 0.363066727049908 
759	 0.363871386189677 
760	 0.369601407167761 
761	 0.376479162293453 
762	 0.379031173291935 
763	 0.378134819723095 
764	 0.379747470361316 
765	 0.380708659739036 
766	 0.380155969009525 
767	 0.379379672054444 
768	 0.378820880192458 
769	 0.378854827435027 
770	 0.379357942283147 
771	 0.380137080980853 
772	 0.380527894045651 
773	 0.381313771317242 
774	 0.382863681387228 
775	 0.383575139064328 
776	 0.383773863969649 
777	 0.384483077040834 
778	 0.385164274325545 
779	 0.385783458407032 
780	 0.386786667898233 
781	 0.387870477584711 
782	 0.388727922431199 
783	 0.388785228759847 
784	 0.388834167121855 
785	 0.390831224176952 
786	 0.391936194619894 
787	 0.391597289217277 
788	 0.392074917230391 
789	 0.393037448582752 
790	 0.394048404829695 
791	 0.39488787437718 
792	 0.395615400143376 
793	 0.396618347099763 
794	 0.397015017836454 
795	 0.396848494923419 
796	 0.398070259777073 
797	 0.399235200957162 
798	 0.398912035565273 
799	 0.399508295238734 
800	 0.401098206863793 
801	 0.402697395077215 
802	 0.403578663050932 
803	 0.40356066387041 
804	 0.403826600215528 
805	 0.404287937406224 
806	 0.404748316489996 
807	 0.405221966256351 
808	 0.405787035785749 
809	 0.406636561026011 
810	 0.407745032279209 
811	 0.40891313651117 
812	 0.40901373437862 
813	 0.409022863853302 
814	 0.41035025820811 
815	 0.412791574225249 
816	 0.415851904961186 
817	 0.418463012431323 
818	 0.419574491982119 
819	 0.418914413207984 
820	 0.417429437682398 
821	 0.417166195672978 
822	 0.420309664369121 
823	 0.423482145144684 
824	 0.424972540376988 
825	 0.422757825399566 
826	 0.421569702716571 
827	 0.423206952672957 
828	 0.425037833417511 
829	 0.425889308527414 
830	 0.424764016828424 
831	 0.425514519039505 
832	 0.427889216399342 
833	 0.42868787883268 
834	 0.428567693549745 
835	 0.428106447301782 
836	 0.429351373427445 
837	 0.430258473788389 
838	 0.428497485183738 
839	 0.428701317926384 
840	 0.430592256527086 
841	 0.430476471185512 
842	 0.430225496433735 
843	 0.430533172056522 
844	 0.430830670901165 
845	 0.431022017743021 
846	 0.431055994645417 
847	 0.431195467894044 
848	 0.431520814269639 
849	 0.43218485461739 
850	 0.432181822705438 
851	 0.43146615278411 
852	 0.432200798586646 
853	 0.434170860451166 
854	 0.436771814906899 
855	 0.437671270939464 
856	 0.436839524311334 
857	 0.435318053650261 
858	 0.435159636974313 
859	 0.436570672341977 
860	 0.436159820436075 
861	 0.435299389161499 
862	 0.435492466232817 
863	 0.436494239443539 
864	 0.437742665835881 
865	 0.437885329415897 
866	 0.439056963461108 
867	 0.441402845224754 
868	 0.442083195675878 
869	 0.442439474399707 
870	 0.443547752890584 
871	 0.443701596994504 
872	 0.44338980728717 
873	 0.443883750334566 
874	 0.44594498125993 
875	 0.449064299700484 
876	 0.450159401480232 
877	 0.450669436724953 
878	 0.451843071526137 
879	 0.454816053828303 
880	 0.45763002570749 
881	 0.45691650344659 
882	 0.45713590280552 
883	 0.459143422653133 
884	 0.461291170559294 
885	 0.46346758999961 
886	 0.465285025796762 
887	 0.464998749307449 
888	 0.464599934396444 
889	 0.466832852200189 
890	 0.466274110581631 
891	 0.463550759874574 
892	 0.464585969193957 
893	 0.466214267434019 
894	 0.467270194019427 
895	 0.469695969323995 
896	 0.472555856469641 
897	 0.474599125145514 
898	 0.477224554767417 
899	 0.480599340597405 
900	 0.484821614754598 
901	 0.485953036342661 
902	 0.4833204153107 
903	 0.480233417640759 
904	 0.478020369222438 
905	 0.477850414675295 
906	 0.481103361376863 
907	 0.485449411879775 
908	 0.486522448351038 
909	 0.485199162161112 
910	 0.483252325924377 
911	 0.48631225405258 
912	 0.489802684430807 
913	 0.491224105539842 
914	 0.493325364618908 
915	 0.495554684884987 
916	 0.496907152373268 
917	 0.496116167413436 
918	 0.494127291279279 
919	 0.494180537924154 
920	 0.493608376259021 
921	 0.491517544795069 
922	 0.488078829209541 
923	 0.486147768175321 
924	 0.487628686806847 
925	 0.48420852754895 
926	 0.479467464551223 
927	 0.484450489251148 
928	 0.487261723022026 
929	 0.485457282866157 
930	 0.488770334966575 
931	 0.496135089466358 
932	 0.505623024021216 
933	 0.509637681593672 
934	 0.50895117779756 
935	 0.507771053532727 
936	 0.507983429767152 
937	 0.507510551556983 
938	 0.499367600676653 
939	 0.490911239292417 
940	 0.486805470296363 
941	 0.495061827477734 
942	 0.504559813186104 
943	 0.507283605187125 
944	 0.511322879390194 
945	 0.514621290973544 
946	 0.512531223960647 
947	 0.503526775929208 
948	 0.493706950900914 
949	 0.502516614577521 
950	 0.50997666887763 
951	 0.507974214047336 
952	 0.504968527082625 
953	 0.500190743857606 
954	 0.493398210832279 
955	 0.495535080940896 
956	 0.503508953674102 
957	 0.508677835908687 
958	 0.51374513054544 
959	 0.516517984837632 
960	 0.508569223325903 
961	 0.50194366005949 
962	 0.501693730637016 
963	 0.49803056768223 
964	 0.49522219764009 
965	 0.497858528169198 
966	 0.503887082277726 
967	 0.507147586103011 
968	 0.496627898199846 
969	 0.491764311922103 
970	 0.495378272292432 
971	 0.49571935518986 
972	 0.49724626798344 
973	 0.501891264548563 
974	 0.506170832385161 
975	 0.508244373965735 
976	 0.506771372836498 
977	 0.505803835704927 
978	 0.505168881313748 
979	 0.502358277680886 
980	 0.501439695071627 
981	 0.503391591058466 
982	 0.50720358104122 
983	 0.508109021559214 
984	 0.504851274328546 
985	 0.507240850675423 
986	 0.509872172798688 
987	 0.506531704481035 
988	 0.507088985039851 
989	 0.5092997769649 
990	 0.50494367621264 
991	 0.505674998289727 
992	 0.51091635704487 
993	 0.505923690002849 
994	 0.502355563271739 
995	 0.505567333549642 
996	 0.510379844179841 
997	 0.510624570654091 
998	 0.502144854049648 
999	 0.503576697179624 
1000	 0.51164897453565 
1001	 0.515149107676906 
1002	 0.51769396814685 
1003	 0.518260878362129 
1004	 0.510396313107221 
1005	 0.511852801293091 
1006	 0.525411393253541 
1007	 0.525893024332587 
1008	 0.520587735631662 
1009	 0.516166690892463 
1010	 0.50691484017846 
1011	 0.503899457309052 
1012	 0.522003032697621 
1013	 0.530809648450498 
1014	 0.526917817582533 
1015	 0.518978033648246 
1016	 0.509889376237239 
1017	 0.503179664287023 
1018	 0.504830981401966 
1019	 0.513696251942377 
1020	 0.525505816878207 
1021	 0.520998218738248 
1022	 0.512928961219556 
1023	 0.515377194981087 
1024	 0.519059558204147 
1025	 0.521888222019969 
1026	 0.522899466226102 
1027	 0.521289686806244 
1028	 0.517925101941846 
1029	 0.515515278847091 
1030	 0.515545208369666 
1031	 0.519742287240981 
1032	 0.533486528352195 
1033	 0.539633200903597 
1034	 0.529425759872258 
1035	 0.52128152205148 
1036	 0.519320476311699 
1037	 0.525822162753923 
1038	 0.535290538939823 
1039	 0.541426321584934 
1040	 0.536404090327384 
1041	 0.527883268179691 
1042	 0.520259560187323 
1043	 0.518724341644137 
1044	 0.529701485724977 
1045	 0.546907311285086 
1046	 0.534259970523421 
1047	 0.519293283032857 
1048	 0.519026582165246 
1049	 0.521087221233665 
1050	 0.517837293622592 
1051	 0.505824770327507 
1052	 0.512073859157471 
1053	 0.531848956091534 
1054	 0.54796397807361 
1055	 0.55191193899004 
1056	 0.543808787322358 
1057	 0.527853270489509 
1058	 0.517832978048534 
1059	 0.515049437306663 
1060	 0.501061405752284 
1061	 0.511449703457853 
1062	 0.545534662503488 
1063	 0.504640540852154 
1064	 0.469235349378779 
1065	 0.496377044633897 
1066	 0.532265228624873 
1067	 0.541749778232156 
1068	 0.500819351552599 
1069	 0.476241714094928 
1070	 0.477087515360752 
1071	 0.488830580433126 
1072	 0.496770892721347 
1073	 0.494527850131991 
1074	 0.483395273511276 
1075	 0.484688616263772 
