Wavelength	SHSI00309.asd
325	 9.70318796162045E-02 
326	 9.34055738850786E-02 
327	 8.45970331840339E-02 
328	 8.55430136849572E-02 
329	 8.17862802650002E-02 
330	 7.14767148712052E-02 
331	 7.30209447295888E-02 
332	 0.08007708993031 
333	 8.52637365657898E-02 
334	 8.34943924979765E-02 
335	 7.71298785203913E-02 
336	 0.072521481746061 
337	 7.39219129053149E-02 
338	 8.06463648168217E-02 
339	 8.34436331746233E-02 
340	 8.24778258558253E-02 
341	 7.88319243991403E-02 
342	 7.72501903997836E-02 
343	 7.77142338004497E-02 
344	 7.85131984603073E-02 
345	 8.00807543826981E-02 
346	 8.11418641274078E-02 
347	 7.64712716998735E-02 
348	 7.46918057361808E-02 
349	 0.080336759488209 
350	 0.079959668392549 
351	 7.59626910644669E-02 
352	 7.46907779866827E-02 
353	 7.39212514958436E-02 
354	 7.37376278946519E-02 
355	 0.075976736941181 
356	 7.81406565553323E-02 
357	 7.86480892154629E-02 
358	 7.76396721108435E-02 
359	 7.66449834605639E-02 
360	 7.78327473389071E-02 
361	 7.80553029109664E-02 
362	 7.70502791312959E-02 
363	 7.64869289880925E-02 
364	 7.69287502858039E-02 
365	 7.81876072406939E-02 
366	 7.70284776273562E-02 
367	 7.53170363619873E-02 
368	 7.58948532963891E-02 
369	 7.64778653914159E-02 
370	 7.65527739131976E-02 
371	 7.62052852256748E-02 
372	 7.60799398213744E-02 
373	 7.65244861595591E-02 
374	 7.73559768766293E-02 
375	 7.77781164250435E-02 
376	 7.68110266598878E-02 
377	 0.075439210843035 
378	 7.41360264140002E-02 
379	 7.31706071589622E-02 
380	 7.41067598505844E-02 
381	 7.68003844304932E-02 
382	 7.53836387581585E-02 
383	 7.27591458336107E-02 
384	 0.07334750346972 
385	 0.073194970722701 
386	 7.24068693368849E-02 
387	 7.43594265936988E-02 
388	 7.49583386555775E-02 
389	 7.29611291971736E-02 
390	 7.28675445637509E-02 
391	 0.073702783451724 
392	 7.38726015947964E-02 
393	 7.30163575929947E-02 
394	 7.17387562588622E-02 
395	 7.19807407660288E-02 
396	 7.22743795247245E-02 
397	 7.20902605763559E-02 
398	 7.22021127595928E-02 
399	 7.25914552934391E-02 
400	 7.31577131395435E-02 
401	 0.072993412421035 
402	 7.24516585291737E-02 
403	 7.27770154158716E-02 
404	 0.073169010434605 
405	 7.32414392459248E-02 
406	 7.27474870954872E-02 
407	 7.21746854776998E-02 
408	 7.21292559056832E-02 
409	 0.072428259835225 
410	 7.27033836156131E-02 
411	 7.19545228950422E-02 
412	 7.16651542949376E-02 
413	 7.23769023059734E-02 
414	 7.27458681562333E-02 
415	 7.28155421107551E-02 
416	 7.28311559790449E-02 
417	 7.24553120159031E-02 
418	 7.19436640584745E-02 
419	 7.22287670077211E-02 
420	 0.072722661470859 
421	 7.30236752875773E-02 
422	 7.27819939503575E-02 
423	 7.23680232452634E-02 
424	 7.23562597998859E-02 
425	 0.072745092094899 
426	 0.073220276966078 
427	 7.25871873354819E-02 
428	 7.22827338683444E-02 
429	 7.30834576453944E-02 
430	 7.32281433618786E-02 
431	 7.29505665911337E-02 
432	 7.30369794095461E-02 
433	 7.31206940155451E-02 
434	 7.30931560118331E-02 
435	 7.28630203992042E-02 
436	 7.27239126568533E-02 
437	 0.072862094117929 
438	 7.31026109913532E-02 
439	 7.33580683052865E-02 
440	 7.35387480159605E-02 
441	 7.35943045846986E-02 
442	 7.35467324316006E-02 
443	 7.35436531525797E-02 
444	 7.36380041603838E-02 
445	 7.38515428112179E-02 
446	 0.074018744000938 
447	 7.40587035589834E-02 
448	 7.38146129142939E-02 
449	 7.38604050716883E-02 
450	 7.42992392905507E-02 
451	 7.45426261320765E-02 
452	 7.47272265033095E-02 
453	 7.49991819150497E-02 
454	 7.48795474886393E-02 
455	 7.45707867893317E-02 
456	 7.48677045011958E-02 
457	 7.51788133757392E-02 
458	 7.52691398420086E-02 
459	 7.53251353355204E-02 
460	 7.52567635472223E-02 
461	 7.49600290652187E-02 
462	 7.50817242371688E-02 
463	 7.54899448588182E-02 
464	 7.52702214699607E-02 
465	 7.51626613644225E-02 
466	 0.075502509745869 
467	 7.57990400512994E-02 
468	 7.59510166644083E-02 
469	 7.58982222351186E-02 
470	 7.59205603381796E-02 
471	 7.60324804303749E-02 
472	 7.59514727585337E-02 
473	 7.59793705382703E-02 
474	 7.62869338779134E-02 
475	 7.66368131259284E-02 
476	 7.68365268044574E-02 
477	 7.66020665481148E-02 
478	 7.66208597312056E-02 
479	 0.076942611391243 
480	 7.68177030278497E-02 
481	 7.66983750514244E-02 
482	 7.69628429754277E-02 
483	 7.74500841335244E-02 
484	 7.79342166981655E-02 
485	 7.80064255000416E-02 
486	 7.77002871611759E-02 
487	 7.71794678472421E-02 
488	 7.71661512559577E-02 
489	 7.74248830274687E-02 
490	 7.76496150814394E-02 
491	 7.79197509392335E-02 
492	 7.81160413359556E-02 
493	 0.077885465923241 
494	 7.78037644698933E-02 
495	 7.80673101558701E-02 
496	 7.81538471885706E-02 
497	 7.81477527225453E-02 
498	 7.82206550355585E-02 
499	 7.84122881155198E-02 
500	 7.86904570752262E-02 
501	 7.88673912035225E-02 
502	 7.92086707580379E-02 
503	 7.97656422417946E-02 
504	 7.96333593369522E-02 
505	 7.92977562142245E-02 
506	 7.97364797142783E-02 
507	 8.02709344196436E-02 
508	 8.06392269732962E-02 
509	 8.06161263375153E-02 
510	 8.05728510708827E-02 
511	 0.080809877058732 
512	 8.11441736559956E-02 
513	 8.15254262588595E-02 
514	 8.19356633988895E-02 
515	 8.22166553448701E-02 
516	 8.23375913630367E-02 
517	 8.24907881915923E-02 
518	 8.27621321801686E-02 
519	 8.32043629554181E-02 
520	 8.34276055406721E-02 
521	 8.34549146059594E-02 
522	 8.35466902497817E-02 
523	 8.38050067373349E-02 
524	 8.42420744964317E-02 
525	 8.45347588435755E-02 
526	 8.47465979622955E-02 
527	 8.50249947787035E-02 
528	 8.50261606017715E-02 
529	 8.48718317182797E-02 
530	 8.52149610894668E-02 
531	 8.58286026823499E-02 
532	 8.64930656826577E-02 
533	 8.67047690643646E-02 
534	 8.66371472398583E-02 
535	 8.67897724298057E-02 
536	 8.68726822485536E-02 
537	 8.68917531216402E-02 
538	 8.72165120930621E-02 
539	 8.76542732395062E-02 
540	 8.79875394736667E-02 
541	 8.80181513641686E-02 
542	 0.087934742509267 
543	 8.83826340402523E-02 
544	 0.088642302574737 
545	 8.84995155619212E-02 
546	 8.86256185513193E-02 
547	 8.88911689207063E-02 
548	 8.90460450291096E-02 
549	 8.92552594817657E-02 
550	 8.94937493522825E-02 
551	 8.95497248265939E-02 
552	 8.96444017239497E-02 
553	 8.99084284535959E-02 
554	 9.01957255558116E-02 
555	 9.03964214317109E-02 
556	 9.03311990360565E-02 
557	 9.04704251912715E-02 
558	 9.08596285519407E-02 
559	 9.09405404364865E-02 
560	 9.09306094285822E-02 
561	 0.091041866853518 
562	 9.10102207093654E-02 
563	 9.09685778069662E-02 
564	 9.14258800804911E-02 
565	 9.16307373492961E-02 
566	 9.13654439920691E-02 
567	 9.13926421292559E-02 
568	 0.09151858764127 
569	 9.14109232528137E-02 
570	 9.16466692821596E-02 
571	 9.20751042943957E-02 
572	 9.16659861736952E-02 
573	 9.14870116672244E-02 
574	 9.20836275313464E-02 
575	 9.22179395568307E-02 
576	 9.19644614906821E-02 
577	 9.17553222893835E-02 
578	 9.17863621902947E-02 
579	 9.20293342194231E-02 
580	 9.19661105707902E-02 
581	 0.091858089925214 
582	 9.19270278364114E-02 
583	 9.16647580098019E-02 
584	 0.091338069834923 
585	 9.18989176875318E-02 
586	 9.22840639708018E-02 
587	 9.21066852026662E-02 
588	 9.18881377618566E-02 
589	 9.18167660124098E-02 
590	 9.20693601137298E-02 
591	 9.22594239456447E-02 
592	 9.22351279363267E-02 
593	 9.18229178117013E-02 
594	 9.16810355107357E-02 
595	 9.21172486020261E-02 
596	 9.21700814235603E-02 
597	 9.20388511560015E-02 
598	 9.23221565396453E-02 
599	 9.23928638698248E-02 
600	 9.21948542516491E-02 
601	 9.23645340254079E-02 
602	 9.25022726495347E-02 
603	 9.22822924481977E-02 
604	 9.25141390892766E-02 
605	 9.29163257096513E-02 
606	 9.23655825035168E-02 
607	 9.20222938354018E-02 
608	 9.22408717869954E-02 
609	 9.21075952077889E-02 
610	 9.18788397428786E-02 
611	 9.19709330731059E-02 
612	 9.22079771323979E-02 
613	 9.23550276420931E-02 
614	 9.17632777222168E-02 
615	 0.091323275061632 
616	 9.15176408008657E-02 
617	 9.13803722626553E-02 
618	 9.11868078048567E-02 
619	 9.16756720705035E-02 
620	 9.17039195989869E-02 
621	 9.11860906368645E-02 
622	 9.13437277742999E-02 
623	 9.15955790113331E-02 
624	 9.14068949912462E-02 
625	 0.091296401257098 
626	 9.13546515415855E-02 
627	 9.15734898506059E-02 
628	 9.17838027297321E-02 
629	 9.18702558288936E-02 
630	 9.16962043105365E-02 
631	 9.14591574087504E-02 
632	 9.14152622148596E-02 
633	 9.14134424261073E-02 
634	 9.14916953656025E-02 
635	 0.091938023465951 
636	 9.21290816775579E-02 
637	 9.17765162091776E-02 
638	 9.18179309415479E-02 
639	 9.20741772575891E-02 
640	 9.20208188349321E-02 
641	 9.16661647362573E-02 
642	 9.11938122455013E-02 
643	 9.13676712228721E-02 
644	 0.091711824392958 
645	 9.17929950902059E-02 
646	 9.19501375215044E-02 
647	 9.20940358439133E-02 
648	 9.18595827144626E-02 
649	 9.15531645640103E-02 
650	 9.13531111102957E-02 
651	 9.14913234095978E-02 
652	 9.15274697442709E-02 
653	 9.09287767268353E-02 
654	 9.05774125399878E-02 
655	 9.06131485301568E-02 
656	 9.07886784958475E-02 
657	 9.06381450546642E-02 
658	 8.99980895597488E-02 
659	 8.98337210930118E-02 
660	 8.97348185870654E-02 
661	 8.88520929218436E-02 
662	 8.81785114030012E-02 
663	 8.79449205226786E-02 
664	 8.78602510874844E-02 
665	 8.74831572599323E-02 
666	 8.65393914720386E-02 
667	 0.086305250439177 
668	 8.65354258902654E-02 
669	 8.60567077311265E-02 
670	 0.085597468471929 
671	 8.54084268251095E-02 
672	 8.54014742577787E-02 
673	 8.53849013266051E-02 
674	 8.51581759547158E-02 
675	 8.53047687194394E-02 
676	 8.57639487983485E-02 
677	 8.59656564925669E-02 
678	 8.60409920555134E-02 
679	 8.60785890858343E-02 
680	 8.62155607760933E-02 
681	 8.65118598046551E-02 
682	 8.70229242509948E-02 
683	 8.76228196735346E-02 
684	 8.82000948120254E-02 
685	 8.85215455898833E-02 
686	 8.88887682319116E-02 
687	 8.96144997924981E-02 
688	 9.10966381002518E-02 
689	 9.25545951076057E-02 
690	 9.24133779812291E-02 
691	 9.27757446858292E-02 
692	 9.40996802522018E-02 
693	 0.094946122981518 
694	 9.57204022845978E-02 
695	 9.68632035693127E-02 
696	 9.76236344099891E-02 
697	 9.81478815749344E-02 
698	 9.93089270070491E-02 
699	 0.100289447771273 
700	 0.100705654266099 
701	 0.100906902079046 
702	 0.101230949580441 
703	 0.102067847211575 
704	 0.10295034319931 
705	 0.103642289294018 
706	 0.103818753056353 
707	 0.103843248670058 
708	 0.103984801777955 
709	 0.104292217888855 
710	 0.104756952462098 
711	 0.105375016884561 
712	 0.105653241949526 
713	 0.105570321065752 
714	 0.105837885062456 
715	 0.106101324392371 
716	 0.10605252776356 
717	 0.106482993569727 
718	 0.1072887949182 
719	 0.107509686721841 
720	 0.107334656985998 
721	 0.107012102336873 
722	 0.107090764995971 
723	 0.10740013467491 
724	 0.107724059421537 
725	 0.107683098488012 
726	 0.107513079689593 
727	 0.10829752122034 
728	 0.108815177524372 
729	 0.108568409375745 
730	 0.10876851898746 
731	 0.109138273228276 
732	 0.109117545537679 
733	 0.109103882238985 
734	 0.109163125276557 
735	 0.109155898992681 
736	 0.109318890585247 
737	 0.109733259585076 
738	 0.109648106458486 
739	 0.109360252452773 
740	 0.109620319892935 
741	 0.10991099728258 
742	 0.110034724099854 
743	 0.109835249516211 
744	 0.109740226369151 
745	 0.110088041255188 
746	 0.110378629634689 
747	 0.110535880702284 
748	 0.110587967353891 
749	 0.110772279798659 
750	 0.111092220481568 
751	 0.110995247116266 
752	 0.110993906290888 
753	 0.111608395920158 
754	 0.111308682619999 
755	 0.110397475656511 
756	 0.110615379894104 
757	 0.110993459650815 
758	 0.111132170869473 
759	 0.111236415024885 
760	 0.111444489147677 
761	 0.111862798437458 
762	 0.112272933278289 
763	 0.11239472355021 
764	 0.111739505884138 
765	 0.111620911796463 
766	 0.112263598755386 
767	 0.11237770674103 
768	 0.112217698503147 
769	 0.112148542579232 
770	 0.112345339332554 
771	 0.112733474432891 
772	 0.112833687216794 
773	 0.112904010584504 
774	 0.113102772039424 
775	 0.113271565398396 
776	 0.113254218355522 
777	 0.112793953449614 
778	 0.112559310147279 
779	 0.112689474750117 
780	 0.112739647619846 
781	 0.112887054528704 
782	 0.113239826392697 
783	 0.113353870425163 
784	 0.113274324343416 
785	 0.113229341458347 
786	 0.113466176512152 
787	 0.113910678042645 
788	 0.113759507130851 
789	 0.11339229112832 
790	 0.113250481154815 
791	 0.113860909967009 
792	 0.114710455214885 
793	 0.114290711295764 
794	 0.114051608925716 
795	 0.114342254673881 
796	 0.114099236614577 
797	 0.113792036097485 
798	 0.113937515719731 
799	 0.114263998264458 
800	 0.11460881913272 
801	 0.114725168531141 
802	 0.114582560176401 
803	 0.114281227773263 
804	 0.114385267001893 
805	 0.114797972740036 
806	 0.115332632462015 
807	 0.11538259852331 
808	 0.115090834729944 
809	 0.115280604120095 
810	 0.115410641669014 
811	 0.115262389865206 
812	 0.114938391952145 
813	 0.114784262687175 
814	 0.115226566714191 
815	 0.115498261627453 
816	 0.115538716057255 
817	 0.115899334737678 
818	 0.116006332561565 
819	 0.115740821373018 
820	 0.115858736285445 
821	 0.116159560532931 
822	 0.116344053561863 
823	 0.116820415878836 
824	 0.117298288142453 
825	 0.116759080146081 
826	 0.11635995941831 
827	 0.11654649580625 
828	 0.116714205591229 
829	 0.116824221542705 
830	 0.116893169028798 
831	 0.117013753937576 
832	 0.117160977273131 
833	 0.117222618840004 
834	 0.117170908743971 
835	 0.11703462378145 
836	 0.117022954769947 
837	 0.117161326397023 
838	 0.117429152187119 
839	 0.116931233139184 
840	 0.116185343789248 
841	 0.117333177673088 
842	 0.117839685643995 
843	 0.116895447290344 
844	 0.116664732383755 
845	 0.116891736358467 
846	 0.11708464570974 
847	 0.117389509194509 
848	 0.117632953786285 
849	 0.117226919897891 
850	 0.117307200710566 
851	 0.11801727562403 
852	 0.117106357711992 
853	 0.11637518851003 
854	 0.117766872006247 
855	 0.118168426088622 
856	 0.117556768456536 
857	 0.117465604913044 
858	 0.117562654010762 
859	 0.117651617736165 
860	 0.117030159311884 
861	 0.116642133531572 
862	 0.117345173238669 
863	 0.117771749152752 
864	 0.117847991190298 
865	 0.118065986549347 
866	 0.11803816218508 
867	 0.117835459532678 
868	 0.118332340059031 
869	 0.118827168256047 
870	 0.118761951175177 
871	 0.118811902060053 
872	 0.118990728902602 
873	 0.119131769173585 
874	 0.119057850877245 
875	 0.118900972885606 
876	 0.119580076532827 
877	 0.119554817728002 
878	 0.118044294458058 
879	 0.118144149156178 
880	 0.119213962571845 
881	 0.119523970040684 
882	 0.119242241294726 
883	 0.11875997838666 
884	 0.119542698867537 
885	 0.119744171182265 
886	 0.118583466597058 
887	 0.118252387296163 
888	 0.118988169456415 
889	 0.120697938460227 
890	 0.120918335914175 
891	 0.119823317756123 
892	 0.120068753280924 
893	 0.120170571884169 
894	 0.119699186837414 
895	 0.120292024037377 
896	 0.120840902623367 
897	 0.119997774923635 
898	 0.120037322722588 
899	 0.12097042875806 
900	 0.121651559326132 
901	 0.121698969357578 
902	 0.121001270781437 
903	 0.119835644705468 
904	 0.119064367160175 
905	 0.119408056148888 
906	 0.12131410047199 
907	 0.123051811894712 
908	 0.121491400934682 
909	 0.121725894857523 
910	 0.123738158088855 
911	 0.121246871241142 
912	 0.119909654828126 
913	 0.122327400752916 
914	 0.12222070597459 
915	 0.121123097111423 
916	 0.121651021311202 
917	 0.122737806965627 
918	 0.123228242096183 
919	 0.120210333872747 
920	 0.119632312244135 
921	 0.12243119241177 
922	 0.121808765332102 
923	 0.119446616852735 
924	 0.117422954233694 
925	 0.11877825314725 
926	 0.12172174332821 
927	 0.121071714161676 
928	 0.119160124281518 
929	 0.117630634593413 
930	 0.120765259894035 
931	 0.123669966348885 
932	 0.122219935623083 
933	 0.118885154721703 
934	 0.116477142303405 
935	 0.11838970662633 
936	 0.116055271893931 
937	 0.112409800050364 
938	 0.120332879861618 
939	 0.1277622707842 
940	 0.130350844170579 
941	 0.12791901616835 
942	 0.124321970293635 
943	 0.122206508311613 
944	 0.117545986318567 
945	 0.11495695117709 
946	 0.122229938284967 
947	 0.125523274930578 
948	 0.122707125853214 
949	 0.119785528694587 
950	 0.115022759633438 
951	 0.11045041322965 
952	 0.119133543186145 
953	 0.127218848372529 
954	 0.122899802951408 
955	 0.122100653183895 
956	 0.122528388928984 
957	 0.114934319986838 
958	 0.116228714907813 
959	 0.125294709729169 
960	 0.124546571243883 
961	 0.120902187318005 
962	 0.118403897763594 
963	 0.119122377176048 
964	 0.120806474547443 
965	 0.121175178155565 
966	 0.122403041245337 
967	 0.123566091534446 
968	 0.121999597070126 
969	 0.123577801361898 
970	 0.127436275395936 
971	 0.124400232717183 
972	 0.120708000505774 
973	 0.120108718029035 
974	 0.121618031172839 
975	 0.123645707461325 
976	 0.124423665766888 
977	 0.122801932659822 
978	 0.120536553626178 
979	 0.121435840801835 
980	 0.126437376204088 
981	 0.131948423473613 
982	 0.124177505131212 
983	 0.118920343455318 
984	 0.124125687273607 
985	 0.128329149832555 
986	 0.12958439516215 
987	 0.12728769140639 
988	 0.125694723579616 
989	 0.12547290508492 
990	 0.126176875617555 
991	 0.125820977017607 
992	 0.124033412339447 
993	 0.121690587056562 
994	 0.121088464005164 
995	 0.123211069111012 
996	 0.126574759855172 
997	 0.127997755530299 
998	 0.125106484192167 
999	 0.125192973664601 
1000	 0.125462218155648 
1001	 0.118855391193713 
1002	 0.115393638428938 
1003	 0.118021468156257 
1004	 0.126969574979107 
1005	 0.133310468260756 
1006	 0.13288916939086 
1007	 0.126566257661441 
1008	 0.122717736919831 
1009	 0.12671212513151 
1010	 0.1262455017345 
1011	 0.12402054220937 
1012	 0.125897276244003 
1013	 0.127883099964256 
1014	 0.127730622813405 
1015	 0.121379570855649 
1016	 0.123632550907832 
1017	 0.134748505846903 
1018	 0.135158495653396 
1019	 0.13235832982902 
1020	 0.130398392178621 
1021	 0.125642895176742 
1022	 0.123768521713015 
1023	 0.129635086132056 
1024	 0.12846784160588 
1025	 0.126424945336893 
1026	 0.137466417190634 
1027	 0.133176011664255 
1028	 0.117684205536564 
1029	 0.12270569724723 
1030	 0.134118920361512 
1031	 0.143702878726197 
1032	 0.138528518602681 
1033	 0.132314993434523 
1034	 0.13346905503465 
1035	 0.135439029616052 
1036	 0.135644586820361 
1037	 0.132700051463497 
1038	 0.134854373004708 
1039	 0.138971569994717 
1040	 0.13707514375387 
1041	 0.132902178312752 
1042	 0.12918841953169 
1043	 0.131181025431776 
1044	 0.134452544246574 
1045	 0.136731528223016 
1046	 0.135658046086341 
1047	 0.130132118591166 
1048	 0.123145038468716 
1049	 0.137692344281069 
1050	 0.146816834127134 
1051	 0.127109220673514 
1052	 0.120924172122291 
1053	 0.126552084820929 
1054	 0.129536800208688 
1055	 0.126948437926884 
1056	 0.122899341425397 
1057	 0.129697216841676 
1058	 0.135867110253892 
1059	 0.136924597819837 
1060	 0.12949701060374 
1061	 0.129683023947276 
1062	 0.137842147350209 
1063	 0.111356431112226 
1064	 0.100705717883501 
1065	 0.135847251755379 
1066	 0.134722468129309 
1067	 0.11967347386321 
1068	 0.125254766746095 
1069	 0.123487220217778 
1070	 0.118196293697276 
1071	 0.121474282583872 
1072	 0.125513971457452 
1073	 0.129347789972645 
1074	 0.134019777215452 
1075	 0.153027664925518 
