Wavelength	SHSI00343.asd
325	 7.75926364402535E-02 
326	 8.68582032571554E-02 
327	 8.68136530367826E-02 
328	 8.29370976773167E-02 
329	 8.27269878439877E-02 
330	 8.65307703269039E-02 
331	 8.02033101107884E-02 
332	 7.43779085864746E-02 
333	 7.92918526518587E-02 
334	 7.73830436318473E-02 
335	 7.11627565710932E-02 
336	 0.073389288765514 
337	 7.52817112415672E-02 
338	 7.45750963144076E-02 
339	 7.41040419065724E-02 
340	 7.31011530858895E-02 
341	 7.10109756673976E-02 
342	 6.93127374448859E-02 
343	 6.83464451661525E-02 
344	 6.81326987127148E-02 
345	 6.90510668030338E-02 
346	 7.05139756351259E-02 
347	 7.03206492674646E-02 
348	 6.95447646442511E-02 
349	 6.91933477621819E-02 
350	 7.13281220822521E-02 
351	 7.33773787776452E-02 
352	 0.071149251591013 
353	 6.79384061104657E-02 
354	 6.62873403187571E-02 
355	 0.072048558536376 
356	 7.59919208595664E-02 
357	 7.33417366911626E-02 
358	 7.29090730132897E-02 
359	 7.32320285752723E-02 
360	 7.05470070120869E-02 
361	 6.76583221158896E-02 
362	 6.58120348359263E-02 
363	 6.62738171415082E-02 
364	 6.75080690179281E-02 
365	 6.84970115503589E-02 
366	 6.90668753871938E-02 
367	 6.87390316040504E-02 
368	 0.066934849914092 
369	 6.64611795330091E-02 
370	 6.75220288667114E-02 
371	 6.85602643413918E-02 
372	 6.85093485812867E-02 
373	 6.71840074198583E-02 
374	 6.81145003113336E-02 
375	 6.92478765070676E-02 
376	 6.73775283790313E-02 
377	 6.53475668489902E-02 
378	 6.42708326698732E-02 
379	 6.52257741449364E-02 
380	 6.64423245378364E-02 
381	 6.69410665229144E-02 
382	 6.70724513441509E-02 
383	 6.71321893192643E-02 
384	 6.74639265861847E-02 
385	 6.75559347916383E-02 
386	 6.69537126806874E-02 
387	 6.43629287519106E-02 
388	 6.38155366868306E-02 
389	 6.63039896943108E-02 
390	 6.62769718740222E-02 
391	 6.49291255602977E-02 
392	 6.42313832112929E-02 
393	 6.40070611777663E-02 
394	 6.44896830277901E-02 
395	 0.066789453374217 
396	 6.62842390046306E-02 
397	 6.22113085898843E-02 
398	 6.16140113634406E-02 
399	 0.062101721913481 
400	 6.07073681965521E-02 
401	 6.09558380601978E-02 
402	 6.23399284260691E-02 
403	 0.062274314783406 
404	 6.18758205592222E-02 
405	 6.16561207941925E-02 
406	 6.17947989391407E-02 
407	 6.22357254105122E-02 
408	 6.28651829672437E-02 
409	 0.062563726190554 
410	 6.16336176927211E-02 
411	 6.16607953558113E-02 
412	 6.17453735957897E-02 
413	 6.15064617608464E-02 
414	 0.061332196557496 
415	 6.13031992028502E-02 
416	 0.061471116546856 
417	 6.16312820095168E-02 
418	 6.17474417553817E-02 
419	 6.18885734770452E-02 
420	 6.20514389197092E-02 
421	 6.22245874182578E-02 
422	 6.24193859979632E-02 
423	 6.23604176858391E-02 
424	 6.16493522939615E-02 
425	 6.13189264538242E-02 
426	 6.16203728788321E-02 
427	 6.24794861368074E-02 
428	 6.27944071589066E-02 
429	 6.19849883257334E-02 
430	 6.16317780404054E-02 
431	 0.061653390872069 
432	 6.15293428944991E-02 
433	 6.14630941375065E-02 
434	 6.15352589812854E-02 
435	 6.19277768286436E-02 
436	 6.21533711489843E-02 
437	 6.19166295622418E-02 
438	 0.061594917681624 
439	 6.14466839563936E-02 
440	 6.18384665913857E-02 
441	 6.21908636787434E-02 
442	 6.22633609708869E-02 
443	 6.18887410803714E-02 
444	 6.16470248291033E-02 
445	 6.19851629919132E-02 
446	 6.24798358071223E-02 
447	 6.28430482621095E-02 
448	 6.25975586317992E-02 
449	 6.24595610430831E-02 
450	 6.26778504574587E-02 
451	 6.31058880398363E-02 
452	 6.35379408047925E-02 
453	 6.37597487893357E-02 
454	 6.34469243332155E-02 
455	 6.29344155048478E-02 
456	 0.063352274982403 
457	 6.34131106135174E-02 
458	 6.28420854840526E-02 
459	 6.33295798458586E-02 
460	 6.39814938055391E-02 
461	 6.36224181309843E-02 
462	 0.063859227950081 
463	 6.45837924789062E-02 
464	 6.43171003878506E-02 
465	 6.40978694397272E-02 
466	 0.064378505207915 
467	 6.43387733091705E-02 
468	 6.41686341012895E-02 
469	 6.42703621262194E-02 
470	 6.42973041391654E-02 
471	 6.41889454812785E-02 
472	 6.40175227826326E-02 
473	 6.40092830605909E-02 
474	 6.42864729635545E-02 
475	 6.45487866126073E-02 
476	 6.48266654832847E-02 
477	 6.53013179570243E-02 
478	 6.51758795125316E-02 
479	 6.45328958004777E-02 
480	 6.47399948693351E-02 
481	 6.49899581550328E-02 
482	 6.46509598731584E-02 
483	 6.45554405323186E-02 
484	 6.47934595632639E-02 
485	 6.52968307669178E-02 
486	 6.54680759140699E-02 
487	 6.51778768921726E-02 
488	 6.51890710046716E-02 
489	 6.51850465117348E-02 
490	 6.48387327962259E-02 
491	 0.065117296795932 
492	 6.57408001082864E-02 
493	 6.54281266785789E-02 
494	 6.52645782807909E-02 
495	 6.56456839781674E-02 
496	 6.58884016522728E-02 
497	 6.61025685575257E-02 
498	 6.65121816209685E-02 
499	 6.65446474783591E-02 
500	 6.63203074397208E-02 
501	 6.67209222747542E-02 
502	 6.71890496289318E-02 
503	 6.73964845901931E-02 
504	 6.76236479085568E-02 
505	 6.78905681233857E-02 
506	 0.068178014210785 
507	 6.84407162878504E-02 
508	 6.86977481733827E-02 
509	 6.90656792938384E-02 
510	 6.94880968012997E-02 
511	 6.99278411553589E-02 
512	 7.05351716628468E-02 
513	 7.12127713597702E-02 
514	 7.17099071509584E-02 
515	 7.20765652024326E-02 
516	 7.23552184710223E-02 
517	 7.26936006230514E-02 
518	 7.31145910607279E-02 
519	 7.36109744909159E-02 
520	 0.073857646012228 
521	 7.40592408019942E-02 
522	 0.074949165109524 
523	 7.58547743918681E-02 
524	 0.076481493302155 
525	 7.71384658806809E-02 
526	 0.077668668832108 
527	 7.78077764634532E-02 
528	 7.79991882316596E-02 
529	 7.83718619126121E-02 
530	 7.89094423028726E-02 
531	 7.94429938966093E-02 
532	 7.98617363163828E-02 
533	 8.02201614315356E-02 
534	 8.06227243200609E-02 
535	 8.12781888880324E-02 
536	 8.17359183884547E-02 
537	 8.19596538271741E-02 
538	 8.25274230297657E-02 
539	 8.30816865535857E-02 
540	 8.32645671043619E-02 
541	 8.34598369949652E-02 
542	 8.37560550503583E-02 
543	 8.41859188720109E-02 
544	 8.45317839932907E-02 
545	 8.47512937415715E-02 
546	 8.52503719925808E-02 
547	 8.56816814340699E-02 
548	 8.55544684704649E-02 
549	 8.58393079801136E-02 
550	 8.64786248837177E-02 
551	 8.63548056700525E-02 
552	 0.086438856545066 
553	 8.72436350186181E-02 
554	 8.75878096901042E-02 
555	 0.087623161805612 
556	 8.79596294301846E-02 
557	 0.088118629560302 
558	 8.80304272824014E-02 
559	 8.80070239329833E-02 
560	 8.82222513507901E-02 
561	 8.87691424580639E-02 
562	 8.88741874510754E-02 
563	 8.86464793373565E-02 
564	 8.87803985240687E-02 
565	 8.88634880205419E-02 
566	 8.87699581995375E-02 
567	 8.87342284952592E-02 
568	 0.088738505761789 
569	 8.87337002526312E-02 
570	 8.86626874044887E-02 
571	 8.85234786512581E-02 
572	 8.83525391049624E-02 
573	 8.82468878692504E-02 
574	 8.82582860914149E-02 
575	 0.088285659202546 
576	 8.82642674326273E-02 
577	 8.81013986608205E-02 
578	 8.80358625509077E-02 
579	 8.80627800526762E-02 
580	 8.77750572753798E-02 
581	 8.75456771920161E-02 
582	 8.76900049540242E-02 
583	 0.087762006398828 
584	 0.0876913154664 
585	 8.75160166706967E-02 
586	 8.73352651241023E-02 
587	 8.72394742291552E-02 
588	 8.74074478442058E-02 
589	 8.77169097239229E-02 
590	 8.79739608815895E-02 
591	 8.78630120301939E-02 
592	 8.74768579002778E-02 
593	 0.087352207205853 
594	 8.72848865685542E-02 
595	 8.71962404693285E-02 
596	 8.74240267712245E-02 
597	 8.77014510846821E-02 
598	 8.74847590893881E-02 
599	 8.74417512320829E-02 
600	 8.76543118402113E-02 
601	 8.75274407654881E-02 
602	 8.73431594802316E-02 
603	 8.73512230791279E-02 
604	 8.71951064581461E-02 
605	 8.69630005199733E-02 
606	 8.70574210749183E-02 
607	 8.70121639563396E-02 
608	 8.67246587509068E-02 
609	 8.67976483604413E-02 
610	 8.69509891878369E-02 
611	 8.67698077242275E-02 
612	 0.085876693856124 
613	 0.084776659246159 
614	 8.54684093521903E-02 
615	 8.59788397704536E-02 
616	 8.52189783497078E-02 
617	 8.49200910658488E-02 
618	 8.49853259508304E-02 
619	 8.48199773563022E-02 
620	 8.48402904284142E-02 
621	 0.084997254310094 
622	 8.45852699082265E-02 
623	 8.41919864568136E-02 
624	 8.43430625984122E-02 
625	 8.44552806263155E-02 
626	 8.44873141745563E-02 
627	 8.47005290434629E-02 
628	 8.45115892761338E-02 
629	 8.38966944566918E-02 
630	 8.41938540013973E-02 
631	 0.084748396765438 
632	 8.46155701966505E-02 
633	 8.45096593389348E-02 
634	 8.44700415673868E-02 
635	 8.40575925710535E-02 
636	 8.37129619788666E-02 
637	 8.36984202167207E-02 
638	 0.083815989256808 
639	 0.083921149644757 
640	 8.38196053498705E-02 
641	 8.36629707188266E-02 
642	 0.083454722210278 
643	 8.29917699087334E-02 
644	 8.25087829977968E-02 
645	 8.22368424860736E-02 
646	 8.24387897325369E-02 
647	 8.27227728476563E-02 
648	 8.19400814322924E-02 
649	 8.11834103595294E-02 
650	 8.09001211825162E-02 
651	 8.08224511177337E-02 
652	 8.08065961696065E-02 
653	 8.07038185774945E-02 
654	 8.04835017208608E-02 
655	 8.01654810119684E-02 
656	 8.00014067352768E-02 
657	 7.94247477935113E-02 
658	 7.82920479040485E-02 
659	 7.77792508735315E-02 
660	 7.76593384552873E-02 
661	 7.73957461873708E-02 
662	 7.68627671567284E-02 
663	 7.60769682060964E-02 
664	 7.53591367389689E-02 
665	 7.47462072109952E-02 
666	 7.42623366250363E-02 
667	 7.39199297901822E-02 
668	 7.35890617477966E-02 
669	 7.29437978368985E-02 
670	 0.072380031967696 
671	 7.20575126579833E-02 
672	 7.19093325476594E-02 
673	 7.18966315249325E-02 
674	 7.19750528596112E-02 
675	 7.20901818682922E-02 
676	 7.22552428012639E-02 
677	 7.25931797221071E-02 
678	 7.28776576778964E-02 
679	 7.29998112289459E-02 
680	 7.31530625791791E-02 
681	 7.33523690441866E-02 
682	 7.35442314793944E-02 
683	 7.44739942967838E-02 
684	 7.59821076206013E-02 
685	 7.65243233062508E-02 
686	 7.73997868241274E-02 
687	 0.079682396704455 
688	 8.14923484025477E-02 
689	 8.27141611746175E-02 
690	 8.43065035187721E-02 
691	 8.59104153555559E-02 
692	 8.75811934819898E-02 
693	 8.98017651257221E-02 
694	 9.21514671600597E-02 
695	 9.40893101580223E-02 
696	 9.60573054955118E-02 
697	 9.82052730790742E-02 
698	 0.100837796975607 
699	 0.103179047226577 
700	 0.104916919915276 
701	 0.107021824789385 
702	 0.109153743732465 
703	 0.110719396818051 
704	 0.112606914836548 
705	 0.1147611150808 
706	 0.116189510792958 
707	 0.117364459118892 
708	 0.118604027330959 
709	 0.119886892911028 
710	 0.121160576332922 
711	 0.122270983064791 
712	 0.123884345104141 
713	 0.125811125798674 
714	 0.126359433524393 
715	 0.126446857847855 
716	 0.127019951294389 
717	 0.12805081923047 
718	 0.12937572285615 
719	 0.130145938235977 
720	 0.130905197765978 
721	 0.131769782025227 
722	 0.13255601765215 
723	 0.133223254260087 
724	 0.133655229603956 
725	 0.133727062798181 
726	 0.133733784778239 
727	 0.134661735070565 
728	 0.135527622432708 
729	 0.135872959820689 
730	 0.136315191734718 
731	 0.136753225409874 
732	 0.136969003024281 
733	 0.137052453106771 
734	 0.137132044597319 
735	 0.137477311601443 
736	 0.138055130930185 
737	 0.138767194621413 
738	 0.139117698566321 
739	 0.13919484566418 
740	 0.139276746354506 
741	 0.139651061594691 
742	 0.140275817424539 
743	 0.140552320924419 
744	 0.140591818944591 
745	 0.140527709897673 
746	 0.140522208570416 
747	 0.140672241127965 
748	 0.141132743111105 
749	 0.141498653182753 
750	 0.141643529997307 
751	 0.141826363836623 
752	 0.14207576867874 
753	 0.142391009768249 
754	 0.14248437210678 
755	 0.142383072277396 
756	 0.142302027166987 
757	 0.142417103425246 
758	 0.142780063522513 
759	 0.142790101320429 
760	 0.142832703544747 
761	 0.144077664823803 
762	 0.14433624757574 
763	 0.143749568935404 
764	 0.144079049135702 
765	 0.144638995597591 
766	 0.145083073395014 
767	 0.145211966830497 
768	 0.145154782434101 
769	 0.145037882896971 
770	 0.14508245866404 
771	 0.145264434461857 
772	 0.145250441672584 
773	 0.145213214080895 
774	 0.145284002553518 
775	 0.145518796662219 
776	 0.145833315445834 
777	 0.146065606330475 
778	 0.146317819678255 
779	 0.1465710786688 
780	 0.146630983595372 
781	 0.146741797327685 
782	 0.147063018958804 
783	 0.147067478214399 
784	 0.146961725920506 
785	 0.147401055369835 
786	 0.147507080061147 
787	 0.147175402116764 
788	 0.147344426174754 
789	 0.147822777470734 
790	 0.148349065618973 
791	 0.148539903191795 
792	 0.148417773547111 
793	 0.148225517830118 
794	 0.148109956418326 
795	 0.148234610111316 
796	 0.14905631528337 
797	 0.149510446763101 
798	 0.148639010694174 
799	 0.148815113252375 
800	 0.149765228601196 
801	 0.149398967453585 
802	 0.149216337945489 
803	 0.149632887269824 
804	 0.149615876084997 
805	 0.149503471591728 
806	 0.149718820703313 
807	 0.149778804276037 
808	 0.149746902631979 
809	 0.150070876590127 
810	 0.150507382148005 
811	 0.150856026067172 
812	 0.150590667714112 
813	 0.150263789004775 
814	 0.150643522111699 
815	 0.150769051855072 
816	 0.150628106629245 
817	 0.1509748827757 
818	 0.151298076037252 
819	 0.151481815202798 
820	 0.152231405670829 
821	 0.153057496581215 
822	 0.153334631759868 
823	 0.153472706643008 
824	 0.153559653081386 
825	 0.153653439308867 
826	 0.153393501785956 
827	 0.152834718512357 
828	 0.153338585200504 
829	 0.15399296131457 
830	 0.153572186322321 
831	 0.153652385802882 
832	 0.154164981236158 
833	 0.153831218442032 
834	 0.153861744424598 
835	 0.154588470129372 
836	 0.154795032580559 
837	 0.154630844865753 
838	 0.154404501909809 
839	 0.154757203982056 
840	 0.155424821239345 
841	 0.155265244799508 
842	 0.154904083277965 
843	 0.154627264760944 
844	 0.154412468185289 
845	 0.154409590236859 
846	 0.154744610173684 
847	 0.154617840609872 
848	 0.154204655951462 
849	 0.154544733550157 
850	 0.154800025314413 
851	 0.154665863888388 
852	 0.154430609956546 
853	 0.154542798124841 
854	 0.155378177193415 
855	 0.155644545526802 
856	 0.155417014381598 
857	 0.155616149300869 
858	 0.155602775360817 
859	 0.155279283688538 
860	 0.155163827653236 
861	 0.155236116584784 
862	 0.155478096410103 
863	 0.156355663460217 
864	 0.157367081591023 
865	 0.157288173506513 
866	 0.156186860640641 
867	 0.154682466367671 
868	 0.155358420002673 
869	 0.156201003020689 
870	 0.155644540074086 
871	 0.156081178315577 
872	 0.157103638333265 
873	 0.157236307772747 
874	 0.157352719644158 
875	 0.157847988462604 
876	 0.159517707921957 
877	 0.159803519431871 
878	 0.15744774310545 
879	 0.157931590912275 
880	 0.159763232784591 
881	 0.159280270279781 
882	 0.159278050311142 
883	 0.160004204403142 
884	 0.159655855725445 
885	 0.159731266199892 
886	 0.160928150205533 
887	 0.161964139565469 
888	 0.16227828862507 
889	 0.161365138089174 
890	 0.1596853652625 
891	 0.158242486747447 
892	 0.159702258540083 
893	 0.160722861123442 
894	 0.160042730934003 
895	 0.160683641659867 
896	 0.161914237769179 
897	 0.162552919723414 
898	 0.162881168521803 
899	 0.162775253016534 
900	 0.161656374646134 
901	 0.162465883097099 
902	 0.165158884726501 
903	 0.16507272878881 
904	 0.16369584190814 
905	 0.1624765898395 
906	 0.162287539237827 
907	 0.163326917145891 
908	 0.165671381241788 
909	 0.166254609966298 
910	 0.165004993692646 
911	 0.165568092176178 
912	 0.16672271256501 
913	 0.167528850770192 
914	 0.166836030308177 
915	 0.165839934062929 
916	 0.1660555568921 
917	 0.164170153331865 
918	 0.161716664453799 
919	 0.164750110346434 
920	 0.166572127475024 
921	 0.165264473488835 
922	 0.164459171035835 
923	 0.163523474452645 
924	 0.162142644645749 
925	 0.165555855031514 
926	 0.169653606878003 
927	 0.163468085110732 
928	 0.159994279656999 
929	 0.163227096154339 
930	 0.16739079179911 
931	 0.16914982095648 
932	 0.165805956911756 
933	 0.162623992470623 
934	 0.161643912616649 
935	 0.164122427338179 
936	 0.165479892858085 
937	 0.164897983310618 
938	 0.163056733077775 
939	 0.16606970639981 
940	 0.172759142010527 
941	 0.17029230914056 
942	 0.166707833258752 
943	 0.16815256185941 
944	 0.170342132108031 
945	 0.171533363519476 
946	 0.169853373704765 
947	 0.167497760863024 
948	 0.166006799038703 
949	 0.168407543942709 
950	 0.167984823443497 
951	 0.163838028222805 
952	 0.167885143603105 
953	 0.172070480172659 
954	 0.16872766462516 
955	 0.164527514567336 
956	 0.162504820200871 
957	 0.165482789751072 
958	 0.172536310324237 
959	 0.18048379277873 
960	 0.18313778460972 
961	 0.178797497655173 
962	 0.169258757523105 
963	 0.166515251194932 
964	 0.169283843666016 
965	 0.174428181389022 
966	 0.171360520720868 
967	 0.163700797139591 
968	 0.162004404188134 
969	 0.162592192771984 
970	 0.164206285991793 
971	 0.166130915637139 
972	 0.166597255819692 
973	 0.164712344103139 
974	 0.161638750152049 
975	 0.161114933724965 
976	 0.166510727113968 
977	 0.167912156037691 
978	 0.166140000372119 
979	 0.1674464172442 
980	 0.166471137036756 
981	 0.163848785910263 
982	 0.167496286467069 
983	 0.169982363498632 
984	 0.168377558462909 
985	 0.171502725904795 
986	 0.176047634133693 
987	 0.177706394493454 
988	 0.175921812985439 
989	 0.172327961642771 
990	 0.170485405552868 
991	 0.168362303418546 
992	 0.167057319967815 
993	 0.172787518214809 
994	 0.174646124787775 
995	 0.168947640765788 
996	 0.170223828044675 
997	 0.171999172759578 
998	 0.167596118574974 
999	 0.165828244447189 
1000	 0.166172240795534 
1001	 0.165180204646052 
1002	 0.16412856540464 
1003	 0.164513472075097 
1004	 0.170013019712047 
1005	 0.17621391312634 
1006	 0.180041214269171 
1007	 0.177265687564604 
1008	 0.172567177814279 
1009	 0.170010857915522 
1010	 0.168411898745339 
1011	 0.167836872232946 
1012	 0.168491611089178 
1013	 0.171601804644727 
1014	 0.175965051001621 
1015	 0.178483798149688 
1016	 0.179668890399754 
1017	 0.179520248672147 
1018	 0.17776715092952 
1019	 0.175380978776587 
1020	 0.173137702686042 
1021	 0.171251293656426 
1022	 0.16854752508305 
1023	 0.165019489701653 
1024	 0.17330257572541 
1025	 0.182997306352019 
1026	 0.174346397663075 
1027	 0.173026023497952 
1028	 0.179274440366117 
1029	 0.174442947150198 
1030	 0.170854169396176 
1031	 0.172027822856162 
1032	 0.172711136973875 
1033	 0.17243771686047 
1034	 0.171325530903728 
1035	 0.171388588548002 
1036	 0.175461858933686 
1037	 0.184573981878169 
1038	 0.180861350318986 
1039	 0.171904621176775 
1040	 0.176369671958309 
1041	 0.182185336432131 
1042	 0.187176190060049 
1043	 0.195683705254081 
1044	 0.189173266985179 
1045	 0.170832927460601 
1046	 0.185938256920169 
1047	 0.190616511729434 
1048	 0.165084052334506 
1049	 0.167845962441142 
1050	 0.175478657501134 
1051	 0.163832043797095 
1052	 0.171691040563277 
1053	 0.187590795675076 
1054	 0.187025508775362 
1055	 0.183331452962524 
1056	 0.183029559056996 
1057	 0.196934611318606 
1058	 0.18128153496011 
1059	 0.141950251108792 
1060	 0.15194442438219 
1061	 0.176269725401271 
1062	 0.193766187240236 
1063	 0.190498885132962 
1064	 0.190958493898672 
1065	 0.209113520691263 
1066	 0.203575897484805 
1067	 0.186425067700969 
1068	 0.174437309026879 
1069	 0.167150246826419 
1070	 0.171114868576664 
1071	 0.19208446345166 
1072	 0.212578322893975 
1073	 0.217172648336085 
1074	 0.168622722353759 
1075	 0.167748518700891 
