Wavelength	SHSI00379.asd
325	 6.93123543678499E-02 
326	 8.02129996794988E-02 
327	 9.15393799888757E-02 
328	 8.73687622880767E-02 
329	 8.26534000820067E-02 
330	 8.25222789370417E-02 
331	 8.33610143121254E-02 
332	 8.22225301517494E-02 
333	 7.69403573805428E-02 
334	 7.61266486437097E-02 
335	 7.81375679806681E-02 
336	 7.51996244162211E-02 
337	 7.52108365616351E-02 
338	 7.87476145506024E-02 
339	 7.76488942930165E-02 
340	 0.07508887071385 
341	 7.38959494382228E-02 
342	 7.15329428069993E-02 
343	 0.070123854116601 
344	 7.45526097004986E-02 
345	 7.54526806418901E-02 
346	 7.25929199347146E-02 
347	 7.59926174111854E-02 
348	 0.07704161903987 
349	 7.13518358171497E-02 
350	 7.35232870945144E-02 
351	 7.81687802441298E-02 
352	 0.074183630310344 
353	 0.071216191457942 
354	 7.18733524176258E-02 
355	 0.076639034565127 
356	 7.94523243315468E-02 
357	 7.71744764051317E-02 
358	 7.52223246259734E-02 
359	 7.42811138398434E-02 
360	 7.42537393116583E-02 
361	 7.32448392224844E-02 
362	 7.14214766586472E-02 
363	 7.08170125989339E-02 
364	 7.10156883352989E-02 
365	 0.071775266039258 
366	 0.073471402093313 
367	 7.43814397554434E-02 
368	 7.22541797735238E-02 
369	 7.25333927776019E-02 
370	 7.49944591976384E-02 
371	 7.43643474239449E-02 
372	 7.40777268239758E-02 
373	 7.56882992947152E-02 
374	 7.67461026191862E-02 
375	 7.64058166984643E-02 
376	 7.39871769074829E-02 
377	 7.17298205972494E-02 
378	 7.05237767019032E-02 
379	 7.09381950483323E-02 
380	 0.071681992354376 
381	 7.22483397933671E-02 
382	 7.44370452496561E-02 
383	 7.63625271244343E-02 
384	 7.54265955606252E-02 
385	 7.40621237669806E-02 
386	 7.28906698490975E-02 
387	 7.15540780255051E-02 
388	 7.11590632972373E-02 
389	 7.18820635990816E-02 
390	 7.17603796455228E-02 
391	 7.13038174417239E-02 
392	 7.13138495533722E-02 
393	 7.21487368607861E-02 
394	 0.073215725724102 
395	 7.30225440809714E-02 
396	 7.10014005220739E-02 
397	 6.77121327930348E-02 
398	 6.70570905407827E-02 
399	 0.067577180441529 
400	 6.74321125690205E-02 
401	 6.74379312120852E-02 
402	 6.77289450370568E-02 
403	 0.068495225446517 
404	 6.88014195991362E-02 
405	 0.068438358514745 
406	 6.86678090046091E-02 
407	 6.93612229004196E-02 
408	 7.01965966737873E-02 
409	 7.02352677572382E-02 
410	 6.94977673554964E-02 
411	 6.85503247040412E-02 
412	 6.82855362563177E-02 
413	 6.89784102098245E-02 
414	 6.93942088975094E-02 
415	 6.94998379911943E-02 
416	 6.94408680988673E-02 
417	 6.92284658683557E-02 
418	 6.90447737501811E-02 
419	 6.93971037089907E-02 
420	 0.069644359205122 
421	 6.95351575210719E-02 
422	 7.00480094000653E-02 
423	 7.04461522979356E-02 
424	 6.95151415958588E-02 
425	 6.94093833643591E-02 
426	 7.03816884053932E-02 
427	 7.12886720982872E-02 
428	 7.16889540981977E-02 
429	 7.13313735096157E-02 
430	 7.08612116643868E-02 
431	 7.04197278674148E-02 
432	 7.00640538451751E-02 
433	 6.96288617590329E-02 
434	 6.92830487571498E-02 
435	 6.97327126942192E-02 
436	 0.070300017701632 
437	 7.04916339599256E-02 
438	 7.01984474258698E-02 
439	 6.98239377385053E-02 
440	 7.01430410721948E-02 
441	 7.03159377435517E-02 
442	 7.02259098859128E-02 
443	 7.05195326972176E-02 
444	 7.07974469502786E-02 
445	 7.07581135842269E-02 
446	 7.09195166966007E-02 
447	 7.12488327557158E-02 
448	 7.14875225645716E-02 
449	 0.071714842770325 
450	 7.19208405931634E-02 
451	 7.19761954664777E-02 
452	 7.20253948056019E-02 
453	 7.22061827642216E-02 
454	 7.22566242641167E-02 
455	 7.22195360539906E-02 
456	 7.23711978921256E-02 
457	 7.24178190790084E-02 
458	 7.22944921826548E-02 
459	 7.23418542863973E-02 
460	 7.25031247379616E-02 
461	 7.26766143185983E-02 
462	 7.29519427656928E-02 
463	 7.31776341786217E-02 
464	 7.28201628643231E-02 
465	 7.26755580409473E-02 
466	 7.30458973540376E-02 
467	 7.28518076008644E-02 
468	 7.24936406418933E-02 
469	 7.27186842835518E-02 
470	 7.29896331699557E-02 
471	 7.31319933031578E-02 
472	 7.30882975561435E-02 
473	 7.28935463604601E-02 
474	 7.26552123053149E-02 
475	 7.29875058766083E-02 
476	 7.35601267605128E-02 
477	 7.36879657169249E-02 
478	 7.34718555989883E-02 
479	 7.31093684701806E-02 
480	 7.32825154062734E-02 
481	 7.35868345152644E-02 
482	 0.07369404572615 
483	 7.39350696807153E-02 
484	 7.42355069618948E-02 
485	 7.43150463366833E-02 
486	 7.42929762619192E-02 
487	 7.42069727168979E-02 
488	 7.40690039663603E-02 
489	 7.38204738049504E-02 
490	 7.34280275656795E-02 
491	 7.33963547457364E-02 
492	 7.37256940567641E-02 
493	 7.41899125098812E-02 
494	 7.44348804622206E-02 
495	 7.43643604288106E-02 
496	 7.45621492045164E-02 
497	 7.48928038169016E-02 
498	 7.51110992949801E-02 
499	 0.075036102722261 
500	 7.48127653967404E-02 
501	 7.50499572520473E-02 
502	 7.55173561397315E-02 
503	 7.59950237822303E-02 
504	 7.60047912261973E-02 
505	 7.58035953530032E-02 
506	 0.075912090780353 
507	 7.60866784891069E-02 
508	 7.63120054825279E-02 
509	 7.67598258575152E-02 
510	 7.72404168134686E-02 
511	 7.76018537539162E-02 
512	 7.79140049137417E-02 
513	 7.83136636233608E-02 
514	 7.91511907515544E-02 
515	 7.96850307834294E-02 
516	 7.97224673577912E-02 
517	 7.98927144139597E-02 
518	 8.01631254242566E-02 
519	 8.04358718288235E-02 
520	 8.04568061682689E-02 
521	 8.04427463719271E-02 
522	 0.081097793286048 
523	 0.081844100309987 
524	 8.23922980727563E-02 
525	 8.27624214933539E-02 
526	 8.30136794694665E-02 
527	 8.32283241034181E-02 
528	 8.34425423360542E-02 
529	 8.37042382800535E-02 
530	 8.41028434014024E-02 
531	 8.45697578146469E-02 
532	 8.50408443441469E-02 
533	 8.53796540350186E-02 
534	 8.56023484097134E-02 
535	 0.085756999580325 
536	 8.61489199082348E-02 
537	 8.67654957265406E-02 
538	 0.087046339910362 
539	 8.71905340068137E-02 
540	 8.74099091726036E-02 
541	 8.75175729304646E-02 
542	 8.75967669585392E-02 
543	 8.79532899836042E-02 
544	 8.82687918613037E-02 
545	 8.84188594466627E-02 
546	 8.85232691256671E-02 
547	 8.86781140781794E-02 
548	 0.088989171788981 
549	 8.93294118676784E-02 
550	 8.96198804140181E-02 
551	 8.97216258621419E-02 
552	 8.98635332251778E-02 
553	 9.01718689055715E-02 
554	 9.03835478851994E-02 
555	 0.090542746633797 
556	 9.08183088536338E-02 
557	 9.09032817075541E-02 
558	 9.07783780082395E-02 
559	 9.08061552503712E-02 
560	 9.09786248327472E-02 
561	 9.12566712113403E-02 
562	 9.14658419647649E-02 
563	 9.15271135149101E-02 
564	 9.13140213726654E-02 
565	 9.12313595726678E-02 
566	 9.13992874278924E-02 
567	 9.13535286531325E-02 
568	 9.12699060296925E-02 
569	 9.14216247931956E-02 
570	 9.15474160453489E-02 
571	 9.15385772012597E-02 
572	 9.12707633336298E-02 
573	 9.10100777460746E-02 
574	 9.09205791624477E-02 
575	 9.08709707487297E-02 
576	 9.08238152656593E-02 
577	 9.07382211106592E-02 
578	 9.07421767330779E-02 
579	 9.08101905274159E-02 
580	 9.06332119571533E-02 
581	 9.05191485064465E-02 
582	 9.07159197493385E-02 
583	 9.06681439478421E-02 
584	 0.09045863215574 
585	 9.06223776697552E-02 
586	 9.04610121431166E-02 
587	 0.089894664134678 
588	 0.090234772658646 
589	 9.09362321635565E-02 
590	 9.11154583658748E-02 
591	 9.06673114491269E-02 
592	 8.99120866576187E-02 
593	 0.089903546219993 
594	 9.00705369903078E-02 
595	 0.090071435686147 
596	 8.99690489483207E-02 
597	 8.99057303249114E-02 
598	 9.01369267678021E-02 
599	 9.02703431606315E-02 
600	 9.01818421258386E-02 
601	 8.99088029067752E-02 
602	 0.089746325399656 
603	 8.99247245943599E-02 
604	 8.99440703079902E-02 
605	 0.089843146359923 
606	 8.99958355185343E-02 
607	 9.00031492153143E-02 
608	 8.97444302705327E-02 
609	 8.95127410622913E-02 
610	 8.94149451403079E-02 
611	 8.95402936521613E-02 
612	 8.91305074813629E-02 
613	 8.84048002458598E-02 
614	 8.87527660756845E-02 
615	 8.90809205737729E-02 
616	 8.87603316882931E-02 
617	 8.84943075993822E-02 
618	 8.83876308329265E-02 
619	 8.84502311909977E-02 
620	 8.85336236606551E-02 
621	 8.85450295818871E-02 
622	 8.83408241658301E-02 
623	 0.088136267206383 
624	 8.81308434063418E-02 
625	 8.82378429107314E-02 
626	 8.83806940275615E-02 
627	 8.84540827332161E-02 
628	 8.83118120558114E-02 
629	 8.79493878466327E-02 
630	 8.77192503510626E-02 
631	 8.76869688301113E-02 
632	 8.78791482381165E-02 
633	 8.80370341308516E-02 
634	 8.80238521836005E-02 
635	 0.087604797419083 
636	 8.74555152179628E-02 
637	 8.78922194354999E-02 
638	 0.08793549075837 
639	 8.76823763982968E-02 
640	 8.75374344171677E-02 
641	 8.74777305769401E-02 
642	 8.74511170133837E-02 
643	 8.71711394674122E-02 
644	 8.69419212146215E-02 
645	 8.70104688688595E-02 
646	 8.68817029367104E-02 
647	 8.65687994218581E-02 
648	 8.63669933260822E-02 
649	 8.61001095071222E-02 
650	 0.085778011709351 
651	 8.57920193650122E-02 
652	 8.58618243076608E-02 
653	 8.56222397845177E-02 
654	 8.54400479935781E-02 
655	 8.53475289085923E-02 
656	 8.52289881249378E-02 
657	 8.48197652520029E-02 
658	 8.40708404870695E-02 
659	 8.36233859205526E-02 
660	 8.33125414609195E-02 
661	 8.27388450926314E-02 
662	 8.25200983232356E-02 
663	 8.26084415998166E-02 
664	 0.082071369869153 
665	 8.13518856792592E-02 
666	 8.08558887598025E-02 
667	 8.05230298058359E-02 
668	 8.03140203187491E-02 
669	 8.01341038253092E-02 
670	 8.00100698126582E-02 
671	 7.99286331976706E-02 
672	 0.07981631143472 
673	 7.96896894570519E-02 
674	 7.95749236312029E-02 
675	 7.94503182948385E-02 
676	 7.93846840454533E-02 
677	 0.079575150674984 
678	 0.079849439186568 
679	 8.01265757639455E-02 
680	 8.06253251924215E-02 
681	 8.10077957977804E-02 
682	 8.06842139309311E-02 
683	 8.09937278570475E-02 
684	 8.20539726067794E-02 
685	 8.26572094198481E-02 
686	 8.34182622752312E-02 
687	 8.48121974015794E-02 
688	 8.56218087674436E-02 
689	 8.61580945236672E-02 
690	 8.77883710620945E-02 
691	 8.93234895086371E-02 
692	 9.05107223739757E-02 
693	 9.19245246643419E-02 
694	 9.33570380490554E-02 
695	 9.45154430863439E-02 
696	 9.56387718573183E-02 
697	 9.69757232723596E-02 
698	 9.92385629277964E-02 
699	 0.100905898211079 
700	 0.101390579343494 
701	 0.102428272502336 
702	 0.103799562956184 
703	 0.10492989144497 
704	 0.10616293296276 
705	 0.107443613597213 
706	 0.108290685796249 
707	 0.109165542626381 
708	 0.110320032031236 
709	 0.111243844079054 
710	 0.111905811610578 
711	 0.112338768978506 
712	 0.113216603632707 
713	 0.11446853655253 
714	 0.1147542630168 
715	 0.114816998440711 
716	 0.115412480870101 
717	 0.11633102835406 
718	 0.11727423451916 
719	 0.117237518334951 
720	 0.117440014356734 
721	 0.118196677554705 
722	 0.118751132281553 
723	 0.11922509915569 
724	 0.11974192385971 
725	 0.119856497018951 
726	 0.119694543763548 
727	 0.119975055781307 
728	 0.120342539465218 
729	 0.12065886015229 
730	 0.121245714525036 
731	 0.121793793361193 
732	 0.121862895166041 
733	 0.121798584105286 
734	 0.121812087649256 
735	 0.122313830764074 
736	 0.122666110225791 
737	 0.12251668687596 
738	 0.122921339718102 
739	 0.123542999683555 
740	 0.123464135745011 
741	 0.12352150725854 
742	 0.123867817609723 
743	 0.124014218061526 
744	 0.124086974499941 
745	 0.124216784612646 
746	 0.124500757457874 
747	 0.124839377705266 
748	 0.124964034355896 
749	 0.125029075654712 
750	 0.125112981087343 
751	 0.125365186941956 
752	 0.125484155055469 
753	 0.12517141214114 
754	 0.125106407604917 
755	 0.125297696960877 
756	 0.125400180286979 
757	 0.125139055780861 
758	 0.12448721224233 
759	 0.124657520567384 
760	 0.125986665158134 
761	 0.127602309222776 
762	 0.127556255077045 
763	 0.12645411528386 
764	 0.126575996234483 
765	 0.127047818373017 
766	 0.127432871793518 
767	 0.127448325465655 
768	 0.12725897385465 
769	 0.127028688685009 
770	 0.127325479070872 
771	 0.127975616384373 
772	 0.127812736175946 
773	 0.127479964816263 
774	 0.127426177462155 
775	 0.127517165138256 
776	 0.127720627386371 
777	 0.128003341601603 
778	 0.128266408343431 
779	 0.12846837714551 
780	 0.128648268975216 
781	 0.128701686568172 
782	 0.128589242705372 
783	 0.128778301342849 
784	 0.129162701731515 
785	 0.129354508163684 
786	 0.129490675130356 
787	 0.129585197572027 
788	 0.129509481259143 
789	 0.129549596059564 
790	 0.129932528691577 
791	 0.129980107102004 
792	 0.129758481541856 
793	 0.12972863733983 
794	 0.12979872881205 
795	 0.129978076608397 
796	 0.13044389816549 
797	 0.130678428999394 
798	 0.130212047394646 
799	 0.130028446049122 
800	 0.130113714542127 
801	 0.129766518166487 
802	 0.12996286389528 
803	 0.13087417374075 
804	 0.131223056796956 
805	 0.131329026221519 
806	 0.13161406001551 
807	 0.131181668488788 
808	 0.130455599063019 
809	 0.131140257345618 
810	 0.131836075379515 
811	 0.131929093845345 
812	 0.131719215795867 
813	 0.131504848155951 
814	 0.131658308122406 
815	 0.132127936908656 
816	 0.132650864321678 
817	 0.132480017100867 
818	 0.132290944857837 
819	 0.132396023505551 
820	 0.132636285424705 
821	 0.132936934418389 
822	 0.133226214048707 
823	 0.133675322297259 
824	 0.134126593981134 
825	 0.134144328698674 
826	 0.133932161176192 
827	 0.133653263023635 
828	 0.133713838071708 
829	 0.133924390134199 
830	 0.133996567879888 
831	 0.133972662496888 
832	 0.13382001991401 
833	 0.133311100580552 
834	 0.133478361705523 
835	 0.134514145710464 
836	 0.134821125330105 
837	 0.13446953132427 
838	 0.133750632411243 
839	 0.134020151096206 
840	 0.134978017193258 
841	 0.134882858990973 
842	 0.134663755631466 
843	 0.134653386115118 
844	 0.134363536571614 
845	 0.134446151709035 
846	 0.135550639404932 
847	 0.134897094402867 
848	 0.133044438704292 
849	 0.133190790397945 
850	 0.134193290970454 
851	 0.135374048808535 
852	 0.135403774949777 
853	 0.135128667976745 
854	 0.135541805016455 
855	 0.135363323174426 
856	 0.134935463026403 
857	 0.135815425054267 
858	 0.135996181486855 
859	 0.135146431689993 
860	 0.135325721026951 
861	 0.135640476646564 
862	 0.135212829792284 
863	 0.135465534153724 
864	 0.135999783754721 
865	 0.135215747525232 
866	 0.134936225513095 
867	 0.135587184283512 
868	 0.136019267912581 
869	 0.136142783673084 
870	 0.135962533979843 
871	 0.135882898669495 
872	 0.135925231646669 
873	 0.135933917773936 
874	 0.13653770947026 
875	 0.13765998431398 
876	 0.138471888387019 
877	 0.137883902368098 
878	 0.13563636343913 
879	 0.136110434780363 
880	 0.13789381621406 
881	 0.137685314421367 
882	 0.137927415019132 
883	 0.138769685307438 
884	 0.138617522078364 
885	 0.138047316867379 
886	 0.137497318666703 
887	 0.137513378565566 
888	 0.137649781617105 
889	 0.137244433299273 
890	 0.137282146031531 
891	 0.13761816738501 
892	 0.136969422550235 
893	 0.13684371197155 
894	 0.137706937629285 
895	 0.137597388481756 
896	 0.137293087785028 
897	 0.137912171626718 
898	 0.139353059362572 
899	 0.140795791567893 
900	 0.140405764765885 
901	 0.139609549334101 
902	 0.139100243247562 
903	 0.139421440432721 
904	 0.139923116460317 
905	 0.140088876619185 
906	 0.140248112544816 
907	 0.140405843757079 
908	 0.140471939578851 
909	 0.141348285520968 
910	 0.142637387337964 
911	 0.141615363160949 
912	 0.14193231678112 
913	 0.144950136095811 
914	 0.144968914098328 
915	 0.142788900342388 
916	 0.140270303034957 
917	 0.139529500185428 
918	 0.139796741617788 
919	 0.137191526952984 
920	 0.136602033684657 
921	 0.138989364112437 
922	 0.140038867060004 
923	 0.139881640543793 
924	 0.139033191088093 
925	 0.140393829124313 
926	 0.141964170640546 
927	 0.138173459954137 
928	 0.135753176063922 
929	 0.136592865611965 
930	 0.136279569558817 
931	 0.137603905916903 
932	 0.141981554152727 
933	 0.141340888209926 
934	 0.139859263049623 
935	 0.1452156837309 
936	 0.143163224449355 
937	 0.135667028768104 
938	 0.136271415452551 
939	 0.137305187567955 
940	 0.137684610921903 
941	 0.143516246667394 
942	 0.148998028193564 
943	 0.1491597194461 
944	 0.143746742613897 
945	 0.13856870693669 
946	 0.14267794755686 
947	 0.148683523529209 
948	 0.151921984849944 
949	 0.144456260589645 
950	 0.138699120923771 
951	 0.139698868290013 
952	 0.14214799766522 
953	 0.14404443234234 
954	 0.143810792655572 
955	 0.141653626688177 
956	 0.139119518014521 
957	 0.138489666091961 
958	 0.140883330722842 
959	 0.144574952975536 
960	 0.144092235915421 
961	 0.140504229851624 
962	 0.135846700073861 
963	 0.136627928465069 
964	 0.140184697596253 
965	 0.143061509450357 
966	 0.142251306506088 
967	 0.140047622365244 
968	 0.14215256772478 
969	 0.142471759384629 
970	 0.140380309400059 
971	 0.139702231759622 
972	 0.140112482713227 
973	 0.14110572917425 
974	 0.140366775821191 
975	 0.139814150336422 
976	 0.141488568150227 
977	 0.13863578839224 
978	 0.134243081470515 
979	 0.137425079332721 
980	 0.139759027817521 
981	 0.139940942419321 
982	 0.143756686261722 
983	 0.143330284057754 
984	 0.136944785544758 
985	 0.142125838898505 
986	 0.149543336380336 
987	 0.148265696733399 
988	 0.146871686654413 
989	 0.146558598653459 
990	 0.146860958126956 
991	 0.143106613781822 
992	 0.137120298305944 
993	 0.140163765720346 
994	 0.14449677897038 
995	 0.145814325215841 
996	 0.144883205582758 
997	 0.142797139657157 
998	 0.141052385419352 
999	 0.144145073122887 
1000	 0.147681858865022 
1001	 0.142925102541532 
1002	 0.140569896239696 
1003	 0.142463541013014 
1004	 0.144892005014489 
1005	 0.145292031878867 
1006	 0.143129180917202 
1007	 0.142098213603239 
1008	 0.142897956484044 
1009	 0.14547056687891 
1010	 0.146646787310678 
1011	 0.145900189596534 
1012	 0.143312350399715 
1013	 0.142624441522009 
1014	 0.143290704864848 
1015	 0.141625869890933 
1016	 0.140315234009657 
1017	 0.139490805419222 
1018	 0.135298827668953 
1019	 0.137771441688226 
1020	 0.149098887540383 
1021	 0.147099873079921 
1022	 0.140181160029497 
1023	 0.139077063695044 
1024	 0.142854769804654 
1025	 0.149725731038038 
1026	 0.156562995562412 
1027	 0.162302612861225 
1028	 0.162344057780696 
1029	 0.142907355711404 
1030	 0.133879505816706 
1031	 0.142707997141807 
1032	 0.144359730467936 
1033	 0.142877329762024 
1034	 0.142560419320029 
1035	 0.153643207155506 
1036	 0.161665637026746 
1037	 0.152322408329036 
1038	 0.147203557237412 
1039	 0.146147293060965 
1040	 0.142515769497244 
1041	 0.145172547783309 
1042	 0.151301232194355 
1043	 0.145449401142216 
1044	 0.152175738461053 
1045	 0.171597427514778 
1046	 0.166887464662844 
1047	 0.153889925925097 
1048	 0.144694664268693 
1049	 0.143478335333487 
1050	 0.142501838861936 
1051	 0.135437331232366 
1052	 0.145569340367388 
1053	 0.157818477959523 
1054	 0.147160388848417 
1055	 0.146525725642327 
1056	 0.158844403195658 
1057	 0.17425422577961 
1058	 0.170596678771773 
1059	 0.151254728672058 
1060	 0.160715455457036 
1061	 0.155521485915671 
1062	 0.128632583286677 
1063	 0.14602748218714 
1064	 0.16418296748865 
1065	 0.15219399130241 
1066	 0.156688010420595 
1067	 0.156968456164899 
1068	 0.129208141281268 
1069	 0.128416767164532 
1070	 0.150004761000588 
1071	 0.162851887957579 
1072	 0.178555417447794 
1073	 0.192151099294695 
1074	 0.180469207283312 
1075	 0.166605018797738 
