Wavelength	SHSI00114.asd
325	 2.30372075523233E-02 
326	 3.20700010727664E-02 
327	 4.45818164579091E-02 
328	 4.60255031789781E-02 
329	 4.25811893489318E-02 
330	 3.82914486988389E-02 
331	 4.01286813275925E-02 
332	 4.48037697515971E-02 
333	 4.83372379443231E-02 
334	 4.52247900065055E-02 
335	 0.037820705157844 
336	 3.23309643770039E-02 
337	 3.33824623470752E-02 
338	 3.99199595032169E-02 
339	 4.00756669135801E-02 
340	 3.78073739350454E-02 
341	 3.70034832305563E-02 
342	 3.81177284011647E-02 
343	 3.97123429563486E-02 
344	 3.86778805574056E-02 
345	 3.97897913659201E-02 
346	 4.24394824161047E-02 
347	 3.93658611393252E-02 
348	 3.53872957924586E-02 
349	 3.42619344196229E-02 
350	 3.88228725914264E-02 
351	 4.32481511573724E-02 
352	 3.80709204544091E-02 
353	 0.037388261213776 
354	 4.18127404681646E-02 
355	 4.04724369442217E-02 
356	 3.73711606915583E-02 
357	 0.035359477375125 
358	 3.52883604614844E-02 
359	 3.66906922676456E-02 
360	 3.86999712177252E-02 
361	 3.85782473743963E-02 
362	 3.60388041588788E-02 
363	 3.20645303448731E-02 
364	 3.14503943437596E-02 
365	 3.57838928494335E-02 
366	 3.77971252040417E-02 
367	 3.71327477176351E-02 
368	 3.44009683418282E-02 
369	 3.48796078545813E-02 
370	 3.77688998796562E-02 
371	 3.58552234822531E-02 
372	 3.40883766192016E-02 
373	 3.48865740342159E-02 
374	 3.54304453568739E-02 
375	 0.03534263755267 
376	 3.45483175992547E-02 
377	 3.39684354361117E-02 
378	 3.36583646815344E-02 
379	 3.27402640299191E-02 
380	 3.27232650062946E-02 
381	 3.39175736186274E-02 
382	 3.30721742353748E-02 
383	 0.031982390529025 
384	 0.033338944116083 
385	 0.033898056237671 
386	 3.31348425469035E-02 
387	 3.20446812777848E-02 
388	 3.08119203310162E-02 
389	 3.00828099761618E-02 
390	 3.29113947674717E-02 
391	 3.52770397349016E-02 
392	 3.26226701900687E-02 
393	 3.18304939043806E-02 
394	 3.29928621009612E-02 
395	 3.17350996328048E-02 
396	 3.11693987121631E-02 
397	 3.22101833156748E-02 
398	 3.22095089320212E-02 
399	 3.18160882326959E-02 
400	 3.19147602098469E-02 
401	 3.13356422982111E-02 
402	 3.06501955030115E-02 
403	 3.17432416303168E-02 
404	 3.28730964054718E-02 
405	 3.32280898885403E-02 
406	 3.25437961492867E-02 
407	 3.19471925199084E-02 
408	 3.27968104200444E-02 
409	 3.27437211396201E-02 
410	 3.17945804659356E-02 
411	 3.13851812500487E-02 
412	 3.18892979182967E-02 
413	 3.30554120164929E-02 
414	 3.19520521485497E-02 
415	 3.06525545237407E-02 
416	 3.21272136362505E-02 
417	 0.032901293356199 
418	 0.032538493461387 
419	 3.24190263913942E-02 
420	 0.031980828582475 
421	 3.10965896035131E-02 
422	 3.09058262580062E-02 
423	 3.11374368821716E-02 
424	 3.11892259898377E-02 
425	 3.17208427368398E-02 
426	 3.24670581069973E-02 
427	 3.19290739459414E-02 
428	 3.15181429011923E-02 
429	 3.20557247926655E-02 
430	 3.22328590420281E-02 
431	 3.20287940451808E-02 
432	 3.17174547181261E-02 
433	 3.13088411074588E-02 
434	 3.09535678400494E-02 
435	 3.10452074553571E-02 
436	 3.12137703037961E-02 
437	 3.12180424977579E-02 
438	 3.12441333030488E-02 
439	 0.031411385362139 
440	 3.19279117640392E-02 
441	 3.21844703318748E-02 
442	 3.20205209158886E-02 
443	 3.16915418925123E-02 
444	 3.12771899953602E-02 
445	 3.08908937027879E-02 
446	 3.11282589739569E-02 
447	 3.16837669251981E-02 
448	 3.16642636881983E-02 
449	 0.03171832280953 
450	 3.19604597905304E-02 
451	 3.19381516802546E-02 
452	 3.16774387799653E-02 
453	 0.031257410296157 
454	 3.10955650426172E-02 
455	 0.031350030185861 
456	 0.032272090395594 
457	 3.27863674843394E-02 
458	 3.24121608473845E-02 
459	 3.13382933859625E-02 
460	 3.08254542092494E-02 
461	 3.22546266068622E-02 
462	 3.29673888036463E-02 
463	 3.25367464234256E-02 
464	 3.17064266605988E-02 
465	 3.10767559875542E-02 
466	 3.10508380111668E-02 
467	 3.16147210739839E-02 
468	 3.22045301938396E-02 
469	 0.032025512033064 
470	 3.16070846287646E-02 
471	 3.13881597396209E-02 
472	 3.24211239464437E-02 
473	 3.30815999354702E-02 
474	 3.24334818854644E-02 
475	 3.20655840929492E-02 
476	 3.18647843568681E-02 
477	 3.11572428687936E-02 
478	 3.14550411258289E-02 
479	 3.26322356072585E-02 
480	 3.22873931484105E-02 
481	 3.16907985341313E-02 
482	 3.19111968764092E-02 
483	 3.24015556624819E-02 
484	 3.27575715231776E-02 
485	 3.21275403499379E-02 
486	 3.21675876099444E-02 
487	 3.31448695997843E-02 
488	 3.29787305985814E-02 
489	 3.23186696534849E-02 
490	 3.20164826738748E-02 
491	 3.25860534343969E-02 
492	 3.36819005506642E-02 
493	 3.43162494462979E-02 
494	 3.37668688656352E-02 
495	 3.21465526728026E-02 
496	 3.23701446586048E-02 
497	 3.34142773230642E-02 
498	 3.35942311484475E-02 
499	 3.34801819322487E-02 
500	 3.31585827983858E-02 
501	 3.24376483293641E-02 
502	 3.23466942862199E-02 
503	 3.33491470004336E-02 
504	 3.38388810649726E-02 
505	 3.37629414770069E-02 
506	 3.33679371263676E-02 
507	 3.38204516046557E-02 
508	 3.49366892623614E-02 
509	 3.45262855925337E-02 
510	 3.37441510837172E-02 
511	 3.35824522780433E-02 
512	 3.38935981998941E-02 
513	 3.43357649015128E-02 
514	 3.41254099617641E-02 
515	 3.40564824295276E-02 
516	 3.44063606024156E-02 
517	 3.51327994009022E-02 
518	 3.52745359611485E-02 
519	 3.39348354987756E-02 
520	 3.40794783084152E-02 
521	 3.54247933306823E-02 
522	 3.54780475329034E-02 
523	 3.54614679316936E-02 
524	 3.58505831194961E-02 
525	 3.61251435276552E-02 
526	 3.61825293390015E-02 
527	 3.59501953476198E-02 
528	 0.035731182996327 
529	 0.035711149547019 
530	 3.61830129062711E-02 
531	 3.65568995496293E-02 
532	 0.03650320350611 
533	 3.68821957071481E-02 
534	 3.74339179368913E-02 
535	 0.037419840639119 
536	 3.73037481042585E-02 
537	 3.72536856424467E-02 
538	 3.73408665976934E-02 
539	 3.73765663932799E-02 
540	 3.72082389011425E-02 
541	 3.75521075202924E-02 
542	 3.81554381606564E-02 
543	 3.79937339705516E-02 
544	 3.77607202317789E-02 
545	 3.77260222290539E-02 
546	 0.0375774100232 
547	 3.76214424128336E-02 
548	 3.82764735624818E-02 
549	 3.86318877275933E-02 
550	 3.85282288092908E-02 
551	 3.82647620768185E-02 
552	 0.038203163562225 
553	 3.85334779186793E-02 
554	 0.03871085575441 
555	 3.86854550801376E-02 
556	 3.85090730961263E-02 
557	 3.83953036181249E-02 
558	 3.84954539648081E-02 
559	 3.91154460326268E-02 
560	 0.039519265717738 
561	 3.90690205213355E-02 
562	 3.86756308732507E-02 
563	 3.85606648948949E-02 
564	 3.87830462270369E-02 
565	 3.91477613086341E-02 
566	 3.94447419146824E-02 
567	 3.90154181281297E-02 
568	 3.86725638956475E-02 
569	 3.95082992918937E-02 
570	 0.039915414369682 
571	 3.96540883980835E-02 
572	 3.94156395882215E-02 
573	 3.91590698364779E-02 
574	 3.89316522658285E-02 
575	 3.91648633696459E-02 
576	 3.95883116682962E-02 
577	 0.039585830518738 
578	 3.98711983720176E-02 
579	 4.04381148575114E-02 
580	 4.03731988170542E-02 
581	 0.039844361838044 
582	 3.91340005968963E-02 
583	 3.95758459510545E-02 
584	 0.040625468527594 
585	 4.02248610821436E-02 
586	 3.98148391275598E-02 
587	 3.99425585268028E-02 
588	 4.02876363889264E-02 
589	 0.040558104965078 
590	 4.04027068368379E-02 
591	 4.05103467265372E-02 
592	 4.07400931411137E-02 
593	 3.99693724940532E-02 
594	 3.96580273911828E-02 
595	 0.040509140432468 
596	 4.06834930759687E-02 
597	 4.04841953489935E-02 
598	 4.09145569633425E-02 
599	 4.09464193100911E-02 
600	 4.05047048077225E-02 
601	 4.05603328160486E-02 
602	 4.10676365069379E-02 
603	 4.18722861651787E-02 
604	 0.04201452629447 
605	 4.17280071399347E-02 
606	 4.21928321361222E-02 
607	 4.20224082309942E-02 
608	 4.10201871679976E-02 
609	 4.15045860511149E-02 
610	 4.23635061607648E-02 
611	 4.19539936080945E-02 
612	 4.14229030909717E-02 
613	 4.11885982152862E-02 
614	 4.17261680786306E-02 
615	 4.20229865365331E-02 
616	 0.041556767452706 
617	 4.15641643785059E-02 
618	 4.19737564549317E-02 
619	 4.23650567736992E-02 
620	 4.27244407304324E-02 
621	 0.04296472414079 
622	 4.28909204654393E-02 
623	 4.26698980800449E-02 
624	 4.24507014393266E-02 
625	 4.19019357744966E-02 
626	 4.14887047017228E-02 
627	 4.25913494042604E-02 
628	 4.35107213129668E-02 
629	 4.35352397961776E-02 
630	 4.30588132054266E-02 
631	 4.27583011415034E-02 
632	 0.043402188626189 
633	 4.39282941019009E-02 
634	 4.40462073465874E-02 
635	 4.38066654096057E-02 
636	 4.32182992920972E-02 
637	 4.25148198948042E-02 
638	 4.34201617839182E-02 
639	 4.46424022925408E-02 
640	 4.34520644698434E-02 
641	 4.27671113739458E-02 
642	 4.34257190508701E-02 
643	 4.49851148174706E-02 
644	 4.55259868882456E-02 
645	 4.36032963522239E-02 
646	 4.33231702045642E-02 
647	 4.43550687403352E-02 
648	 4.35065212617345E-02 
649	 4.31875288963181E-02 
650	 4.40910088220225E-02 
651	 4.46311662528994E-02 
652	 4.46509158569252E-02 
653	 4.41433970277959E-02 
654	 4.42165795497482E-02 
655	 4.47985409054185E-02 
656	 4.44972409766873E-02 
657	 4.42443885737675E-02 
658	 4.44850423117649E-02 
659	 4.41088332107747E-02 
660	 4.34821261070203E-02 
661	 4.33527406355478E-02 
662	 4.34415191903866E-02 
663	 4.37066908001498E-02 
664	 0.044319345586888 
665	 4.46655205839239E-02 
666	 0.044298708804495 
667	 4.44035699579746E-02 
668	 4.46368804737261E-02 
669	 4.35132719472042E-02 
670	 4.28507032877548E-02 
671	 4.32734218668361E-02 
672	 4.40707442789427E-02 
673	 4.47063157455522E-02 
674	 4.46583325831595E-02 
675	 4.45753015475169E-02 
676	 4.45468422463351E-02 
677	 4.42014778541679E-02 
678	 4.45340486639198E-02 
679	 4.58220674018031E-02 
680	 4.58780223010774E-02 
681	 0.045389312043906 
682	 4.58662229479713E-02 
683	 4.62830629048446E-02 
684	 4.65154960522758E-02 
685	 4.71533988554151E-02 
686	 4.80801037864141E-02 
687	 4.91965556649999E-02 
688	 5.07034927487276E-02 
689	 5.18745073218447E-02 
690	 5.14040004727909E-02 
691	 5.15860517674989E-02 
692	 5.28223946212372E-02 
693	 5.29043614607554E-02 
694	 5.32508656529193E-02 
695	 5.53220812771292E-02 
696	 5.63113540293101E-02 
697	 5.65305098191508E-02 
698	 0.058559005840333 
699	 5.99075820094336E-02 
700	 0.05968451551075 
701	 6.06820012235596E-02 
702	 6.21207283979099E-02 
703	 0.062523871911765 
704	 0.063166439586552 
705	 6.41737090211006E-02 
706	 6.49319286894594E-02 
707	 6.53496476273176E-02 
708	 6.54478755100112E-02 
709	 6.59103502649017E-02 
710	 0.066782871662968 
711	 6.79893402088932E-02 
712	 6.88099674449389E-02 
713	 6.91895902328274E-02 
714	 7.01127974254342E-02 
715	 7.10918700805079E-02 
716	 7.16762535810607E-02 
717	 7.19094460150841E-02 
718	 7.21602413390979E-02 
719	 7.35017409394619E-02 
720	 7.48734167738016E-02 
721	 7.56141133579272E-02 
722	 0.075219892817457 
723	 7.47596354147212E-02 
724	 0.07543267371147 
725	 7.63386616063309E-02 
726	 0.077171832134813 
727	 7.78984268973863E-02 
728	 7.86786400723592E-02 
729	 7.94770693314259E-02 
730	 7.94512912863522E-02 
731	 7.93950324068837E-02 
732	 8.04703970714057E-02 
733	 8.10640331951306E-02 
734	 8.10783569090387E-02 
735	 8.13574364939376E-02 
736	 8.19342383038567E-02 
737	 8.27384541549968E-02 
738	 8.30242905166327E-02 
739	 8.30480717172008E-02 
740	 8.34561017877875E-02 
741	 8.41668962003036E-02 
742	 8.49972242814542E-02 
743	 8.52402625504905E-02 
744	 8.55327087088626E-02 
745	 8.64000811577074E-02 
746	 8.72216833837325E-02 
747	 8.78612239105952E-02 
748	 8.83608902748761E-02 
749	 8.83574271053446E-02 
750	 8.79496170683835E-02 
751	 8.82158631062109E-02 
752	 8.92330320984278E-02 
753	 9.08934378107688E-02 
754	 9.12908718726777E-02 
755	 9.06554430914343E-02 
756	 9.08426910152547E-02 
757	 9.11095424774614E-02 
758	 9.12508839906135E-02 
759	 9.19690395511917E-02 
760	 9.36541813041862E-02 
761	 9.51536646985358E-02 
762	 9.62721374436814E-02 
763	 9.67493398319975E-02 
764	 9.60177590544517E-02 
765	 9.63809571729073E-02 
766	 9.78949361491922E-02 
767	 0.096981434458129 
768	 0.09590023553434 
769	 0.09745755042412 
770	 9.81922359030158E-02 
771	 9.79581877035097E-02 
772	 9.94212973814234E-02 
773	 0.100659508693354 
774	 0.100471952449965 
775	 0.100229100287564 
776	 0.100504240186803 
777	 0.102001986942887 
778	 0.102667964773909 
779	 0.102329729266536 
780	 0.103238589663047 
781	 0.104133287024227 
782	 0.104079634346114 
783	 0.104745379346209 
784	 0.105785023533925 
785	 0.105896197160129 
786	 0.105919822437801 
787	 0.106217686570387 
788	 0.107117060485765 
789	 0.107953792673709 
790	 0.108111162906551 
791	 0.108352398513161 
792	 0.108563462699084 
793	 0.107832950389578 
794	 0.108856135118965 
795	 0.111872144363869 
796	 0.112852391225178 
797	 0.112566370895154 
798	 0.112109686834622 
799	 0.112032993005606 
800	 0.112541590013831 
801	 0.11371541053058 
802	 0.114861326611368 
803	 0.115628437464809 
804	 0.116249866387228 
805	 0.11642419892374 
806	 0.115907668519433 
807	 0.116565502927152 
808	 0.11821466614149 
809	 0.119176739233019 
810	 0.119929557050489 
811	 0.120488244329474 
812	 0.119923154210665 
813	 0.119477370465047 
814	 0.120886001795726 
815	 0.122234656186001 
816	 0.123228006425578 
817	 0.124844776640139 
818	 0.125619019111955 
819	 0.12522338397649 
820	 0.125342460331894 
821	 0.12611357478687 
822	 0.127484445742013 
823	 0.127804013767684 
824	 0.127147716922284 
825	 0.12685803725769 
826	 0.12696539941581 
827	 0.127608411154846 
828	 0.129091531877706 
829	 0.130775895987449 
830	 0.13184094336987 
831	 0.132456704683791 
832	 0.13289389415244 
833	 0.133897664884572 
834	 0.13445227893812 
835	 0.134327231469294 
836	 0.134857592138582 
837	 0.135616824289957 
838	 0.135989775959734 
839	 0.135778621208509 
840	 0.135586454857688 
841	 0.137265423615418 
842	 0.138851248746487 
843	 0.139352156550908 
844	 0.138326713552963 
845	 0.138033947295263 
846	 0.140858728756464 
847	 0.142671807852357 
848	 0.143105444023716 
849	 0.143893256804402 
850	 0.144224902218632 
851	 0.144003117016957 
852	 0.144271383257652 
853	 0.144842983047845 
854	 0.145426374527798 
855	 0.146149335659357 
856	 0.147055272663327 
857	 0.148363702847688 
858	 0.14903085857692 
859	 0.148925489511423 
860	 0.149527927048688 
861	 0.149696449797048 
862	 0.148525555630574 
863	 0.15007142771528 
864	 0.152871801116916 
865	 0.151552367899636 
866	 0.151531523266499 
867	 0.153973268352922 
868	 0.154995102536954 
869	 0.156376923129396 
870	 0.159197013814636 
871	 0.157957630517712 
872	 0.155386601729637 
873	 0.15833808236483 
874	 0.160409038885496 
875	 0.160173361603517 
876	 0.160372280808308 
877	 0.160391919829818 
878	 0.160041262607184 
879	 0.161590205372484 
880	 0.163362070787514 
881	 0.162151280214505 
882	 0.163098756265135 
883	 0.166573375391502 
884	 0.168968488848877 
885	 0.169615673909954 
886	 0.168495890071612 
887	 0.168475176246223 
888	 0.169565657906029 
889	 0.171227803140147 
890	 0.170992328188565 
891	 0.16997980431996 
892	 0.174161739488282 
893	 0.176377542101225 
894	 0.174239940765743 
895	 0.176582195958065 
896	 0.178934678151291 
897	 0.175531245070704 
898	 0.176439805401919 
899	 0.181038673592764 
900	 0.182478765958079 
901	 0.181765873887426 
902	 0.179437634108625 
903	 0.176641771045153 
904	 0.175636443453921 
905	 0.177996853875219 
906	 0.181876787402604 
907	 0.184102479042147 
908	 0.179540617228623 
909	 0.178439125776635 
910	 0.181873693004525 
911	 0.181006900608266 
912	 0.180373220948373 
913	 0.182531692736836 
914	 0.18608401670421 
915	 0.188500538398537 
916	 0.187210712268789 
917	 0.18539511049299 
918	 0.184883891684806 
919	 0.189049279647739 
920	 0.189151172914792 
921	 0.184297090586693 
922	 0.186608266981945 
923	 0.190964353751862 
924	 0.19214498956509 
925	 0.190145906870488 
926	 0.186509560588238 
927	 0.184871236651996 
928	 0.183921581761472 
929	 0.184050217292377 
930	 0.187953910021725 
931	 0.19355892629381 
932	 0.198877284166143 
933	 0.206598264773713 
934	 0.208528608289994 
935	 0.193704962037235 
936	 0.187060885150322 
937	 0.190666481102071 
938	 0.191404586831274 
939	 0.188618678956254 
940	 0.184555274146314 
941	 0.192604702270791 
942	 0.198174288553741 
943	 0.191817735157502 
944	 0.188035767235817 
945	 0.186920339787157 
946	 0.185276606094237 
947	 0.187022562131896 
948	 0.192649855194158 
949	 0.201156286175805 
950	 0.205018531989937 
951	 0.200864430980589 
952	 0.186709719215039 
953	 0.180083257228735 
954	 0.195453899774384 
955	 0.202853588387502 
956	 0.201974182329108 
957	 0.200748624709165 
958	 0.201586339464803 
959	 0.202944320174944 
960	 0.195972254135428 
961	 0.193488708433143 
962	 0.198986526055383 
963	 0.195305577832035 
964	 0.191665596550625 
965	 0.197499688348528 
966	 0.203766841882908 
967	 0.206282432738923 
968	 0.199770459498293 
969	 0.200488532826798 
970	 0.207934801516157 
971	 0.202311997734257 
972	 0.197940385021273 
973	 0.201619440540418 
974	 0.201446212816661 
975	 0.199648523090856 
976	 0.199920356494253 
977	 0.20178950474651 
978	 0.204501013933023 
979	 0.207152620829994 
980	 0.201748614856749 
981	 0.191564944748152 
982	 0.198477706155935 
983	 0.2069196250812 
984	 0.209385049488078 
985	 0.214443788502128 
986	 0.217843885276461 
987	 0.215094150756002 
988	 0.213903835099473 
989	 0.214504479009151 
990	 0.214344232006521 
991	 0.214882882225067 
992	 0.21554311486421 
993	 0.214022339564683 
994	 0.207028406403928 
995	 0.197364138015247 
996	 0.210759935723504 
997	 0.221603000615551 
998	 0.206905821780644 
999	 0.208940671031169 
1000	 0.22208980069713 
1001	 0.224842794443793 
1002	 0.228766711073331 
1003	 0.231889958850983 
1004	 0.218133460879798 
1005	 0.214596443146235 
1006	 0.227837385073653 
1007	 0.23000822123835 
1008	 0.225568144807476 
1009	 0.220782648073145 
1010	 0.230109262877411 
1011	 0.240694354199598 
1012	 0.233426480975435 
1013	 0.225689041295033 
1014	 0.220871979235024 
1015	 0.217552325109406 
1016	 0.216893060725039 
1017	 0.219932788280594 
1018	 0.231144477683987 
1019	 0.233150300263621 
1020	 0.219828289841698 
1021	 0.220855522691239 
1022	 0.231376419578064 
1023	 0.242448332719949 
1024	 0.234851336757478 
1025	 0.220049676568733 
1026	 0.22342945163815 
1027	 0.230292131112059 
1028	 0.235375667893173 
1029	 0.234787389602848 
1030	 0.231334843164889 
1031	 0.226695251322156 
1032	 0.222495847270371 
1033	 0.220575620912987 
1034	 0.221541121129682 
1035	 0.221044997785928 
1036	 0.216521761704318 
1037	 0.208261948029135 
1038	 0.229535583161172 
1039	 0.253432694578539 
1040	 0.226026996654551 
1041	 0.218978944015465 
1042	 0.236263239940865 
1043	 0.229927168091639 
1044	 0.215819403904448 
1045	 0.201522064914694 
1046	 0.199697536402975 
1047	 0.197331093121531 
1048	 0.190030757954531 
1049	 0.201137454118462 
1050	 0.221247392861938 
1051	 0.237816523969415 
1052	 0.232051868086539 
1053	 0.214230673428395 
1054	 0.208519731734189 
1055	 0.20332991626618 
1056	 0.197088542581011 
1057	 0.192143448935372 
1058	 0.183778009075092 
1059	 0.180656381061461 
1060	 0.217922968690121 
1061	 0.229356878716488 
1062	 0.198083172239457 
1063	 0.212640715918038 
1064	 0.224422550487504 
1065	 0.201927370266526 
1066	 0.179301361507686 
1067	 0.174615955318728 
1068	 0.196303032909433 
1069	 0.210838383241997 
1070	 0.207479684818555 
1071	 0.179022074210751 
1072	 0.149149395026299 
1073	 0.124983646449317 
1074	 0.140610305801472 
1075	 0.182796125990694 
