Wavelength	SHSI00332.asd
325	 5.40910832498579E-02 
326	 5.59292862996985E-02 
327	 6.33920111324399E-02 
328	 7.03236598937377E-02 
329	 7.15239073059931E-02 
330	 6.69213717251084E-02 
331	 6.65982834355883E-02 
332	 6.76048892580885E-02 
333	 6.64025958636957E-02 
334	 6.29955229357658E-02 
335	 6.00238999627622E-02 
336	 6.40170852401734E-02 
337	 6.56251388046548E-02 
338	 6.28857470478234E-02 
339	 6.08410815372594E-02 
340	 6.04440715274831E-02 
341	 6.22184799135984E-02 
342	 6.64253202728745E-02 
343	 6.95999061120864E-02 
344	 0.065381692622825 
345	 6.20007624718612E-02 
346	 6.18412638795186E-02 
347	 6.45652311139185E-02 
348	 6.55599543430256E-02 
349	 6.25333857247572E-02 
350	 6.33810345703783E-02 
351	 6.62649805574217E-02 
352	 6.68490238580994E-02 
353	 6.58272906247939E-02 
354	 6.43851237711946E-02 
355	 0.066194875532686 
356	 6.84743391972909E-02 
357	 0.069209238731032 
358	 6.71752153333571E-02 
359	 6.45964304652554E-02 
360	 6.48767183605128E-02 
361	 6.56275167112827E-02 
362	 6.60625465772162E-02 
363	 0.065650595495839 
364	 6.57130102123943E-02 
365	 6.67372578505142E-02 
366	 6.71031744470584E-02 
367	 6.67948708725795E-02 
368	 6.60245124335635E-02 
369	 6.55527738219384E-02 
370	 0.065548746338871 
371	 6.59010085608403E-02 
372	 6.58253321685014E-02 
373	 6.51351910895981E-02 
374	 6.59787025980472E-02 
375	 6.67792282760918E-02 
376	 6.51596744462852E-02 
377	 6.46849838983874E-02 
378	 6.56650659164279E-02 
379	 6.61946291752904E-02 
380	 6.63122902760247E-02 
381	 6.61391503558031E-02 
382	 0.066776244792481 
383	 0.067247090546281 
384	 6.61443915054958E-02 
385	 0.065576434632995 
386	 6.56671489641609E-02 
387	 6.52914067032134E-02 
388	 6.36011656614566E-02 
389	 6.10440264620348E-02 
390	 6.25425397497284E-02 
391	 6.49638798785789E-02 
392	 6.42728451547002E-02 
393	 0.063772278855379 
394	 6.40619789810162E-02 
395	 6.48440285204991E-02 
396	 6.52451727451158E-02 
397	 6.47944524855706E-02 
398	 6.31585010364618E-02 
399	 6.19608451231159E-02 
400	 6.26801918581697E-02 
401	 6.33951634829275E-02 
402	 6.38313598351707E-02 
403	 6.44022311055785E-02 
404	 6.45262118207732E-02 
405	 0.06417514509392 
406	 6.49006052845476E-02 
407	 6.54191607448226E-02 
408	 6.40500516147082E-02 
409	 6.38258876336146E-02 
410	 6.47797005226875E-02 
411	 6.50337888321588E-02 
412	 6.47898464243442E-02 
413	 6.42844852645199E-02 
414	 6.45085335788401E-02 
415	 6.49278108557111E-02 
416	 6.47303018657962E-02 
417	 6.49861502843919E-02 
418	 0.065520724413793 
419	 6.49766602132114E-02 
420	 6.45777238170164E-02 
421	 6.49380615619435E-02 
422	 6.53145200804163E-02 
423	 6.55258567178786E-02 
424	 6.54379022321525E-02 
425	 6.56789874056957E-02 
426	 6.62235536335892E-02 
427	 6.63199025545969E-02 
428	 6.64643272640303E-02 
429	 6.68987082007575E-02 
430	 6.68635080633314E-02 
431	 6.65495243404283E-02 
432	 6.64529824142382E-02 
433	 6.60967337523812E-02 
434	 6.56472912293147E-02 
435	 6.60732619566115E-02 
436	 6.65357927544739E-02 
437	 6.65222344736093E-02 
438	 0.066848252089601 
439	 6.73075385692159E-02 
440	 6.73107371299781E-02 
441	 6.73861018319194E-02 
442	 6.76010578129257E-02 
443	 0.067533342581182 
444	 6.74665563268028E-02 
445	 6.76414940311748E-02 
446	 6.80109696169475E-02 
447	 6.83319022849743E-02 
448	 6.80485717931446E-02 
449	 0.068013433530185 
450	 6.84564636658418E-02 
451	 6.89625597473937E-02 
452	 6.92176068430228E-02 
453	 6.89779606939026E-02 
454	 6.92078211932063E-02 
455	 6.96728893853467E-02 
456	 6.90873874764471E-02 
457	 0.06890921357093 
458	 6.95787443883287E-02 
459	 6.98647913563785E-02 
460	 6.99455805496463E-02 
461	 7.01523143256686E-02 
462	 7.03207546208766E-02 
463	 7.04173443667681E-02 
464	 7.04310817397016E-02 
465	 7.04516460962355E-02 
466	 7.05295418305195E-02 
467	 0.070648250538364 
468	 7.07085023539901E-02 
469	 7.05736779166677E-02 
470	 7.04597062774638E-02 
471	 7.04868929934181E-02 
472	 7.08888360030187E-02 
473	 7.10264861429286E-02 
474	 7.05853148534542E-02 
475	 0.070592964733724 
476	 7.08393023416445E-02 
477	 0.070688759642402 
478	 7.07504659841002E-02 
479	 7.10993211146037E-02 
480	 7.12793362234311E-02 
481	 7.14941243179428E-02 
482	 7.19032528323526E-02 
483	 7.22763665571623E-02 
484	 7.25217653126852E-02 
485	 7.25398768213352E-02 
486	 7.24214766800995E-02 
487	 0.072211194410506 
488	 7.18974159774162E-02 
489	 7.16262331395519E-02 
490	 7.15550688984172E-02 
491	 7.21514232771138E-02 
492	 0.072916146404092 
493	 7.22426924905376E-02 
494	 7.18100205536305E-02 
495	 7.23166264385727E-02 
496	 7.31073518019294E-02 
497	 7.37538925070842E-02 
498	 7.38056743589759E-02 
499	 7.36270265604677E-02 
500	 7.35900552499882E-02 
501	 7.46262460747796E-02 
502	 7.53659619846111E-02 
503	 7.50406113718026E-02 
504	 7.47001383810066E-02 
505	 7.46616081224876E-02 
506	 7.52033035735262E-02 
507	 0.075577695266788 
508	 7.56747650699898E-02 
509	 7.60608109944056E-02 
510	 7.64055795945653E-02 
511	 7.64914190277777E-02 
512	 7.70741929661869E-02 
513	 7.79525498221731E-02 
514	 7.83823243652412E-02 
515	 7.87754037638397E-02 
516	 7.92231445992504E-02 
517	 7.94246052795097E-02 
518	 7.97923726741941E-02 
519	 0.080731023033736 
520	 8.10039884723597E-02 
521	 8.08305470303821E-02 
522	 8.15175093728977E-02 
523	 8.21291004617895E-02 
524	 8.23283978280793E-02 
525	 8.28819952887078E-02 
526	 0.083455111808168 
527	 8.34530786871364E-02 
528	 8.39255770606968E-02 
529	 8.48246700126364E-02 
530	 8.50218206288337E-02 
531	 8.51995259193941E-02 
532	 8.57692189762808E-02 
533	 8.60368294871085E-02 
534	 8.61588226502758E-02 
535	 0.086643375268575 
536	 8.70050833983487E-02 
537	 8.72392535369251E-02 
538	 0.088122550568113 
539	 8.87825271627731E-02 
540	 8.84067093750715E-02 
541	 8.84639469602431E-02 
542	 8.89954056288544E-02 
543	 8.92581498934314E-02 
544	 8.96238906087585E-02 
545	 9.01814292015135E-02 
546	 9.06180326905481E-02 
547	 9.08308613802239E-02 
548	 9.07309806627692E-02 
549	 0.090817834057477 
550	 9.11862105930223E-02 
551	 9.16915333169146E-02 
552	 9.19934336753792E-02 
553	 9.19469093115667E-02 
554	 9.23858410334448E-02 
555	 9.29339765263756E-02 
556	 9.26470232292811E-02 
557	 9.26201106061815E-02 
558	 9.30939878683107E-02 
559	 9.34678417401636E-02 
560	 9.35925090000451E-02 
561	 9.33755503375116E-02 
562	 9.31053902635853E-02 
563	 9.29785590860649E-02 
564	 9.32974158078155E-02 
565	 9.37623883064328E-02 
566	 9.41611235829313E-02 
567	 9.41732737726638E-02 
568	 9.38936992285857E-02 
569	 9.34927216307285E-02 
570	 9.35323758106862E-02 
571	 9.38897433217636E-02 
572	 9.35965839968056E-02 
573	 9.33044852551503E-02 
574	 9.33716575740416E-02 
575	 9.32252553859734E-02 
576	 9.30863490420398E-02 
577	 9.35227652783985E-02 
578	 9.36055358257723E-02 
579	 9.32250104130166E-02 
580	 0.093300802215484 
581	 9.34958960904382E-02 
582	 9.34890514854915E-02 
583	 9.34810664840596E-02 
584	 9.34788625731947E-02 
585	 9.34254838939047E-02 
586	 9.33121184833845E-02 
587	 0.093168011903676 
588	 9.31685699095513E-02 
589	 9.32938590692616E-02 
590	 9.34857605181907E-02 
591	 9.34672271171674E-02 
592	 0.093219051093808 
593	 9.29006504500801E-02 
594	 9.26761851167893E-02 
595	 9.26684664354556E-02 
596	 9.29865901750652E-02 
597	 9.32463966774746E-02 
598	 9.27440564167021E-02 
599	 9.25446160045971E-02 
600	 9.28093093411391E-02 
601	 9.26362616862312E-02 
602	 9.25205449210639E-02 
603	 9.28694368156292E-02 
604	 9.27660141945481E-02 
605	 9.23713381240925E-02 
606	 9.25281860391639E-02 
607	 9.26135450729469E-02 
608	 9.24703132507643E-02 
609	 9.27587669161842E-02 
610	 9.28752303935998E-02 
611	 9.20202991272541E-02 
612	 9.16072178543445E-02 
613	 9.17817459454462E-02 
614	 9.17434734017129E-02 
615	 9.17337360923771E-02 
616	 9.18428298555638E-02 
617	 9.16952202687078E-02 
618	 9.13688934090198E-02 
619	 9.10827062619722E-02 
620	 9.07309157631428E-02 
621	 9.04506516970839E-02 
622	 0.09095237785976 
623	 9.12977549871884E-02 
624	 9.06959485492195E-02 
625	 9.05536402206339E-02 
626	 9.09223457180789E-02 
627	 9.12455412318352E-02 
628	 9.14672162172266E-02 
629	 9.14680860146834E-02 
630	 9.09197716314576E-02 
631	 9.04184395177058E-02 
632	 9.07100922187347E-02 
633	 9.08829273653079E-02 
634	 9.08143224983211E-02 
635	 9.08891406161297E-02 
636	 0.090937496129412 
637	 9.08729086871474E-02 
638	 9.09083692095956E-02 
639	 9.07637282277467E-02 
640	 8.98200243848017E-02 
641	 0.089781701195633 
642	 9.07880464583846E-02 
643	 9.09667844124735E-02 
644	 9.06683183017748E-02 
645	 0.090288771235962 
646	 9.02230662921685E-02 
647	 9.02845737082489E-02 
648	 8.96811916217444E-02 
649	 8.93205241389829E-02 
650	 8.94534382822839E-02 
651	 8.92526112394246E-02 
652	 8.89143803845707E-02 
653	 8.87495029025136E-02 
654	 8.87007700151695E-02 
655	 8.86115110008748E-02 
656	 8.80145320736294E-02 
657	 8.73369816623091E-02 
658	 8.68584252556966E-02 
659	 8.62626554592279E-02 
660	 8.57760857539021E-02 
661	 8.58485433024044E-02 
662	 8.57454254391394E-02 
663	 8.53077315100619E-02 
664	 8.49567456934282E-02 
665	 0.084358042837202 
666	 8.33021481152724E-02 
667	 0.082812485143711 
668	 8.28043870682737E-02 
669	 8.25784790094216E-02 
670	 8.25706042943129E-02 
671	 8.27498358785716E-02 
672	 8.21377247357463E-02 
673	 8.15578082933666E-02 
674	 8.20098748298764E-02 
675	 8.23717289733682E-02 
676	 8.25028639675622E-02 
677	 8.28570284040391E-02 
678	 8.30016254941887E-02 
679	 8.28127885139365E-02 
680	 8.31280951392621E-02 
681	 8.37686869716243E-02 
682	 8.42972513891827E-02 
683	 8.46599114254599E-02 
684	 8.50582624252627E-02 
685	 8.64454944533354E-02 
686	 0.088014854547959 
687	 8.90162873439753E-02 
688	 8.99344620285429E-02 
689	 9.09866852108419E-02 
690	 9.26930568579147E-02 
691	 9.40116545993013E-02 
692	 9.48643343649948E-02 
693	 9.64155162316584E-02 
694	 9.82139444305441E-02 
695	 9.96659583409856E-02 
696	 0.101339414203394 
697	 0.103100405225165 
698	 0.104357677760698 
699	 0.105692240334365 
700	 0.107287972238762 
701	 0.1085407008843 
702	 0.109658504786173 
703	 0.1110238623292 
704	 0.112044783247378 
705	 0.112772598531325 
706	 0.113825816571139 
707	 0.114889656320367 
708	 0.115760167042729 
709	 0.11654089879644 
710	 0.117297898530394 
711	 0.118145696673169 
712	 0.118842341829592 
713	 0.119373373126976 
714	 0.120067079878615 
715	 0.120706035002191 
716	 0.121112699058152 
717	 0.121505307129179 
718	 0.122034121463685 
719	 0.122948407644605 
720	 0.123481375562365 
721	 0.123483065216982 
722	 0.12376170869632 
723	 0.124110857512887 
724	 0.124227057487728 
725	 0.12403899887917 
726	 0.123919244093138 
727	 0.125013261673733 
728	 0.126074510979535 
729	 0.126426518914334 
730	 0.126219574000724 
731	 0.126094865576749 
732	 0.126878719639635 
733	 0.12719883362755 
734	 0.127107408666208 
735	 0.127991406329347 
736	 0.128525796741805 
737	 0.127924482458655 
738	 0.127699861795318 
739	 0.128002851658138 
740	 0.12872105798592 
741	 0.12901311738282 
742	 0.128782324357393 
743	 0.128910435157084 
744	 0.129306623795802 
745	 0.129827651100362 
746	 0.129929770909525 
747	 0.129839623712555 
748	 0.130413942956662 
749	 0.130617451002633 
750	 0.130263840166158 
751	 0.130480614543635 
752	 0.1309402990851 
753	 0.131207358003278 
754	 0.131376561016721 
755	 0.131325648523079 
756	 0.130665529068117 
757	 0.130014575759846 
758	 0.129696182275682 
759	 0.129948149827106 
760	 0.130952805890472 
761	 0.132014952702517 
762	 0.133104855871106 
763	 0.13371526317529 
764	 0.132963690594149 
765	 0.132627357269003 
766	 0.133156230578342 
767	 0.133358947238591 
768	 0.133271567262981 
769	 0.132992132556449 
770	 0.132944991656872 
771	 0.133130694307728 
772	 0.133049287543358 
773	 0.133166067063806 
774	 0.133730866604507 
775	 0.1340759611629 
776	 0.134190981032432 
777	 0.134248963793572 
778	 0.134203146934506 
779	 0.134181472661374 
780	 0.134722636631546 
781	 0.135165867103676 
782	 0.135000572471258 
783	 0.134701500360032 
784	 0.134574275796463 
785	 0.135126352097684 
786	 0.135272366018901 
787	 0.13480725369209 
788	 0.134572515839076 
789	 0.135037414457425 
790	 0.136463414709221 
791	 0.13701511809951 
792	 0.136670493455155 
793	 0.136269602926477 
794	 0.136071073435532 
795	 0.136184052174658 
796	 0.136336832800119 
797	 0.136256603770797 
798	 0.13575790756349 
799	 0.136066436349383 
800	 0.136856241626219 
801	 0.136533508324787 
802	 0.136442400562095 
803	 0.136926991514272 
804	 0.136845312776895 
805	 0.136589635439791 
806	 0.136689918637188 
807	 0.13768504835161 
808	 0.138884698466173 
809	 0.137903032473298 
810	 0.137438468140357 
811	 0.138352378521776 
812	 0.137884936835599 
813	 0.137098839163264 
814	 0.137694239065102 
815	 0.139116553820877 
816	 0.140550540691943 
817	 0.140014911906201 
818	 0.139245480092686 
819	 0.139090358282283 
820	 0.139318454300289 
821	 0.139552490593038 
822	 0.139387286328251 
823	 0.13982176539695 
824	 0.14050443422813 
825	 0.139831170052087 
826	 0.139308613041735 
827	 0.139459359753214 
828	 0.139204684498066 
829	 0.13922659259748 
830	 0.140392143548219 
831	 0.140617319078218 
832	 0.140090691072473 
833	 0.140738188594837 
834	 0.141550278999309 
835	 0.141921823009086 
836	 0.140988776292216 
837	 0.140158450263213 
838	 0.141020052018366 
839	 0.141193529722491 
840	 0.140711279845039 
841	 0.14119168732805 
842	 0.141598906627169 
843	 0.14159019563514 
844	 0.141890249238702 
845	 0.142015632133547 
846	 0.141431791046529 
847	 0.141789172394313 
848	 0.142711949140475 
849	 0.142118869689863 
850	 0.141381619354772 
851	 0.141162763124812 
852	 0.141703087762446 
853	 0.142668543645727 
854	 0.143569583759802 
855	 0.143063053158249 
856	 0.141814642463157 
857	 0.142074330572645 
858	 0.143050054639874 
859	 0.143999612739919 
860	 0.142446151150971 
861	 0.141136642194846 
862	 0.14260810707704 
863	 0.14275556648709 
864	 0.14186100871371 
865	 0.14237937812748 
866	 0.143245693815998 
867	 0.143913582464056 
868	 0.143640768304718 
869	 0.142903078365681 
870	 0.14233987708159 
871	 0.143950420200866 
872	 0.146278790331977 
873	 0.146068960887954 
874	 0.144447865717178 
875	 0.142436666867754 
876	 0.142585371070363 
877	 0.143351394519223 
878	 0.143582940269536 
879	 0.143695778176076 
880	 0.144009304027514 
881	 0.145001776495476 
882	 0.145233591485614 
883	 0.144425235067387 
884	 0.142904333894884 
885	 0.142777383017912 
886	 0.144631558803147 
887	 0.143322332660874 
888	 0.141755605100803 
889	 0.144403009066148 
890	 0.145408545217571 
891	 0.14439298380304 
892	 0.144722851699893 
893	 0.145147569886849 
894	 0.145104454141181 
895	 0.144417845844867 
896	 0.143863736390782 
897	 0.144330714804073 
898	 0.144494222078586 
899	 0.14449156749731 
900	 0.145349027174455 
901	 0.146649502650052 
902	 0.147899148661785 
903	 0.147922951471042 
904	 0.146966833060154 
905	 0.145448368974395 
906	 0.144868971441815 
907	 0.144762834562896 
908	 0.143775658326619 
909	 0.145033737990067 
910	 0.147588103334548 
911	 0.14411476143679 
912	 0.142773031400298 
913	 0.147229029874353 
914	 0.147672113244004 
915	 0.146205801183145 
916	 0.14662098799906 
917	 0.1469518884701 
918	 0.147333421088551 
919	 0.149566514570576 
920	 0.148950753671592 
921	 0.14486664232824 
922	 0.142592882855217 
923	 0.143136996272843 
924	 0.146714760508397 
925	 0.147327978216861 
926	 0.145377058154904 
927	 0.144164885426226 
928	 0.14352433195377 
929	 0.144012550835686 
930	 0.147639812926514 
931	 0.149263086734672 
932	 0.144969989165893 
933	 0.142350147528287 
934	 0.143288381449253 
935	 0.147860463750847 
936	 0.142563586842657 
937	 0.132730795091599 
938	 0.140450533644543 
939	 0.148415861518787 
940	 0.151225856246649 
941	 0.154267596004277 
942	 0.148755237507641 
943	 0.131427739386245 
944	 0.132470065044439 
945	 0.143538570622368 
946	 0.145242206674948 
947	 0.146959730153039 
948	 0.149176868897554 
949	 0.147972219190429 
950	 0.142812480699177 
951	 0.136790039152033 
952	 0.14553353523673 
953	 0.15338988861136 
954	 0.146561848493427 
955	 0.142744708033519 
956	 0.142648941712124 
957	 0.142181895445205 
958	 0.141688991344483 
959	 0.140979240066159 
960	 0.139055686006833 
961	 0.140280850804953 
962	 0.145762859180714 
963	 0.150471494159139 
964	 0.15297015155187 
965	 0.152716576401864 
966	 0.157742106152298 
967	 0.161764752712346 
968	 0.149565006810142 
969	 0.144961124934941 
970	 0.150909879623562 
971	 0.151984510280641 
972	 0.149719980566066 
973	 0.146109048953609 
974	 0.149387174731288 
975	 0.150648371845602 
976	 0.140595347327272 
977	 0.144689693694597 
978	 0.156152576999336 
979	 0.150328093027421 
980	 0.145783967978509 
981	 0.14626430986451 
982	 0.14389059079655 
983	 0.144288591122432 
984	 0.148493478659405 
985	 0.142613301618241 
986	 0.139622805307663 
987	 0.152813484594013 
988	 0.157021191172806 
989	 0.151504199484542 
990	 0.143594846979933 
991	 0.143313795861703 
992	 0.150311816776193 
993	 0.150075812744064 
994	 0.14954371434528 
995	 0.15109856448828 
996	 0.147219555755708 
997	 0.144798608000733 
998	 0.150182754592701 
999	 0.150032904539416 
1000	 0.145361163872296 
1001	 0.142026835180472 
1002	 0.135802248306125 
1003	 0.131605328700228 
1004	 0.148869204184829 
1005	 0.158104495597666 
1006	 0.150413465269058 
1007	 0.150952595147023 
1008	 0.152216546518195 
1009	 0.147770056460595 
1010	 0.139431458871278 
1011	 0.136575468194535 
1012	 0.150364159373279 
1013	 0.148655253228402 
1014	 0.137550822743239 
1015	 0.15044911723973 
1016	 0.158548728719484 
1017	 0.155651427148989 
1018	 0.152871092951349 
1019	 0.147214720466374 
1020	 0.139158729992033 
1021	 0.139696848442881 
1022	 0.146241393532782 
1023	 0.15480353811902 
1024	 0.157946751019406 
1025	 0.156251017675796 
1026	 0.153864145972734 
1027	 0.154024405963166 
1028	 0.155633896223702 
1029	 0.150302925496257 
1030	 0.15846335685063 
1031	 0.175709654911124 
1032	 0.153561940341733 
1033	 0.139268075172276 
1034	 0.158422077456532 
1035	 0.156263524162399 
1036	 0.141922261551095 
1037	 0.131607111716604 
1038	 0.148347676641542 
1039	 0.169661139563741 
1040	 0.154787462224197 
1041	 0.134604783347867 
1042	 0.121822406724942 
1043	 0.136102898322453 
1044	 0.145290401502382 
1045	 0.141913131104963 
1046	 0.14899677716282 
1047	 0.163428528283604 
1048	 0.178485809920132 
1049	 0.161379149075234 
1050	 0.147773765032067 
1051	 0.167603297517112 
1052	 0.149188853942917 
1053	 0.113793360313503 
1054	 0.116550986709816 
1055	 0.149010947420582 
1056	 0.184384210147979 
1057	 0.156374522727935 
1058	 0.126474485993971 
1059	 0.116125781070582 
1060	 0.132522660868686 
1061	 0.139987698755946 
1062	 0.128734704500927 
1063	 0.143650352405155 
1064	 0.160486421604852 
1065	 0.162939526628423 
1066	 0.169980885864138 
1067	 0.166360766613714 
1068	 0.139851858828222 
1069	 0.17532004547322 
1070	 0.207454316298461 
1071	 0.118965541946426 
1072	 8.63311555660788E-02 
1073	 0.12034913959432 
1074	 0.12344256777431 
1075	 0.117885637560061 
