Wavelength	SHSI00290.asd
325	 0.119472892172639 
326	 0.126292747268886 
327	 0.105966452769739 
328	 0.116642634003117 
329	 0.121209059023901 
330	 0.109914602849119 
331	 0.107506206009493 
332	 0.110285772288029 
333	 0.113021552264384 
334	 0.115771538690523 
335	 0.117673769080916 
336	 0.118406004673043 
337	 0.113276391077204 
338	 0.104326634241618 
339	 0.106154264068377 
340	 0.112124280100432 
341	 0.115907108598762 
342	 0.115423102136235 
343	 0.113335421836022 
344	 0.115447752150986 
345	 0.116561063472149 
346	 0.11539194459586 
347	 0.112006582238004 
348	 0.111175594064645 
349	 0.114924726016242 
350	 0.112760106454304 
351	 0.108695528005505 
352	 0.111038626548968 
353	 0.112656657983628 
354	 0.112696891128247 
355	 0.11483250786337 
356	 0.116722941622015 
357	 0.116934991623753 
358	 0.116387608222133 
359	 0.115709087077741 
360	 0.115660572525155 
361	 0.114031943860271 
362	 0.111503121887641 
363	 0.112003506260911 
364	 0.111642371299168 
365	 0.109307527446554 
366	 0.112039537994915 
367	 0.116631519323407 
368	 0.11785876445732 
369	 0.118272194410959 
370	 0.11860792191917 
371	 0.119263193773467 
372	 0.120591428862432 
373	 0.122280144324513 
374	 0.121467383606126 
375	 0.118256223680999 
376	 0.113357705755275 
377	 0.11182037613188 
378	 0.114092992131355 
379	 0.117770754730007 
380	 0.118817958232443 
381	 0.115811687375218 
382	 0.115777993421046 
383	 0.116633586005176 
384	 0.11473481492426 
385	 0.113142002938325 
386	 0.112442276506347 
387	 0.112134389184815 
388	 0.111286972758013 
389	 0.109610279478084 
390	 0.107747578083509 
391	 0.107844525805737 
392	 0.112114424015043 
393	 0.112245744476102 
394	 0.10856082149671 
395	 0.107723044019882 
396	 0.106793546718565 
397	 0.104818205047313 
398	 0.102868030801157 
399	 0.101942697371227 
400	 0.102799322399587 
401	 0.102593332330029 
402	 0.101996321636625 
403	 0.104230283906387 
404	 0.106360977636582 
405	 0.107192051785026 
406	 0.107801104021104 
407	 0.107814893966494 
408	 0.106714691150578 
409	 0.105434874612973 
410	 0.104478470209465 
411	 0.104355461275295 
412	 0.10490220670623 
413	 0.105721412550499 
414	 0.105032965562201 
415	 0.104053421636499 
416	 0.104542997231606 
417	 0.104822138386996 
418	 0.104757986095004 
419	 0.105322077043704 
420	 0.105297179685668 
421	 0.104280326804749 
422	 0.104312050922273 
423	 0.104983721378542 
424	 0.105383200320657 
425	 0.104925434581161 
426	 0.104137536180874 
427	 0.105674664860139 
428	 0.106707619693773 
429	 0.105582251592419 
430	 0.105197609619402 
431	 0.105072619137938 
432	 0.103765552386682 
433	 0.102998475214458 
434	 0.103018219067456 
435	 0.102811121755414 
436	 0.103326801817499 
437	 0.104945497765716 
438	 0.105059631954948 
439	 0.104298347727831 
440	 0.104504248739446 
441	 0.10487764750955 
442	 0.105169747921421 
443	 0.105172352491901 
444	 0.10541927154855 
445	 0.106251106527438 
446	 0.106393011124283 
447	 0.105952539172181 
448	 0.105557606500419 
449	 0.105716703134627 
450	 0.106479824184264 
451	 0.106880463079892 
452	 0.107447085920168 
453	 0.10869510938688 
454	 0.109350990678955 
455	 0.109340408646028 
456	 0.109239134912833 
457	 0.108933618587953 
458	 0.108485082710869 
459	 0.10811032053933 
460	 0.108370600344674 
461	 0.109827034710494 
462	 0.110069722722155 
463	 0.109275617112847 
464	 0.109812814477322 
465	 0.110605790444374 
466	 0.111071163103433 
467	 0.111173174933045 
468	 0.111051272550002 
469	 0.110937174421874 
470	 0.110574441438323 
471	 0.110163889821697 
472	 0.110509671344175 
473	 0.111108477405037 
474	 0.111593294070102 
475	 0.111866017732798 
476	 0.111960102250008 
477	 0.111975048731128 
478	 0.111939721496883 
479	 0.111975835622122 
480	 0.112448020324961 
481	 0.113002397585806 
482	 0.113357866342926 
483	 0.113796394993669 
484	 0.114296898751542 
485	 0.114797097887872 
486	 0.114659651616588 
487	 0.113807361411792 
488	 0.113192917236653 
489	 0.112733457479941 
490	 0.112326271068816 
491	 0.113444175227731 
492	 0.115104060190918 
493	 0.113869838230908 
494	 0.113103680881132 
495	 0.114111448868209 
496	 0.115153966132023 
497	 0.115888676990126 
498	 0.116099881380568 
499	 0.116384970515581 
500	 0.11683783463357 
501	 0.117207143345546 
502	 0.117461000124275 
503	 0.117613762820651 
504	 0.117941987450403 
505	 0.1183872489499 
506	 0.118779479269465 
507	 0.119324797842901 
508	 0.119974262009229 
509	 0.120185212500082 
510	 0.120860981255086 
511	 0.12260710408012 
512	 0.123734607861956 
513	 0.124355485033704 
514	 0.125466703151876 
515	 0.126338123977838 
516	 0.126773038935325 
517	 0.127187102057438 
518	 0.127513258067837 
519	 0.127663188348886 
520	 0.127910745658492 
521	 0.128358097109184 
522	 0.12905669553153 
523	 0.129983897684034 
524	 0.131119602213904 
525	 0.1324872397579 
526	 0.133602733513568 
527	 0.133797559679539 
528	 0.134050117488745 
529	 0.134643872753413 
530	 0.135530568889754 
531	 0.136488840731407 
532	 0.137361841479046 
533	 0.138240681169295 
534	 0.138994780640535 
535	 0.139338795892188 
536	 0.139768471941858 
537	 0.140504916281809 
538	 0.141686543462384 
539	 0.142853337234252 
540	 0.143550600355792 
541	 0.143948422530125 
542	 0.144140779951665 
543	 0.14415223213361 
544	 0.144760725003922 
545	 0.146112008801224 
546	 0.146759818414558 
547	 0.147230117118585 
548	 0.148380001909512 
549	 0.149188017035473 
550	 0.149531523730439 
551	 0.149869683951547 
552	 0.150289359512387 
553	 0.150877501828776 
554	 0.151784675203904 
555	 0.152713818542998 
556	 0.153093919974252 
557	 0.153495558499669 
558	 0.154019705920643 
559	 0.154240570789084 
560	 0.154422602708844 
561	 0.154826245698286 
562	 0.155407391267446 
563	 0.156047895714189 
564	 0.156507643538882 
565	 0.156744045447662 
566	 0.156819125263326 
567	 0.157280688035228 
568	 0.157780430876367 
569	 0.157817069276174 
570	 0.157619141314038 
571	 0.157397048671421 
572	 0.157593499881684 
573	 0.157932990379769 
574	 0.158278369775763 
575	 0.159032570793766 
576	 0.159724903637449 
577	 0.159418965468334 
578	 0.159068789818346 
579	 0.159070832955663 
580	 0.159622438466691 
581	 0.16023479526762 
582	 0.160469211425113 
583	 0.160548118941235 
584	 0.160652518311243 
585	 0.161144497749187 
586	 0.161641950311101 
587	 0.161956278810344 
588	 0.162048689107569 
589	 0.161928733229363 
590	 0.161631538268717 
591	 0.16161722144196 
592	 0.16190340525428 
593	 0.162145810650335 
594	 0.162319268386955 
595	 0.162420065761176 
596	 0.162579641343423 
597	 0.162920259990847 
598	 0.163666109588708 
599	 0.163851065216945 
600	 0.163462221038341 
601	 0.163959901462862 
602	 0.164290133697397 
603	 0.163595050019801 
604	 0.163721557593799 
605	 0.164437318110589 
606	 0.164321300319996 
607	 0.163995981736099 
608	 0.16375800653213 
609	 0.1640070659292 
610	 0.16419219677735 
611	 0.163591787201304 
612	 0.163195280555415 
613	 0.163085586069444 
614	 0.162648452964573 
615	 0.162273372089667 
616	 0.162191074376412 
617	 0.162250733310878 
618	 0.162187112186635 
619	 0.161530599029505 
620	 0.161602823001898 
621	 0.162453956854554 
622	 0.16246669741402 
623	 0.162164153681055 
624	 0.162070596665821 
625	 0.162101192303137 
626	 0.162132367728355 
627	 0.161719248945965 
628	 0.161993135603315 
629	 0.163174360297959 
630	 0.163721171187871 
631	 0.163541160603053 
632	 0.162730255861258 
633	 0.162201432183294 
634	 0.162327160085147 
635	 0.163417189725081 
636	 0.164353663283031 
637	 0.164467837655041 
638	 0.164419172216815 
639	 0.16440421105566 
640	 0.164603640883725 
641	 0.164837531450708 
642	 0.164925715244675 
643	 0.164298643176556 
644	 0.164021426210715 
645	 0.164949157402421 
646	 0.165386840176822 
647	 0.165183548921116 
648	 0.164817551315402 
649	 0.164623306927237 
650	 0.16468004944101 
651	 0.16435962893456 
652	 0.163910062134244 
653	 0.163681936332513 
654	 0.163586164243385 
655	 0.163292856385968 
656	 0.1618646018982 
657	 0.160118041670839 
658	 0.158710699514649 
659	 0.157884463741591 
660	 0.157110986660102 
661	 0.155542370329222 
662	 0.153936345202956 
663	 0.152499221213725 
664	 0.151096927702279 
665	 0.149767833414906 
666	 0.148521828011934 
667	 0.147113019219272 
668	 0.14568836782769 
669	 0.14468950971753 
670	 0.143643851250777 
671	 0.142641470849871 
672	 0.143181722747587 
673	 0.143840724692613 
674	 0.142914626060198 
675	 0.142297668495585 
676	 0.142386326484687 
677	 0.142983584879572 
678	 0.143647730860774 
679	 0.144168351160535 
680	 0.144992906796368 
681	 0.146181294344555 
682	 0.147746310612866 
683	 0.149473442697643 
684	 0.151383594580647 
685	 0.153925155844915 
686	 0.157100994370892 
687	 0.160800578645321 
688	 0.164267784018532 
689	 0.167278355507134 
690	 0.170392245384143 
691	 0.174289457251471 
692	 0.179077883000067 
693	 0.183693235082271 
694	 0.188050962902859 
695	 0.19195026130828 
696	 0.195733110093653 
697	 0.199598027017848 
698	 0.204067478547668 
699	 0.208131628900712 
700	 0.21131594756788 
701	 0.214561340460896 
702	 0.218005757191481 
703	 0.221705154822575 
704	 0.224912497992859 
705	 0.227586753465496 
706	 0.230096665382828 
707	 0.232797080420217 
708	 0.235837876886427 
709	 0.2384754814178 
710	 0.240772533492338 
711	 0.243037152572027 
712	 0.245200593020868 
713	 0.2472861663705 
714	 0.249490551647956 
715	 0.251481760268924 
716	 0.253067469902707 
717	 0.254807457235933 
718	 0.256818011789387 
719	 0.25868582157427 
720	 0.260515011618577 
721	 0.262144965653145 
722	 0.263189160942126 
723	 0.264270322304741 
724	 0.265990789351866 
725	 0.267592786191989 
726	 0.268951436895866 
727	 0.270730047562311 
728	 0.272101413338868 
729	 0.272810939565678 
730	 0.27422906832552 
731	 0.275803793816806 
732	 0.276580593628242 
733	 0.27746942405285 
734	 0.278561453176762 
735	 0.279378117824934 
736	 0.280033147738281 
737	 0.280696399927409 
738	 0.282414157632857 
739	 0.284435158085316 
740	 0.28512497352694 
741	 0.285606976728306 
742	 0.286232895479628 
743	 0.28693360864825 
744	 0.287723473883617 
745	 0.288604784201018 
746	 0.2894250782019 
747	 0.290193650033502 
748	 0.290989913344487 
749	 0.291965851016391 
750	 0.293107582328066 
751	 0.294026757487299 
752	 0.294863030893352 
753	 0.295780508709856 
754	 0.296310535264866 
755	 0.296675167063472 
756	 0.2980634713262 
757	 0.29774669528006 
758	 0.294953825903573 
759	 0.294847277652457 
760	 0.298791638778592 
761	 0.304885392899716 
762	 0.307257007303827 
763	 0.306396023068535 
764	 0.307976505451374 
765	 0.309097627636901 
766	 0.308940407169504 
767	 0.308763432278781 
768	 0.308721126730667 
769	 0.308857281036867 
770	 0.309444762700037 
771	 0.310347807474581 
772	 0.310771389211784 
773	 0.311415186132146 
774	 0.312696257899946 
775	 0.313974368080596 
776	 0.314910714067232 
777	 0.315086932119617 
778	 0.31553975597803 
779	 0.316505545796965 
780	 0.317450304412337 
781	 0.318257603043836 
782	 0.318884330133729 
783	 0.319861862915557 
784	 0.320920730562303 
785	 0.321270786702416 
786	 0.321843382820241 
787	 0.32278799859348 
788	 0.323185795113015 
789	 0.323515681903405 
790	 0.32428014072061 
791	 0.325582403064041 
792	 0.32705913931521 
793	 0.32782752509135 
794	 0.328389751951109 
795	 0.32898561234524 
796	 0.329952215751645 
797	 0.330621790838749 
798	 0.330403346134696 
799	 0.330923951525083 
800	 0.332239454274367 
801	 0.333659230793711 
802	 0.334575325499193 
803	 0.334894186527561 
804	 0.335988009220455 
805	 0.33686027996885 
806	 0.33644333729841 
807	 0.337074870183675 
808	 0.33867907221566 
809	 0.339685685456719 
810	 0.340172983365255 
811	 0.340167717277833 
812	 0.340049629859222 
813	 0.340007736560787 
814	 0.340302138390137 
815	 0.343140039223026 
816	 0.347506403648924 
817	 0.348608380331003 
818	 0.348717063613973 
819	 0.34895861232037 
820	 0.349412563636089 
821	 0.350126187832298 
822	 0.351140452795896 
823	 0.353653061680608 
824	 0.356157984415835 
825	 0.353817330394875 
826	 0.352652205094658 
827	 0.354825793860134 
828	 0.356757694110368 
829	 0.357463978120916 
830	 0.356292867446635 
831	 0.357187447817391 
832	 0.359931030348165 
833	 0.361323135606096 
834	 0.361915455567741 
835	 0.361993434732455 
836	 0.362137667554563 
837	 0.362573012659384 
838	 0.363446264703385 
839	 0.363869420278447 
840	 0.36404271771463 
841	 0.365074980075206 
842	 0.36645704184864 
843	 0.367650075251651 
844	 0.367080371937978 
845	 0.365832104285458 
846	 0.365295623524074 
847	 0.365675030297883 
848	 0.366699654513072 
849	 0.367493883950129 
850	 0.367528749682738 
851	 0.367144913592494 
852	 0.36980602942619 
853	 0.372844453979051 
854	 0.373227231665289 
855	 0.374048612538929 
856	 0.374997537098626 
857	 0.373595748947847 
858	 0.37337400328772 
859	 0.374913120065895 
860	 0.374394675913566 
861	 0.373686740618277 
862	 0.374661416461376 
863	 0.375216702440974 
864	 0.375610878083988 
865	 0.377389110147743 
866	 0.378784906505857 
867	 0.379301614522944 
868	 0.379848386728896 
869	 0.380470926068018 
870	 0.381214265276732 
871	 0.382347207575162 
872	 0.383437774618467 
873	 0.383527204529916 
874	 0.38436559917709 
875	 0.38638235856254 
876	 0.388997307632764 
877	 0.3909268048829 
878	 0.391431965821435 
879	 0.392156874615708 
880	 0.393372368408173 
881	 0.395085609749929 
882	 0.396962456733299 
883	 0.398679952280606 
884	 0.39958051479158 
885	 0.400659817393572 
886	 0.40224427686156 
887	 0.402437778793978 
888	 0.402058564661846 
889	 0.402424897487447 
890	 0.401526326912066 
891	 0.400250899120262 
892	 0.403046969623719 
893	 0.403963575149876 
894	 0.401469766440116 
895	 0.405184538802682 
896	 0.410457544296334 
897	 0.411068911902588 
898	 0.414221668363569 
899	 0.419354101325663 
900	 0.42161603782967 
901	 0.421603322782805 
902	 0.419830928019123 
903	 0.417656800419259 
904	 0.416038959513403 
905	 0.415768072996857 
906	 0.417035013599564 
907	 0.419464597504695 
908	 0.422516511001594 
909	 0.420919393245049 
910	 0.416369996523229 
911	 0.421927388593392 
912	 0.425610330418606 
913	 0.422150762558376 
914	 0.426014305715178 
915	 0.431982273048694 
916	 0.432059256856905 
917	 0.43276452844263 
918	 0.433682435389704 
919	 0.429831165220818 
920	 0.427773196401689 
921	 0.428735343644307 
922	 0.426178960541076 
923	 0.422842684371207 
924	 0.421378375952165 
925	 0.421146008836013 
926	 0.420410621838153 
927	 0.415376115966816 
928	 0.414717339832956 
929	 0.420723632175602 
930	 0.427051352393656 
931	 0.430940229029505 
932	 0.430664227705692 
933	 0.437316291471911 
934	 0.446402655932115 
935	 0.448973111066143 
936	 0.45097632351444 
937	 0.449603375727872 
938	 0.434215394549965 
939	 0.423291416760568 
940	 0.423186624304909 
941	 0.433778675576473 
942	 0.439918489693589 
943	 0.432002817691535 
944	 0.42925889257604 
945	 0.430918896318914 
946	 0.431340939518837 
947	 0.433106452156044 
948	 0.434804692385614 
949	 0.430841399385344 
950	 0.426147510790763 
951	 0.423525251064657 
952	 0.425400564402949 
953	 0.426923227885619 
954	 0.424261023202312 
955	 0.425505468213443 
956	 0.429055714426823 
957	 0.429567632796735 
958	 0.434394135489033 
959	 0.44142490080408 
960	 0.43768034925576 
961	 0.434758213942669 
962	 0.437480106522939 
963	 0.438281845652618 
964	 0.438078506982306 
965	 0.438087264298722 
966	 0.435603967240549 
967	 0.431278739167071 
968	 0.426574581787395 
969	 0.42784839798272 
970	 0.434002092002298 
971	 0.433507995018413 
972	 0.435233416778377 
973	 0.442438230264037 
974	 0.442714030170613 
975	 0.440797014708343 
976	 0.44296178039174 
977	 0.441691473295455 
978	 0.438995374626783 
979	 0.442184329099532 
980	 0.441246570261305 
981	 0.435567133360301 
982	 0.433752835471027 
983	 0.435349617481802 
984	 0.439303099183049 
985	 0.441333715071601 
986	 0.441390694735984 
987	 0.440303621431359 
988	 0.444014602623316 
989	 0.450108911456815 
990	 0.451793406463644 
991	 0.450973238884777 
992	 0.448603708836968 
993	 0.446412869504902 
994	 0.444438824050239 
995	 0.442990483450781 
996	 0.443428444021364 
997	 0.443294531566549 
998	 0.440670601146188 
999	 0.443267409056614 
1000	 0.447520683992118 
1001	 0.44526537690882 
1002	 0.448121815023973 
1003	 0.455836569702556 
1004	 0.457865949986544 
1005	 0.459342338908598 
1006	 0.46047035846234 
1007	 0.451629575590729 
1008	 0.446694891164118 
1009	 0.455078673909869 
1010	 0.457052301816311 
1011	 0.457111565655171 
1012	 0.46437360888657 
1013	 0.463909108810357 
1014	 0.45725697091289 
1015	 0.45568183969702 
1016	 0.456731553002368 
1017	 0.459401867666791 
1018	 0.46225425297923 
1019	 0.461715827429518 
1020	 0.457668866616743 
1021	 0.463412701238719 
1022	 0.465231640279929 
1023	 0.451177363426863 
1024	 0.454023009738868 
1025	 0.464648286165735 
1026	 0.459430584493714 
1027	 0.460457427393213 
1028	 0.468359975698269 
1029	 0.468590498369405 
1030	 0.465909030118942 
1031	 0.465276833329355 
1032	 0.48384739165298 
1033	 0.490101965928351 
1034	 0.469916415087305 
1035	 0.47028341399993 
1036	 0.479374109603553 
1037	 0.479696062928273 
1038	 0.479538189233165 
1039	 0.476726542286183 
1040	 0.466262067335255 
1041	 0.465785815593557 
1042	 0.475427176883062 
1043	 0.484304778694054 
1044	 0.480536802879184 
1045	 0.467239625106963 
1046	 0.481287211156744 
1047	 0.490251812691533 
1048	 0.47659954033429 
1049	 0.46687152677763 
1050	 0.465274269074701 
1051	 0.47185952693432 
1052	 0.466979102441646 
1053	 0.458887274089903 
1054	 0.4653125149825 
1055	 0.468074992085589 
1056	 0.471749731356456 
1057	 0.496764312782735 
1058	 0.50290936013953 
1059	 0.486031742133401 
1060	 0.476836824850613 
1061	 0.472199401925668 
1062	 0.468615179104647 
1063	 0.449360488446796 
1064	 0.43370734482713 
1065	 0.436879935874693 
1066	 0.462511721277916 
1067	 0.479369425418717 
1068	 0.460145861251417 
1069	 0.46438484247775 
1070	 0.477862895551589 
1071	 0.459949751435488 
1072	 0.470876045410931 
1073	 0.498234130347821 
1074	 0.485785888551327 
1075	 0.472964815412998 
