Wavelength	SHSI00267.asd
325	 8.56912318305421E-02 
326	 0.088366372309725 
327	 9.45011257895841E-02 
328	 9.00857435572748E-02 
329	 8.59297683040534E-02 
330	 8.57059106067264E-02 
331	 0.084905407864044 
332	 8.48485158657656E-02 
333	 8.67936368022793E-02 
334	 8.51097497924076E-02 
335	 8.17251966898589E-02 
336	 8.33976551036495E-02 
337	 8.40547006533836E-02 
338	 0.082106292508632 
339	 7.90009677875272E-02 
340	 7.75275911979221E-02 
341	 0.079443391518039 
342	 7.98616771472472E-02 
343	 8.02005792999904E-02 
344	 0.0847886461004 
345	 8.77994743032227E-02 
346	 0.087832210660735 
347	 8.59095575974591E-02 
348	 0.084590458111798 
349	 8.53003372470502E-02 
350	 8.46980254790289E-02 
351	 8.45569105401543E-02 
352	 8.86090578334676E-02 
353	 8.80156761755142E-02 
354	 8.33784370934699E-02 
355	 8.53885802582061E-02 
356	 8.77162194370796E-02 
357	 8.67660389278332E-02 
358	 8.75527011220789E-02 
359	 8.88154634543956E-02 
360	 8.78681289460113E-02 
361	 8.74285524538995E-02 
362	 8.74432282654614E-02 
363	 8.53041847598318E-02 
364	 8.39441230348159E-02 
365	 8.47510233769848E-02 
366	 8.56103193692963E-02 
367	 8.66218781824457E-02 
368	 8.82448708474181E-02 
369	 8.75652741332751E-02 
370	 8.56070214634143E-02 
371	 8.79818693013013E-02 
372	 9.14240688693579E-02 
373	 9.36665040188621E-02 
374	 9.33168990575479E-02 
375	 0.091002336566966 
376	 8.79052845356447E-02 
377	 8.55894130922437E-02 
378	 8.48659220503564E-02 
379	 0.086751915602076 
380	 8.83007883444414E-02 
381	 8.80543292772309E-02 
382	 8.85011310001032E-02 
383	 8.77217159342016E-02 
384	 8.30655685197432E-02 
385	 8.35212444150657E-02 
386	 8.75988954257637E-02 
387	 8.41936881272244E-02 
388	 8.21117134568267E-02 
389	 8.44608962653118E-02 
390	 0.084773688797224 
391	 8.51082361101184E-02 
392	 8.84125832938199E-02 
393	 8.77397994459553E-02 
394	 8.36995153621442E-02 
395	 8.22070514542863E-02 
396	 8.26347488106158E-02 
397	 8.39583475308412E-02 
398	 8.25342605514658E-02 
399	 8.06490087765952E-02 
400	 8.07654227887382E-02 
401	 8.09951662935908E-02 
402	 8.13080695807444E-02 
403	 0.082775781839395 
404	 8.32086567007673E-02 
405	 0.082138126435061 
406	 8.29027767962713E-02 
407	 8.40313842191051E-02 
408	 8.34097651570578E-02 
409	 0.082878847199582 
410	 8.27065873123614E-02 
411	 8.22807848252297E-02 
412	 8.26760610593147E-02 
413	 8.39550734044861E-02 
414	 0.083175931013204 
415	 0.081976894449648 
416	 8.27869485490687E-02 
417	 8.35365544005384E-02 
418	 0.08374514617377 
419	 8.35270738540531E-02 
420	 8.31634886629015E-02 
421	 8.28455291521563E-02 
422	 8.25705022087895E-02 
423	 8.25470404448493E-02 
424	 8.30752266479034E-02 
425	 8.30210228985475E-02 
426	 8.24512195503733E-02 
427	 8.27576058266127E-02 
428	 8.31476305446473E-02 
429	 8.30961238200799E-02 
430	 8.28431130464388E-02 
431	 8.26776912073062E-02 
432	 8.30075227478345E-02 
433	 8.33259648240765E-02 
434	 8.33804254508943E-02 
435	 8.27213656097804E-02 
436	 8.25336400895198E-02 
437	 8.34746584834968E-02 
438	 8.38604612067021E-02 
439	 8.37143030709586E-02 
440	 8.35282103434433E-02 
441	 8.35421375972112E-02 
442	 8.37745999675887E-02 
443	 8.37910744541696E-02 
444	 8.39905358669945E-02 
445	 8.46601993897985E-02 
446	 8.52183736030728E-02 
447	 8.54204020538546E-02 
448	 8.49021310589487E-02 
449	 0.084734519382118 
450	 8.52276588373287E-02 
451	 8.57662090408402E-02 
452	 8.63395205009369E-02 
453	 8.69580107359901E-02 
454	 8.74344089282738E-02 
455	 8.77281577379407E-02 
456	 8.78565048389697E-02 
457	 8.79274403306421E-02 
458	 8.80045884127001E-02 
459	 8.80238582355359E-02 
460	 8.83054259911633E-02 
461	 8.91893250306647E-02 
462	 8.91328416048457E-02 
463	 8.84058059178509E-02 
464	 8.89469622873841E-02 
465	 8.97288182205878E-02 
466	 0.090180667126501 
467	 9.03018654406086E-02 
468	 9.01332030599718E-02 
469	 8.97553201937013E-02 
470	 8.95125335128724E-02 
471	 8.95915485290715E-02 
472	 9.01792645230052E-02 
473	 0.090927584894722 
474	 9.14955295314295E-02 
475	 0.091098035469938 
476	 9.05522048040788E-02 
477	 9.14998017792751E-02 
478	 9.16291887215555E-02 
479	 9.08419233094732E-02 
480	 9.16765764952498E-02 
481	 9.26748408971247E-02 
482	 9.26572504929094E-02 
483	 9.27921033537677E-02 
484	 9.30591612698815E-02 
485	 9.29114102412479E-02 
486	 9.29501377299178E-02 
487	 9.32772865255196E-02 
488	 9.31847539927475E-02 
489	 9.31002375877302E-02 
490	 9.34679775543554E-02 
491	 9.36587836597681E-02 
492	 9.36664467593729E-02 
493	 0.09379254807188 
494	 0.094052005073323 
495	 9.44142353032986E-02 
496	 9.45979366231467E-02 
497	 9.47238416848559E-02 
498	 9.49787061314815E-02 
499	 9.58444440347403E-02 
500	 9.70413087613421E-02 
501	 9.73323890462701E-02 
502	 9.71020244942164E-02 
503	 9.67363714246451E-02 
504	 9.72712756995758E-02 
505	 9.79855264360974E-02 
506	 9.73877287407753E-02 
507	 9.78398811417785E-02 
508	 0.09947055673753 
509	 9.99036831671447E-02 
510	 0.100301428603301 
511	 0.101535197458006 
512	 0.102043148587394 
513	 0.102080793994801 
514	 0.102830418100724 
515	 0.103578717167763 
516	 0.104127767849848 
517	 0.104777603579012 
518	 0.105437414445818 
519	 0.105975315891115 
520	 0.106010897284214 
521	 0.105899375235866 
522	 0.106754241038459 
523	 0.107641487534815 
524	 0.108205112229233 
525	 0.109113493369181 
526	 0.110105512088087 
527	 0.110729228562773 
528	 0.110966261858152 
529	 0.111046386573401 
530	 0.11170237275587 
531	 0.112632069900083 
532	 0.113554648534063 
533	 0.113855709265723 
534	 0.113942905633183 
535	 0.114824329876635 
536	 0.115436662422514 
537	 0.11563326697532 
538	 0.1163424847715 
539	 0.117254876735565 
540	 0.117996171435234 
541	 0.118097716950317 
542	 0.117921857782296 
543	 0.118633051953353 
544	 0.119590212463999 
545	 0.120428309596354 
546	 0.120673356428021 
547	 0.120747035412971 
548	 0.121251057948414 
549	 0.121892502837116 
550	 0.122496823445074 
551	 0.122725958134368 
552	 0.122895491292531 
553	 0.123268408967095 
554	 0.124255283388563 
555	 0.125319281875093 
556	 0.125355640067503 
557	 0.125595943997161 
558	 0.126275480965671 
559	 0.126509600896773 
560	 0.126730035226275 
561	 0.127339941847665 
562	 0.127874664661302 
563	 0.128291190441768 
564	 0.128774098258218 
565	 0.128904038973413 
566	 0.128655550094007 
567	 0.128956002902201 
568	 0.129518215933721 
569	 0.129866219588855 
570	 0.130032115483033 
571	 0.130097725184132 
572	 0.130374752658339 
573	 0.130584837466533 
574	 0.130578990277493 
575	 0.130553737306939 
576	 0.130679991554945 
577	 0.131189545683478 
578	 0.132004938593724 
579	 0.132856495917858 
580	 0.13277512386277 
581	 0.132746245393186 
582	 0.133601626476473 
583	 0.134033134528297 
584	 0.134057536425077 
585	 0.134363899311889 
586	 0.134548133213887 
587	 0.134500585272111 
588	 0.1344531645244 
589	 0.134624896727707 
590	 0.135246470206783 
591	 0.135551633640496 
592	 0.135576188428759 
593	 0.136134941993483 
594	 0.136554769642204 
595	 0.136507928164644 
596	 0.136699764358223 
597	 0.137169253973494 
598	 0.137863305105876 
599	 0.137974251737306 
600	 0.137526705583643 
601	 0.137842741417076 
602	 0.138365076292402 
603	 0.138577083105215 
604	 0.138971995398669 
605	 0.139377406536826 
606	 0.139146370489271 
607	 0.138916518214728 
608	 0.138948370457009 
609	 0.139072931401623 
610	 0.139232230898907 
611	 0.13936722739108 
612	 0.13923490251121 
613	 0.138875799554391 
614	 0.138604563732514 
615	 0.138482425054193 
616	 0.138522130886514 
617	 0.138443687210854 
618	 0.138248594506686 
619	 0.137981175810275 
620	 0.138104583974422 
621	 0.138591681096232 
622	 0.138733531431268 
623	 0.138449119180338 
624	 0.137790351735327 
625	 0.138225639160609 
626	 0.139321666633488 
627	 0.139164697044195 
628	 0.139278134190715 
629	 0.14011148167398 
630	 0.140691334568169 
631	 0.140818215363256 
632	 0.140374920002521 
633	 0.140224944024346 
634	 0.14052638978159 
635	 0.140996661896179 
636	 0.141358400384296 
637	 0.141465490033811 
638	 0.141667645614864 
639	 0.142051161513145 
640	 0.142684670558852 
641	 0.143304101831627 
642	 0.143710065879122 
643	 0.143565748480525 
644	 0.143320834146183 
645	 0.143390150451983 
646	 0.143725339946187 
647	 0.144115606126005 
648	 0.144013429552036 
649	 0.143992835036095 
650	 0.144173830496033 
651	 0.143821872321573 
652	 0.143485106207002 
653	 0.143863432119505 
654	 0.143783040403018 
655	 0.143031937880434 
656	 0.142137379301719 
657	 0.140783768534081 
658	 0.139074498244688 
659	 0.138452613478168 
660	 0.138166352888779 
661	 0.136782824968354 
662	 0.135621310485689 
663	 0.134887710476898 
664	 0.133839607105816 
665	 0.132579940301801 
666	 0.131254936116852 
667	 0.130397379299239 
668	 0.129850768842696 
669	 0.128994550452701 
670	 0.128008821738087 
671	 0.127164156668981 
672	 0.12767917971746 
673	 0.128156774167396 
674	 0.126956848800128 
675	 0.126483282391956 
676	 0.126939593496971 
677	 0.127090650518365 
678	 0.127699151439632 
679	 0.128966884735284 
680	 0.129314279170388 
681	 0.129483381769129 
682	 0.130920575371469 
683	 0.132790068704938 
684	 0.134737064433972 
685	 0.136399558841451 
686	 0.138409482373259 
687	 0.141282892559917 
688	 0.144311703761473 
689	 0.147266355881905 
690	 0.150664293884396 
691	 0.153979208334148 
692	 0.157147361728823 
693	 0.160427310230127 
694	 0.163756482175502 
695	 0.166907965654719 
696	 0.170048160631908 
697	 0.173193001025105 
698	 0.176516233602702 
699	 0.179305053251017 
700	 0.181296986172714 
701	 0.183651858389463 
702	 0.186324955740322 
703	 0.189077504718077 
704	 0.191336467819061 
705	 0.193074713743015 
706	 0.194559577079639 
707	 0.196514593157066 
708	 0.199195273922053 
709	 0.200576268119566 
710	 0.201195868200322 
711	 0.202527214490115 
712	 0.204257558362818 
713	 0.206137196916857 
714	 0.20752007488967 
715	 0.208203098293708 
716	 0.20811950795287 
717	 0.20883492839231 
718	 0.210455387549537 
719	 0.211780733574099 
720	 0.21256172369193 
721	 0.212884502192894 
722	 0.213762468076458 
723	 0.215121098340424 
724	 0.216767189501742 
725	 0.217568662616458 
726	 0.21773454003875 
727	 0.219135354005018 
728	 0.22008211568068 
729	 0.21998368819588 
730	 0.220937734248363 
731	 0.222389334713475 
732	 0.223249720437652 
733	 0.224268177323326 
734	 0.225413882886407 
735	 0.225992235468448 
736	 0.226526048834333 
737	 0.227348228275157 
738	 0.22824532452329 
739	 0.229264273273464 
740	 0.230563044765945 
741	 0.231665245184491 
742	 0.232340832872984 
743	 0.232324533846712 
744	 0.232540774465892 
745	 0.233688096623206 
746	 0.234237092810274 
747	 0.234398576197385 
748	 0.235420528926509 
749	 0.235965934870617 
750	 0.235842333673117 
751	 0.236737763199471 
752	 0.237828779217937 
753	 0.238141770810787 
754	 0.238336287711051 
755	 0.238712286665794 
756	 0.239924092876528 
757	 0.240093945896983 
758	 0.2385739532576 
759	 0.237968475861338 
760	 0.238631624859453 
761	 0.240182650184904 
762	 0.241246343871762 
763	 0.241818978439465 
764	 0.243341202492335 
765	 0.244903137419073 
766	 0.246072616315563 
767	 0.247016516206366 
768	 0.247589468227349 
769	 0.247505312739388 
770	 0.247913583338031 
771	 0.248843675901321 
772	 0.249210234285242 
773	 0.249756446238369 
774	 0.250902969188729 
775	 0.251762605666027 
776	 0.252288953769452 
777	 0.252664373745002 
778	 0.252899970468409 
779	 0.253103109352034 
780	 0.253555459391311 
781	 0.254192895626202 
782	 0.25494805077318 
783	 0.255816495613903 
784	 0.256588589795172 
785	 0.256860355706423 
786	 0.256969498211318 
787	 0.257092569259112 
788	 0.257387104160902 
789	 0.257850929285961 
790	 0.25844514907185 
791	 0.258833257329239 
792	 0.259221461904921 
793	 0.260358790007192 
794	 0.261026162429048 
795	 0.260925304912852 
796	 0.26095281758462 
797	 0.261317214302896 
798	 0.262140513876583 
799	 0.262890736188112 
800	 0.263653353389014 
801	 0.265094000503637 
802	 0.265865018648487 
803	 0.265676033777571 
804	 0.266252235812121 
805	 0.266912515802947 
806	 0.266833782013051 
807	 0.267058623110151 
808	 0.267691657724959 
809	 0.268470557897101 
810	 0.26893043336171 
811	 0.268777651626778 
812	 0.267780992306804 
813	 0.266965308074057 
814	 0.267675617754372 
815	 0.268201681219332 
816	 0.268620482431179 
817	 0.270833015174787 
818	 0.271792223791325 
819	 0.270678140883347 
820	 0.270889011113015 
821	 0.272161243365775 
822	 0.27386941110812 
823	 0.27515548078983 
824	 0.275657850473981 
825	 0.275276553839977 
826	 0.275018210748055 
827	 0.275365799061669 
828	 0.276136358624197 
829	 0.276891746859118 
830	 0.277143213232213 
831	 0.278102685309633 
832	 0.279643378131997 
833	 0.280773426561548 
834	 0.281215181321122 
835	 0.280994438623583 
836	 0.28097829798899 
837	 0.281683625863106 
838	 0.283516319887549 
839	 0.28454920130645 
840	 0.284641598197987 
841	 0.284572305037083 
842	 0.285405390124564 
843	 0.287089146955611 
844	 0.286205156117108 
845	 0.284785675990177 
846	 0.285351334907655 
847	 0.285892640146083 
848	 0.285983344061381 
849	 0.285540212758013 
850	 0.285330202150972 
851	 0.285825346348766 
852	 0.287440194030757 
853	 0.289023512066211 
854	 0.289376338572155 
855	 0.290180859347316 
856	 0.290912617908826 
857	 0.289190456206658 
858	 0.288995915164082 
859	 0.290989459171957 
860	 0.290909945957224 
861	 0.290418146182061 
862	 0.291191755145436 
863	 0.290969300400452 
864	 0.290248506452292 
865	 0.291039834578134 
866	 0.292412472066086 
867	 0.293887868761795 
868	 0.294990136265182 
869	 0.29538685153347 
870	 0.295006457818819 
871	 0.295487932966204 
872	 0.296358894609388 
873	 0.296150359412187 
874	 0.296104474322055 
875	 0.296894867723979 
876	 0.299847231147116 
877	 0.301318124889135 
878	 0.299317187239999 
879	 0.299873162965391 
880	 0.302105718381523 
881	 0.303182805549389 
882	 0.3039253949332 
883	 0.304496309683362 
884	 0.305014277882536 
885	 0.305251758621146 
886	 0.305208002681537 
887	 0.305731524624753 
888	 0.306420740422999 
889	 0.306633577512411 
890	 0.306870012505482 
891	 0.306842046698617 
892	 0.305235585674773 
893	 0.303768808127636 
894	 0.303655464852412 
895	 0.306355833943555 
896	 0.309276238645444 
897	 0.309312865857027 
898	 0.310416142700797 
899	 0.312394305801726 
900	 0.312729154244907 
901	 0.31227797927228 
902	 0.311613103046569 
903	 0.311779706974731 
904	 0.312218562482591 
905	 0.312447537885594 
906	 0.312298668753278 
907	 0.312501161241778 
908	 0.314451050516559 
909	 0.314832995724827 
910	 0.313464072959486 
911	 0.31372963006254 
912	 0.314037135844835 
913	 0.31377874570915 
914	 0.315108090912663 
915	 0.317264990989114 
916	 0.318994192823581 
917	 0.318958177259497 
918	 0.317575054842158 
919	 0.316649280858764 
920	 0.316407205057195 
921	 0.316710580262197 
922	 0.315864145689143 
923	 0.315775396400844 
924	 0.31774223753962 
925	 0.315932573990627 
926	 0.311406009068063 
927	 0.308556997370306 
928	 0.308890152773475 
929	 0.312093622021795 
930	 0.312065200118139 
931	 0.311374309745793 
932	 0.312374958087217 
933	 0.315728160643775 
934	 0.318561573266915 
935	 0.316842778643068 
936	 0.317283095237014 
937	 0.317483983685009 
938	 0.306708960628863 
939	 0.299897420261932 
940	 0.301474027471261 
941	 0.308784080335148 
942	 0.314075620169297 
943	 0.312244852297161 
944	 0.311342372343207 
945	 0.311923756504938 
946	 0.312977024654891 
947	 0.314937248021214 
948	 0.316777242165275 
949	 0.316483988203463 
950	 0.309331717963248 
951	 0.297134286321199 
952	 0.30131623492199 
953	 0.308056682341432 
954	 0.304473934807284 
955	 0.302222013625847 
956	 0.303307968806088 
957	 0.307752198096185 
958	 0.315013567287687 
959	 0.321502206822505 
960	 0.317261883648571 
961	 0.312841816973382 
962	 0.313417752408437 
963	 0.315139688773531 
964	 0.316505132010431 
965	 0.316626267898841 
966	 0.320918739340913 
967	 0.32459852333234 
968	 0.316617662139304 
969	 0.312870236455961 
970	 0.315876810549271 
971	 0.317501498348476 
972	 0.317577727372556 
973	 0.316776499645832 
974	 0.320339671447377 
975	 0.324606635921808 
976	 0.325178687543009 
977	 0.327117709937784 
978	 0.329061678265072 
979	 0.32604105860994 
980	 0.325797374637117 
981	 0.328892883110121 
982	 0.328260570912171 
983	 0.326514312163184 
984	 0.325403968453166 
985	 0.326299521111399 
986	 0.326505652904134 
987	 0.323238710741977 
988	 0.319991292906151 
989	 0.31937992596003 
990	 0.324926873789943 
991	 0.330991772029877 
992	 0.334751974072048 
993	 0.332748534870766 
994	 0.332534173649827 
995	 0.336217673081386 
996	 0.331986389934907 
997	 0.32471492523784 
998	 0.320560038357945 
999	 0.323351727966033 
1000	 0.32994716249533 
1001	 0.334002021689086 
1002	 0.33288845974823 
1003	 0.32860874775388 
1004	 0.330336381373852 
1005	 0.333115406825184 
1006	 0.334717484823004 
1007	 0.335642505590329 
1008	 0.332296360587298 
1009	 0.324510394393139 
1010	 0.332689836400121 
1011	 0.344499087211264 
1012	 0.338953245518348 
1013	 0.33588534035752 
1014	 0.338129179016504 
1015	 0.342500785543926 
1016	 0.34292939486861 
1017	 0.339307163810943 
1018	 0.339418170106221 
1019	 0.344103858398496 
1020	 0.352080798474656 
1021	 0.354932688107234 
1022	 0.346349862962471 
1023	 0.324665063824626 
1024	 0.327552111812257 
1025	 0.341353911272253 
1026	 0.333358840209623 
1027	 0.328219367457182 
1028	 0.331243717567324 
1029	 0.340524951649053 
1030	 0.342130997227872 
1031	 0.335939455875586 
1032	 0.346939196158425 
1033	 0.357853147668655 
1034	 0.356585855489184 
1035	 0.346117051879411 
1036	 0.333812533303397 
1037	 0.328852451040019 
1038	 0.337465622862072 
1039	 0.353473252917135 
1040	 0.364238912180503 
1041	 0.356428930765202 
1042	 0.339164802528787 
1043	 0.350450110691344 
1044	 0.350952403764727 
1045	 0.335073772999755 
1046	 0.341725085536516 
1047	 0.353469526452209 
1048	 0.354736948039884 
1049	 0.324198528560622 
1050	 0.296970705509671 
1051	 0.308600041758635 
1052	 0.319006595884327 
1053	 0.335928377194537 
1054	 0.373794408131303 
1055	 0.352665634411046 
1056	 0.296954807419972 
1057	 0.309154364229127 
1058	 0.315305735406408 
1059	 0.304645890011063 
1060	 0.318151433420912 
1061	 0.34001633324692 
1062	 0.355299656701889 
1063	 0.333521200788657 
1064	 0.310268997181682 
1065	 0.312032693394305 
1066	 0.325466783166959 
1067	 0.336683395841686 
1068	 0.334747933809128 
1069	 0.335926878751752 
1070	 0.329694789993366 
1071	 0.292923384762659 
1072	 0.27793022823332 
1073	 0.298773119363435 
1074	 0.352451585271483 
1075	 0.357557561893927 
