Wavelength	SHSI00202.asd
325	 0.126421947297324 
326	 0.123528204955189 
327	 0.106783647929494 
328	 0.11057083518869 
329	 0.114198408448129 
330	 0.110384882506311 
331	 0.103695428622481 
332	 0.100648346464887 
333	 0.106167982980355 
334	 0.107557930029611 
335	 0.104899222742022 
336	 0.10354767573 
337	 0.104943717277133 
338	 0.107790175759797 
339	 0.103485509137621 
340	 0.099208632302282 
341	 0.10081880260973 
342	 0.104428681181086 
343	 0.10880777221951 
344	 0.113748516471809 
345	 0.111373108189238 
346	 0.103795923535534 
347	 0.106614893309544 
348	 0.111738371720076 
349	 0.113197174542374 
350	 0.111771793554248 
351	 0.109839428695576 
352	 0.111017355378395 
353	 0.110432954491109 
354	 0.108393554051667 
355	 0.110254129800541 
356	 0.113596372637727 
357	 0.1165932719969 
358	 0.118300156586787 
359	 0.118070530098832 
360	 0.115189836225288 
361	 0.115598366280743 
362	 0.118247239996719 
363	 0.114435417961525 
364	 0.111343141821404 
365	 0.112519583742987 
366	 0.11393617466346 
367	 0.115135083850981 
368	 0.116064939845609 
369	 0.117254861117938 
370	 0.11855586840573 
371	 0.118665296743084 
372	 0.120544537374177 
373	 0.124709950042981 
374	 0.123371582567736 
375	 0.119443697102933 
376	 0.118007041375741 
377	 0.115680461694611 
378	 0.113018370447899 
379	 0.113645605496724 
380	 0.115988460456892 
381	 0.118760270478826 
382	 0.120006042342941 
383	 0.119379327680155 
384	 0.116859999423164 
385	 0.115927970721542 
386	 0.116265582192373 
387	 0.113973464746239 
388	 0.111869101431235 
389	 0.111441946745561 
390	 0.113582747074342 
391	 0.115914427686842 
392	 0.115631985103518 
393	 0.114304991082157 
394	 0.112553439713703 
395	 0.111284966141358 
396	 0.109589757806584 
397	 0.107343360486602 
398	 0.105521116749214 
399	 0.104908907141107 
400	 0.106061281411849 
401	 0.107307075431752 
402	 0.108421554481993 
403	 0.10999220259334 
404	 0.110660330749615 
405	 0.110162444520825 
406	 0.110733675965247 
407	 0.111328840194908 
408	 0.110465344385396 
409	 0.109763076628998 
410	 0.109410283447568 
411	 0.108722389762578 
412	 0.108575079067621 
413	 0.109109292056592 
414	 0.108366866943912 
415	 0.107713885552494 
416	 0.10911255859792 
417	 0.109715454440727 
418	 0.109311704062696 
419	 0.109585773543591 
420	 0.109274690994473 
421	 0.108035295080786 
422	 0.108385452515479 
423	 0.109430904992303 
424	 0.109481131684008 
425	 0.10937521631368 
426	 0.109416466568694 
427	 0.110010077386457 
428	 0.110489296041066 
429	 0.110373916527117 
430	 0.109756243027676 
431	 0.108867572467951 
432	 0.108037762306975 
433	 0.10751434484331 
434	 0.107300049558364 
435	 0.106854071485521 
436	 0.107499228027584 
437	 0.109793671301339 
438	 0.110455988309303 
439	 0.109804244426638 
440	 0.109275641538428 
441	 0.109298932335992 
442	 0.109913350349729 
443	 0.110314285965113 
444	 0.110829941509202 
445	 0.111664002406429 
446	 0.111700396887962 
447	 0.111384836232899 
448	 0.112125303929718 
449	 0.112703325785978 
450	 0.112894635783428 
451	 0.113602846527644 
452	 0.114741463824331 
453	 0.116121336358985 
454	 0.11691060076705 
455	 0.116994215471508 
456	 0.116529110206013 
457	 0.116334438782588 
458	 0.11675863269087 
459	 0.117339250869665 
460	 0.117818041743684 
461	 0.117946879380704 
462	 0.117619396087463 
463	 0.117356907156943 
464	 0.118785263786566 
465	 0.120199897651857 
466	 0.120717958581616 
467	 0.121186593302579 
468	 0.121326236171449 
469	 0.120619275917007 
470	 0.120346653755857 
471	 0.120728895138394 
472	 0.121101319266968 
473	 0.121747281787305 
474	 0.122731503975516 
475	 0.123198029029805 
476	 0.123264767969542 
477	 0.123347391807581 
478	 0.123459067652531 
479	 0.123663840182559 
480	 0.124037816223859 
481	 0.124577838497772 
482	 0.125287949043598 
483	 0.126324355664232 
484	 0.127270581591308 
485	 0.127149953307211 
486	 0.126572678837507 
487	 0.125894104175411 
488	 0.125571387282398 
489	 0.125331738925607 
490	 0.124927542557676 
491	 0.126030976046577 
492	 0.127882556114301 
493	 0.127676691705363 
494	 0.127194971720483 
495	 0.127263987219926 
496	 0.127823695252979 
497	 0.128767614408494 
498	 0.129949492780752 
499	 0.130777034568617 
500	 0.131290696862185 
501	 0.132298252765999 
502	 0.133051999862988 
503	 0.1331837523259 
504	 0.133542030651202 
505	 0.134145103617324 
506	 0.13478419406784 
507	 0.135976004805796 
508	 0.137606544328431 
509	 0.138591720054029 
510	 0.139736805134707 
511	 0.141596856108073 
512	 0.142600390492151 
513	 0.143192834504683 
514	 0.145077673390556 
515	 0.146649162935696 
516	 0.147406115887503 
517	 0.148099682826143 
518	 0.148635124080488 
519	 0.148888428642853 
520	 0.149463810555462 
521	 0.150468896595092 
522	 0.151797884033136 
523	 0.153291889464616 
524	 0.154887647485528 
525	 0.156851988842291 
526	 0.158507867990056 
527	 0.158874951788886 
528	 0.159420625834784 
529	 0.160498952860829 
530	 0.161825145880416 
531	 0.163266733696327 
532	 0.164684832572747 
533	 0.165745736118806 
534	 0.166591768773425 
535	 0.167587908364662 
536	 0.168656698644495 
537	 0.169848895026787 
538	 0.171426099354767 
539	 0.172967942794124 
540	 0.174038102577636 
541	 0.17444095600106 
542	 0.174626050109304 
543	 0.175797351584042 
544	 0.177226002109194 
545	 0.17855408651016 
546	 0.179558151379406 
547	 0.180552328867557 
548	 0.181972451346337 
549	 0.182813422331335 
550	 0.183126826459462 
551	 0.18394093849011 
552	 0.184866427439349 
553	 0.185725002784801 
554	 0.187208297948992 
555	 0.18874693206569 
556	 0.189125784790506 
557	 0.189639355943706 
558	 0.190584997082735 
559	 0.191262626403809 
560	 0.191861216421259 
561	 0.192581266436096 
562	 0.193390596566289 
563	 0.194272776002417 
564	 0.195288123404598 
565	 0.195830271273824 
566	 0.195768647517675 
567	 0.196010378480296 
568	 0.196571227990616 
569	 0.197349937467771 
570	 0.197759881826059 
571	 0.197685476337254 
572	 0.197237817839744 
573	 0.197302748491442 
574	 0.198322899271463 
575	 0.198986030215138 
576	 0.199387454576023 
577	 0.200074730500065 
578	 0.20056010871602 
579	 0.200747110689278 
580	 0.200862101722526 
581	 0.201171961193962 
582	 0.20186676088985 
583	 0.202396730926566 
584	 0.202657855729 
585	 0.202602519895083 
586	 0.202882973141985 
587	 0.203645537749346 
588	 0.203897945718063 
589	 0.203816946960676 
590	 0.203762512987532 
591	 0.203927095871584 
592	 0.204268807865418 
593	 0.204441560318659 
594	 0.204645540608079 
595	 0.204982267106693 
596	 0.205251361830174 
597	 0.20560078151403 
598	 0.20638309723486 
599	 0.206592963968419 
600	 0.20620046783253 
601	 0.206567445846517 
602	 0.206993112449364 
603	 0.206871338368202 
604	 0.207151782046608 
605	 0.207727035295873 
606	 0.208000651756749 
607	 0.207737306489228 
608	 0.206967490688729 
609	 0.206743099682123 
610	 0.20645596099473 
611	 0.205241751129613 
612	 0.20490238686019 
613	 0.205304768890487 
614	 0.20445707854442 
615	 0.20361782570207 
616	 0.203489227404806 
617	 0.20310809461656 
618	 0.202612551451112 
619	 0.202435995057449 
620	 0.202462437924469 
621	 0.20258652871048 
622	 0.202531408754085 
623	 0.202365706403031 
624	 0.202174724332419 
625	 0.20207893422914 
626	 0.202152967851944 
627	 0.202488525595104 
628	 0.20298824671304 
629	 0.203514864209471 
630	 0.203697885699268 
631	 0.203532115947531 
632	 0.203071398690895 
633	 0.202868065238396 
634	 0.203041857848813 
635	 0.203425775860014 
636	 0.203845346403003 
637	 0.204225380533061 
638	 0.205009253846647 
639	 0.205814494807753 
640	 0.205850864492378 
641	 0.206181998541015 
642	 0.206857452162796 
643	 0.206515731134843 
644	 0.206388359802242 
645	 0.207465959755011 
646	 0.207449176053911 
647	 0.206638447893989 
648	 0.207095435395482 
649	 0.207044159178139 
650	 0.205971872265041 
651	 0.20506575086083 
652	 0.204547758433359 
653	 0.204532159295493 
654	 0.203959001000798 
655	 0.202562959592701 
656	 0.200803612965821 
657	 0.198547312383256 
658	 0.195933136371948 
659	 0.193398955334441 
660	 0.191292920436107 
661	 0.190205018961428 
662	 0.188225475851708 
663	 0.185108667391581 
664	 0.182453756501163 
665	 0.180110493997528 
666	 0.177909131930982 
667	 0.175915630669291 
668	 0.174038502291421 
669	 0.171940811830443 
670	 0.170378592965357 
671	 0.169548833491652 
672	 0.16879271412228 
673	 0.168072153946253 
674	 0.167410650664386 
675	 0.167126652232141 
676	 0.167292449505564 
677	 0.167837896364938 
678	 0.168725931820743 
679	 0.169905435464678 
680	 0.171170050077224 
681	 0.172741757243826 
682	 0.17501445598674 
683	 0.177616931298777 
684	 0.18056192885913 
685	 0.184496868738325 
686	 0.189188225357066 
687	 0.194309873295107 
688	 0.199529001078477 
689	 0.204597735143106 
690	 0.210277654407333 
691	 0.216439227981046 
692	 0.223097356287332 
693	 0.22993716564959 
694	 0.236799288987186 
695	 0.24321634057685 
696	 0.248883604990545 
697	 0.254221108132704 
698	 0.260777980775386 
699	 0.266855989271816 
700	 0.271704876977458 
701	 0.2770122459837 
702	 0.282249601402664 
703	 0.286509764023739 
704	 0.290286898742101 
705	 0.293863897551001 
706	 0.297526651377767 
707	 0.301052298905366 
708	 0.304266320700131 
709	 0.307114372851837 
710	 0.309827680519776 
711	 0.312816694507057 
712	 0.315743568350667 
713	 0.3184024269172 
714	 0.320432651006145 
715	 0.322387906764855 
716	 0.324899621727054 
717	 0.327361756414829 
718	 0.329743652396447 
719	 0.332111099882454 
720	 0.333756833676226 
721	 0.33462194995444 
722	 0.335712810139577 
723	 0.337317959489771 
724	 0.339623915499744 
725	 0.341756044145898 
726	 0.343359612342887 
727	 0.344703098815301 
728	 0.345760220010455 
729	 0.346655240083066 
730	 0.348161789854046 
731	 0.349822397699304 
732	 0.35090809271856 
733	 0.351668329087151 
734	 0.352382169482693 
735	 0.353740486172744 
736	 0.354963209252648 
737	 0.355533130955166 
738	 0.356094075461017 
739	 0.357007885738707 
740	 0.358798900706169 
741	 0.360026813319421 
742	 0.360445309757778 
743	 0.361165612252986 
744	 0.362025185693404 
745	 0.36282654669183 
746	 0.363066352148854 
747	 0.3633029162198 
748	 0.365222160270715 
749	 0.366331000582429 
750	 0.366102668776883 
751	 0.367079703536831 
752	 0.368398830148119 
753	 0.368977796602766 
754	 0.369490865284384 
755	 0.370088363445604 
756	 0.371130486455944 
757	 0.370408629731686 
758	 0.367414134239765 
759	 0.367560087579771 
760	 0.372484997897063 
761	 0.379878125903612 
762	 0.382331200677298 
763	 0.380915033859114 
764	 0.383553214059182 
765	 0.385334665598948 
766	 0.384727629892985 
767	 0.383065773372204 
768	 0.38183691551478 
769	 0.382644215146134 
770	 0.383242641413632 
771	 0.383390402592572 
772	 0.384302931250744 
773	 0.385394684595277 
774	 0.386262800298967 
775	 0.387041319827535 
776	 0.387765582958505 
777	 0.388501702706318 
778	 0.389088765187864 
779	 0.389609482780697 
780	 0.390644924530051 
781	 0.391471191651576 
782	 0.391603106255752 
783	 0.392362195818451 
784	 0.39356314775551 
785	 0.394362420083063 
786	 0.394964210609767 
787	 0.395426244455063 
788	 0.395741014607524 
789	 0.396275464996555 
790	 0.397341873208259 
791	 0.39854340855111 
792	 0.399608892459788 
793	 0.400168840164208 
794	 0.400264654441243 
795	 0.400213228015616 
796	 0.401490235288132 
797	 0.40265393929922 
798	 0.402295461695411 
799	 0.40271520131827 
800	 0.403966591457863 
801	 0.404971397558663 
802	 0.405682131684567 
803	 0.406183023259452 
804	 0.407490867548538 
805	 0.408378005840284 
806	 0.407583236403137 
807	 0.40787225002282 
808	 0.409286464147132 
809	 0.410239521720547 
810	 0.410990796117198 
811	 0.41153278181336 
812	 0.411523571026818 
813	 0.411516746619115 
814	 0.412291054004823 
815	 0.414423709290945 
816	 0.417424767265973 
817	 0.419531598783326 
818	 0.420272730578198 
819	 0.419815834509807 
820	 0.420191885028062 
821	 0.42127543288285 
822	 0.422727470514752 
823	 0.424998347129577 
824	 0.426849423741409 
825	 0.424794015123044 
826	 0.423621384481967 
827	 0.425080616563822 
828	 0.426320110988858 
829	 0.427012015922902 
830	 0.427110626482245 
831	 0.42781671569603 
832	 0.42905934038052 
833	 0.429880742709442 
834	 0.43023816943606 
835	 0.430183719542621 
836	 0.430235445587821 
837	 0.430434421335881 
838	 0.430768716446541 
839	 0.431323322430843 
840	 0.432043914170597 
841	 0.43280529682952 
842	 0.433441422352015 
843	 0.433624236486629 
844	 0.432035093794691 
845	 0.430526817419932 
846	 0.431182922694977 
847	 0.431642586246884 
848	 0.431695952214154 
849	 0.432344884164433 
850	 0.432338704340835 
851	 0.431567147366759 
852	 0.432435962340744 
853	 0.433938841572645 
854	 0.434818898411714 
855	 0.436362895743869 
856	 0.437685112812796 
857	 0.435986216000882 
858	 0.434935498968331 
859	 0.435594246972021 
860	 0.436293350660317 
861	 0.436232571048593 
862	 0.434922764100303 
863	 0.435220005342398 
864	 0.436762233472608 
865	 0.437283736214146 
866	 0.438712175712807 
867	 0.441019741682797 
868	 0.441178454499915 
869	 0.441541745748311 
870	 0.443785701829434 
871	 0.443681488318281 
872	 0.442344167519118 
873	 0.443061754758577 
874	 0.444681153727015 
875	 0.446753614892345 
876	 0.448714820571182 
877	 0.450460499793052 
878	 0.452006805545474 
879	 0.453850659215757 
880	 0.456069968597531 
881	 0.458707212688171 
882	 0.460090904073911 
883	 0.460063851412027 
884	 0.459607112619174 
885	 0.460576241538577 
886	 0.463482272720812 
887	 0.463771585821876 
888	 0.463288711963107 
889	 0.465070985119189 
890	 0.465314541157268 
891	 0.464172957163008 
892	 0.464935957321509 
893	 0.465483873667122 
894	 0.465254742688592 
895	 0.466697421788692 
896	 0.469729254945744 
897	 0.473871080924421 
898	 0.478569334591027 
899	 0.482375468438132 
900	 0.482649011842854 
901	 0.481413670406585 
902	 0.4798556893628 
903	 0.4789419190193 
904	 0.478824910635204 
905	 0.479671189810809 
906	 0.482213656232672 
907	 0.48522481688962 
908	 0.486437334993902 
909	 0.485969401154481 
910	 0.484574150104749 
911	 0.484940343233526 
912	 0.485658362074324 
913	 0.486377091875113 
914	 0.49044090928558 
915	 0.49494376231654 
916	 0.496027829131178 
917	 0.495112302717401 
918	 0.493446130013714 
919	 0.493300470747416 
920	 0.493988188690113 
921	 0.494243543608585 
922	 0.488636604060922 
923	 0.48491655190508 
924	 0.489123953494968 
925	 0.486991301937974 
926	 0.47996968563611 
927	 0.476409206009136 
928	 0.477770069014941 
929	 0.48430194499873 
930	 0.491580829800139 
931	 0.496257546052543 
932	 0.495960418124961 
933	 0.5014551743178 
934	 0.508084898643546 
935	 0.506961946787525 
936	 0.506470133183068 
937	 0.506884632137528 
938	 0.503562134057978 
939	 0.49958949737765 
940	 0.496830354335542 
941	 0.499456414545287 
942	 0.497041419244531 
943	 0.484954259187614 
944	 0.494529939546433 
945	 0.50961759163727 
946	 0.498193674394282 
947	 0.496237942614364 
948	 0.505552007082942 
949	 0.501148649410229 
950	 0.494452144502312 
951	 0.491052782441341 
952	 0.49362930802531 
953	 0.496998751283197 
954	 0.496476732680199 
955	 0.494387174411239 
956	 0.49245749624772 
957	 0.492503778773425 
958	 0.501982911277345 
959	 0.514748413893512 
960	 0.504468844927662 
961	 0.49763836488379 
962	 0.504217284513857 
963	 0.501340352628273 
964	 0.495625110885657 
965	 0.49495381318156 
966	 0.498493669266054 
967	 0.501453537928305 
968	 0.494734098669604 
969	 0.492053567046855 
970	 0.495021510980825 
971	 0.494194335140489 
972	 0.494905242639172 
973	 0.499003608596007 
974	 0.498168735363335 
975	 0.497803135270535 
976	 0.504315947326513 
977	 0.510005548923241 
978	 0.511300348557555 
979	 0.504105908626385 
980	 0.499766109338862 
981	 0.500620550592866 
982	 0.499670180357116 
983	 0.499977235635065 
984	 0.502440130891317 
985	 0.502519923250683 
986	 0.501273596723941 
987	 0.500321255130932 
988	 0.499018749437566 
989	 0.499267907990955 
990	 0.504804312047805 
991	 0.509909510986175 
992	 0.512146963831109 
993	 0.509821366001227 
994	 0.506159032087046 
995	 0.503538254679784 
996	 0.504744096998082 
997	 0.504149297155969 
998	 0.497115710606494 
999	 0.497661031198937 
1000	 0.504181841835169 
1001	 0.509832224568445 
1002	 0.509746798642483 
1003	 0.504549565920078 
1004	 0.500745898186189 
1005	 0.502937307276058 
1006	 0.510856724572859 
1007	 0.512229371429364 
1008	 0.511495006887921 
1009	 0.512714302893238 
1010	 0.515619957665135 
1011	 0.518080221069435 
1012	 0.517016853745952 
1013	 0.516803291470822 
1014	 0.516049013849616 
1015	 0.508500799696148 
1016	 0.507444785157008 
1017	 0.513768020828017 
1018	 0.511953538093519 
1019	 0.5166125806359 
1020	 0.531698182614927 
1021	 0.530352014145876 
1022	 0.51722084960159 
1023	 0.502272431003545 
1024	 0.512277494938449 
1025	 0.530181299241693 
1026	 0.521097951992172 
1027	 0.507348522100202 
1028	 0.501093912694564 
1029	 0.522821934492467 
1030	 0.52830224006351 
1031	 0.511662187899502 
1032	 0.525291348699212 
1033	 0.532203281837427 
1034	 0.51351219388054 
1035	 0.513548388671249 
1036	 0.515729638876547 
1037	 0.500942464420387 
1038	 0.510949016673473 
1039	 0.530052864074155 
1040	 0.520253628012249 
1041	 0.522973760752245 
1042	 0.536200018190164 
1043	 0.525018290200619 
1044	 0.512663950488659 
1045	 0.510663659580887 
1046	 0.532687751896723 
1047	 0.537605339409243 
1048	 0.508596798166842 
1049	 0.512353970992957 
1050	 0.522933398351855 
1051	 0.511115906311519 
1052	 0.50880332505917 
1053	 0.515857888686898 
1054	 0.523861629616608 
1055	 0.520950358380752 
1056	 0.511858504146074 
1057	 0.514336474435293 
1058	 0.52580383530907 
1059	 0.535455094492962 
1060	 0.505227394266316 
1061	 0.505758625767827 
1062	 0.549448690252682 
1063	 0.506507191888248 
1064	 0.458487370496315 
1065	 0.466248109333925 
1066	 0.491202351137164 
1067	 0.504928213449524 
1068	 0.487412607554103 
1069	 0.496096900062515 
1070	 0.519182044387775 
1071	 0.522678379812104 
1072	 0.48129806882185 
1073	 0.446051408561858 
1074	 0.533898266554032 
1075	 0.544112813683952 
