Wavelength	SHSI00161.asd
325	 5.86597424720596E-02 
326	 5.76860056456796E-02 
327	 4.11913229744604E-02 
328	 6.24895636201714E-02 
329	 0.069176989061405 
330	 4.91364086959861E-02 
331	 4.81506037453444E-02 
332	 5.56143255482285E-02 
333	 5.85801506831697E-02 
334	 6.07659767809861E-02 
335	 6.09878924917484E-02 
336	 5.55055379912481E-02 
337	 5.18452570194373E-02 
338	 5.16283712089207E-02 
339	 4.94081978651695E-02 
340	 5.05887805472816E-02 
341	 5.81727956632046E-02 
342	 0.053686058631131 
343	 4.53318228019651E-02 
344	 5.40289702231477E-02 
345	 0.058203162631173 
346	 5.51468574297099E-02 
347	 5.75373090946186E-02 
348	 6.11209873900052E-02 
349	 6.24150920702458E-02 
350	 5.89126188326854E-02 
351	 5.52349181503164E-02 
352	 5.92135194682695E-02 
353	 5.85175954716019E-02 
354	 5.33600904567835E-02 
355	 5.64053683581386E-02 
356	 5.94499777307444E-02 
357	 5.79898690964469E-02 
358	 5.96880491674929E-02 
359	 6.22238007243356E-02 
360	 6.09440999651273E-02 
361	 5.94490071502889E-02 
362	 5.84993069819086E-02 
363	 5.72974917874946E-02 
364	 5.66344325269177E-02 
365	 5.67322249379388E-02 
366	 5.54706885507963E-02 
367	 0.055943113782328 
368	 6.25583719596591E-02 
369	 6.52125989626623E-02 
370	 6.28117375210688E-02 
371	 0.059846039983781 
372	 6.04502000529475E-02 
373	 0.065601657101578 
374	 6.44971789219646E-02 
375	 6.01678467199789E-02 
376	 5.83668703041619E-02 
377	 0.059129856112282 
378	 6.14552677223704E-02 
379	 6.19189528359623E-02 
380	 6.15012866304059E-02 
381	 6.09858513844181E-02 
382	 0.062626308933976 
383	 6.35266464026735E-02 
384	 5.97675756553032E-02 
385	 5.94632014042696E-02 
386	 6.19824903137222E-02 
387	 5.95257114323694E-02 
388	 5.69698715643086E-02 
389	 0.056542462854658 
390	 5.76050732511899E-02 
391	 5.93869929589831E-02 
392	 6.10013208038539E-02 
393	 6.01150768469448E-02 
394	 5.75450471191203E-02 
395	 5.72530168562013E-02 
396	 5.67720196553065E-02 
397	 5.53103213186909E-02 
398	 5.41341617070394E-02 
399	 5.34647765448377E-02 
400	 5.33690116892895E-02 
401	 5.36951844789142E-02 
402	 5.44368742827612E-02 
403	 5.58296597043463E-02 
404	 5.69671109574611E-02 
405	 5.75192287531861E-02 
406	 5.81298988119055E-02 
407	 5.86298299048593E-02 
408	 0.058750613035753 
409	 5.82569689912723E-02 
410	 5.74484229698445E-02 
411	 5.71187623244108E-02 
412	 5.74405946194744E-02 
413	 5.82686818628763E-02 
414	 5.81629456148608E-02 
415	 5.77796695275731E-02 
416	 0.058135977707718 
417	 5.86122224955949E-02 
418	 5.89509636230252E-02 
419	 0.058870944335326 
420	 0.058477777018813 
421	 5.79788571443232E-02 
422	 5.82612235467721E-02 
423	 0.058983809548742 
424	 5.95344389972337E-02 
425	 5.92310258013375E-02 
426	 5.84566671422208E-02 
427	 0.059367696705805 
428	 6.00377355511077E-02 
429	 5.93159485231156E-02 
430	 5.89933744594794E-02 
431	 5.86438709975359E-02 
432	 5.71368928847616E-02 
433	 5.67672171525951E-02 
434	 5.76607076869458E-02 
435	 5.78981583926394E-02 
436	 5.83975474024943E-02 
437	 5.96294734994905E-02 
438	 5.99473517990491E-02 
439	 5.96467141556316E-02 
440	 5.97002535413147E-02 
441	 5.97898165542672E-02 
442	 5.97954570082667E-02 
443	 5.94021543512804E-02 
444	 5.94203766302341E-02 
445	 6.03756714365519E-02 
446	 6.04347785327673E-02 
447	 5.98199751347362E-02 
448	 5.96745777341488E-02 
449	 5.98583961152524E-02 
450	 6.02434893496237E-02 
451	 6.01776924658886E-02 
452	 6.02970977053019E-02 
453	 6.12079481889533E-02 
454	 6.15961181174642E-02 
455	 0.061451113277887 
456	 6.15420270853214E-02 
457	 6.14141390946288E-02 
458	 6.10314266211769E-02 
459	 6.11427814332266E-02 
460	 6.14436502292905E-02 
461	 6.14992466900964E-02 
462	 6.12525473773415E-02 
463	 6.09690979833716E-02 
464	 6.15451920825148E-02 
465	 6.19641159197183E-02 
466	 6.17888520812329E-02 
467	 6.20701493939165E-02 
468	 6.23453538866237E-02 
469	 6.17936822510139E-02 
470	 6.12297191503272E-02 
471	 0.061039046095087 
472	 6.16968874601559E-02 
473	 6.24070335959651E-02 
474	 6.26100588948475E-02 
475	 6.23060384750922E-02 
476	 6.18571096485611E-02 
477	 6.18992246013685E-02 
478	 6.16843603127624E-02 
479	 6.12354516375552E-02 
480	 6.14815503620978E-02 
481	 6.20633284215511E-02 
482	 6.26387182738206E-02 
483	 6.30104887744019E-02 
484	 6.31177031487601E-02 
485	 6.29760512107026E-02 
486	 0.062510956856526 
487	 6.18608613353086E-02 
488	 6.17477684028064E-02 
489	 0.061617051987009 
490	 0.060935111004619 
491	 6.14142710372733E-02 
492	 6.25227532631237E-02 
493	 6.18765535952233E-02 
494	 6.16163995298967E-02 
495	 6.24611988687315E-02 
496	 6.27462276981438E-02 
497	 0.062711283531425 
498	 0.062866916496983 
499	 6.30497195069943E-02 
500	 6.32180314431495E-02 
501	 6.33255479418264E-02 
502	 0.063434289097299 
503	 6.35559567125117E-02 
504	 6.34955119870862E-02 
505	 6.33111498586842E-02 
506	 6.31041562681637E-02 
507	 6.32700631992366E-02 
508	 6.38649241720616E-02 
509	 6.45374095008423E-02 
510	 6.53925759836119E-02 
511	 6.64257489350872E-02 
512	 6.65998693577494E-02 
513	 6.61680003204955E-02 
514	 6.60075973006073E-02 
515	 6.64615798412393E-02 
516	 6.74834729372328E-02 
517	 6.79200209112694E-02 
518	 6.77469703748723E-02 
519	 6.71092746548193E-02 
520	 6.70143014236787E-02 
521	 6.74906846349431E-02 
522	 6.79707662226632E-02 
523	 6.84701667485848E-02 
524	 0.069034625249259 
525	 7.01232735437299E-02 
526	 7.10857907754999E-02 
527	 7.09673574997581E-02 
528	 7.04153082166997E-02 
529	 0.069970983120912 
530	 7.07014556131384E-02 
531	 7.17010871814966E-02 
532	 7.22974461854187E-02 
533	 0.07232044911203 
534	 7.21026120321838E-02 
535	 7.23342731919087E-02 
536	 7.26550528335938E-02 
537	 7.30099262324175E-02 
538	 7.36310352362138E-02 
539	 7.42612234007071E-02 
540	 7.46255961225299E-02 
541	 7.45111276873537E-02 
542	 7.41533314487223E-02 
543	 0.074186641071161 
544	 7.46163952056028E-02 
545	 7.53197477766135E-02 
546	 7.54297093184613E-02 
547	 7.54221886486834E-02 
548	 7.60194411256643E-02 
549	 7.63369553755687E-02 
550	 7.62835386488004E-02 
551	 7.63162799998093E-02 
552	 7.63873932212567E-02 
553	 7.65048551049849E-02 
554	 7.69329932607152E-02 
555	 7.74481453052557E-02 
556	 7.75873194025708E-02 
557	 7.76906259646396E-02 
558	 7.77715378229003E-02 
559	 7.73573609670689E-02 
560	 7.71199879282561E-02 
561	 7.76298438319391E-02 
562	 7.77982505607972E-02 
563	 0.077708636719047 
564	 7.82120574458413E-02 
565	 7.83494364799297E-02 
566	 7.78880212719382E-02 
567	 0.07795015767186 
568	 7.82776214874416E-02 
569	 7.84105581342605E-02 
570	 7.83681675352771E-02 
571	 7.82013591576952E-02 
572	 7.81026522679822E-02 
573	 7.80494364470177E-02 
574	 7.80315479024264E-02 
575	 7.80432430113188E-02 
576	 7.80921252586944E-02 
577	 7.81885843280172E-02 
578	 7.84091849985339E-02 
579	 7.86728253897474E-02 
580	 7.85379077978845E-02 
581	 7.84077444738761E-02 
582	 7.86457890734951E-02 
583	 0.079088147444803 
584	 7.93972483896739E-02 
585	 7.87469585964214E-02 
586	 7.83217605711824E-02 
587	 7.85275813233231E-02 
588	 7.85106943831314E-02 
589	 7.84167856570378E-02 
590	 7.85309360589592E-02 
591	 7.84469159833309E-02 
592	 7.82095448134058E-02 
593	 0.078246864578894 
594	 7.84015038376534E-02 
595	 7.85595749850492E-02 
596	 0.078531257484463 
597	 7.85804993994186E-02 
598	 7.92707074237828E-02 
599	 7.92978793902261E-02 
600	 7.85609900886856E-02 
601	 0.078451502334526 
602	 0.07884633508126 
603	 7.95298322485465E-02 
604	 7.98386477514088E-02 
605	 7.97782907991941E-02 
606	 7.97060198882604E-02 
607	 7.97167432605039E-02 
608	 7.98535661528956E-02 
609	 7.99679106173733E-02 
610	 7.99849064623545E-02 
611	 7.98359835184432E-02 
612	 7.99995006470473E-02 
613	 8.03319476213623E-02 
614	 7.99651720949049E-02 
615	 7.95002229440705E-02 
616	 7.92864693281281E-02 
617	 7.88654677560113E-02 
618	 7.85486154292329E-02 
619	 7.89566236441389E-02 
620	 7.93311963839486E-02 
621	 7.95265671541065E-02 
622	 8.00991007588328E-02 
623	 0.080404363501009 
624	 7.99097010028302E-02 
625	 0.079718386624818 
626	 7.98374030477864E-02 
627	 7.96214883389477E-02 
628	 7.97882548670696E-02 
629	 8.04833032996777E-02 
630	 0.080897091376067 
631	 8.07951297678013E-02 
632	 8.00116011852116E-02 
633	 7.96660429241731E-02 
634	 7.99253917022312E-02 
635	 8.03169363192311E-02 
636	 8.05890368482056E-02 
637	 8.05642840035277E-02 
638	 8.02890796189094E-02 
639	 8.00134598436932E-02 
640	 8.01623348999914E-02 
641	 8.02329336732873E-02 
642	 8.01066292944579E-02 
643	 8.00022929508765E-02 
644	 7.99792813383511E-02 
645	 8.00372218857238E-02 
646	 0.079413221083625 
647	 0.078606246952243 
648	 7.93809702421084E-02 
649	 7.97450284361661E-02 
650	 7.90876395711584E-02 
651	 7.87794469995729E-02 
652	 7.90560386622419E-02 
653	 8.00360920280339E-02 
654	 8.01198034386983E-02 
655	 0.079255174991801 
656	 0.078943473741758 
657	 7.84409960250598E-02 
658	 7.75052980176989E-02 
659	 7.72846306544382E-02 
660	 7.76139964380275E-02 
661	 7.80957511774321E-02 
662	 7.81334968137339E-02 
663	 7.76395104294472E-02 
664	 7.71934939658671E-02 
665	 7.68503576083325E-02 
666	 7.66601640037565E-02 
667	 7.68669794787721E-02 
668	 7.71317107108873E-02 
669	 7.64923440389593E-02 
670	 7.61146639524787E-02 
671	 7.64155807450192E-02 
672	 7.71076299473398E-02 
673	 7.75122812079772E-02 
674	 7.69285811203474E-02 
675	 7.68196538199733E-02 
676	 7.72977781174503E-02 
677	 7.76423368993526E-02 
678	 7.77186234194404E-02 
679	 7.75282822848309E-02 
680	 7.77795874169152E-02 
681	 7.83036751563237E-02 
682	 7.86740876174088E-02 
683	 7.94072489248599E-02 
684	 8.05567245853212E-02 
685	 8.18422951594252E-02 
686	 8.31454078153558E-02 
687	 8.43511588838283E-02 
688	 8.58790130560481E-02 
689	 0.087464492504914 
690	 8.86498742404109E-02 
691	 0.090213305369696 
692	 9.23252758192388E-02 
693	 9.43748258120326E-02 
694	 9.63291222355159E-02 
695	 9.81111078871158E-02 
696	 9.98568969684387E-02 
697	 0.101756101112666 
698	 0.104346717611608 
699	 0.106752363537782 
700	 0.108580730686697 
701	 0.11065954615079 
702	 0.11279027495103 
703	 0.11459022499557 
704	 0.116747055795808 
705	 0.119162406862516 
706	 0.120824091616899 
707	 0.122444862309259 
708	 0.124452164989062 
709	 0.126408523229489 
710	 0.12814964398077 
711	 0.129414808937081 
712	 0.131310566471149 
713	 0.133848381305878 
714	 0.13549153762386 
715	 0.136734681228622 
716	 0.138148670108739 
717	 0.139360084247321 
718	 0.140588422079252 
719	 0.142629433916101 
720	 0.143709856875796 
721	 0.143683607099946 
722	 0.145119538969531 
723	 0.147027321970245 
724	 0.14810264865512 
725	 0.149423095611816 
726	 0.150921968889049 
727	 0.152002351476756 
728	 0.152967991824165 
729	 0.153988927366868 
730	 0.155229114116744 
731	 0.15618573236925 
732	 0.156171357138602 
733	 0.156662210893346 
734	 0.157879702055894 
735	 0.159326879096467 
736	 0.160543769683747 
737	 0.16122628842789 
738	 0.162120746157087 
739	 0.16311979018332 
740	 0.163800406361476 
741	 0.16455402700402 
742	 0.165424125239446 
743	 0.166034500346309 
744	 0.166769517570591 
745	 0.167901610978472 
746	 0.168438631613937 
747	 0.168671493161683 
748	 0.169742708536978 
749	 0.170696145273222 
750	 0.171245904353521 
751	 0.171818972136588 
752	 0.172476570076976 
753	 0.173246400825333 
754	 0.173884894510599 
755	 0.17460433457903 
756	 0.176490009427174 
757	 0.17660709070361 
758	 0.174086362153299 
759	 0.174146555131394 
760	 0.177891036770719 
761	 0.182863099317645 
762	 0.184020503936247 
763	 0.182464753719089 
764	 0.183865601471164 
765	 0.185741817806596 
766	 0.186936267633514 
767	 0.186962791981397 
768	 0.186654932328711 
769	 0.186918543787308 
770	 0.187327688629798 
771	 0.187821769860511 
772	 0.188390840598877 
773	 0.189392583163462 
774	 0.190961809988918 
775	 0.192146443105003 
776	 0.192827979812916 
777	 0.193065110127302 
778	 0.193643351528604 
779	 0.194728003804625 
780	 0.195820383640166 
781	 0.19664660829408 
782	 0.197075693085648 
783	 0.19803006406732 
784	 0.199320505005008 
785	 0.200241278748021 
786	 0.200797344974232 
787	 0.201155580174673 
788	 0.202155158431051 
789	 0.203258291250696 
790	 0.20394012557755 
791	 0.204785905439801 
792	 0.205671547229195 
793	 0.205993108207071 
794	 0.206604512949108 
795	 0.207702897100168 
796	 0.2085922994657 
797	 0.209208607002456 
798	 0.209589794739193 
799	 0.210630252897572 
800	 0.212190937998918 
801	 0.213382470162495 
802	 0.214512345468637 
803	 0.215600599390224 
804	 0.216453303505784 
805	 0.21662359331628 
806	 0.215786125856583 
807	 0.216624583134298 
808	 0.218856168696907 
809	 0.220051468245055 
810	 0.220826980714176 
811	 0.221304040047252 
812	 0.220964843727807 
813	 0.220935367104601 
814	 0.222709540123527 
815	 0.225165173918093 
816	 0.227481802371164 
817	 0.228183942746811 
818	 0.229337329665681 
819	 0.231327766454372 
820	 0.230665161535697 
821	 0.230049098166567 
822	 0.232816905305517 
823	 0.235476622805313 
824	 0.236863976801518 
825	 0.236411808600282 
826	 0.236258462090136 
827	 0.237348125868017 
828	 0.238942067997777 
829	 0.240267188747899 
830	 0.240513397842239 
831	 0.241638597524843 
832	 0.24344233873889 
833	 0.243980592694138 
834	 0.24496815254762 
835	 0.246788256122585 
836	 0.247172475698736 
837	 0.247223541551255 
838	 0.248366301269954 
839	 0.249603017750577 
840	 0.250868427880362 
841	 0.252617394308474 
842	 0.254283111431004 
843	 0.255362093979269 
844	 0.254729153239444 
845	 0.253640615005333 
846	 0.253631850167057 
847	 0.255195168181833 
848	 0.257585721979883 
849	 0.258453476150814 
850	 0.258635573809268 
851	 0.258711676217986 
852	 0.259906857008581 
853	 0.262056760362394 
854	 0.264715642915884 
855	 0.265987438049858 
856	 0.265858289741125 
857	 0.265265048348275 
858	 0.265420581610504 
859	 0.26664278449917 
860	 0.267672446800345 
861	 0.268675155941184 
862	 0.269806581801231 
863	 0.270208090389117 
864	 0.270365117596752 
865	 0.271617925919953 
866	 0.274092118997024 
867	 0.277068203244894 
868	 0.277156971631862 
869	 0.277240782622677 
870	 0.279548278584666 
871	 0.280678553060906 
872	 0.280913751333633 
873	 0.281779598495944 
874	 0.282759637004561 
875	 0.283900072087069 
876	 0.285904010059858 
877	 0.287389981562807 
878	 0.28775709750788 
879	 0.290581686990899 
880	 0.293995657133806 
881	 0.294242804031934 
882	 0.294866555399432 
883	 0.296421813846194 
884	 0.297215720222088 
885	 0.298625363841042 
886	 0.300990919018539 
887	 0.301078756750537 
888	 0.300622445715361 
889	 0.302293207478404 
890	 0.30201560539727 
891	 0.300376164732025 
892	 0.302193350319192 
893	 0.304040352268202 
894	 0.304607410726947 
895	 0.306195345702662 
896	 0.308727057412241 
897	 0.311745828044331 
898	 0.313446488870657 
899	 0.314688508575748 
900	 0.31900599040051 
901	 0.321062015103792 
902	 0.319679480900876 
903	 0.318083897281655 
904	 0.317509375270531 
905	 0.318750731359883 
906	 0.320184820841343 
907	 0.322401054258318 
908	 0.327059307779005 
909	 0.326973694074168 
910	 0.322685655235954 
911	 0.3248548773747 
912	 0.327710437918646 
913	 0.328503895610743 
914	 0.332703522320421 
915	 0.337137430977498 
916	 0.337483804936183 
917	 0.33813899304905 
918	 0.338842417104564 
919	 0.33635006241736 
920	 0.33351924884568 
921	 0.331811481075978 
922	 0.332649727860659 
923	 0.333890058362304 
924	 0.333442654957983 
925	 0.330645910571946 
926	 0.327048023989029 
927	 0.326242385285519 
928	 0.32681333741426 
929	 0.32857980008413 
930	 0.332798084754837 
931	 0.334379084325858 
932	 0.33071363667214 
933	 0.340611272162264 
934	 0.354499385806735 
935	 0.354218724720366 
936	 0.349749021342102 
937	 0.343780142433581 
938	 0.335160334507363 
939	 0.333601644704317 
940	 0.339283992465915 
941	 0.338688239896655 
942	 0.340409639646651 
943	 0.349177415141417 
944	 0.346225639601309 
945	 0.338539407678387 
946	 0.341140195835316 
947	 0.340389778212117 
948	 0.336467764433611 
949	 0.342121150881462 
950	 0.340586078048182 
951	 0.329564910834937 
952	 0.338268964280165 
953	 0.3507228020901 
954	 0.351497863667703 
955	 0.34925539983125 
956	 0.345114116280919 
957	 0.338168815392627 
958	 0.341814998344525 
959	 0.3529010537324 
960	 0.348571323173665 
961	 0.346927178181674 
962	 0.353734403513984 
963	 0.349081141021817 
964	 0.344028689226052 
965	 0.349385039151364 
966	 0.345988741483638 
967	 0.338602643442056 
968	 0.342659068135834 
969	 0.345805598616656 
970	 0.345111213433836 
971	 0.341896222105789 
972	 0.343586107721568 
973	 0.352790159466165 
974	 0.358033062660049 
975	 0.360429022617543 
976	 0.362507987620388 
977	 0.362162657624394 
978	 0.359200486482947 
979	 0.353302362778938 
980	 0.352461627462877 
981	 0.356933456311219 
982	 0.357077502815468 
983	 0.358634890214859 
984	 0.363504088291543 
985	 0.363904931041607 
986	 0.361773756762686 
987	 0.360340990668925 
988	 0.364612716734888 
989	 0.371426547380185 
990	 0.372738868702474 
991	 0.373784430914281 
992	 0.374374124437937 
993	 0.368005500916393 
994	 0.365822158595335 
995	 0.371291113162197 
996	 0.369021681445172 
997	 0.364593993034358 
998	 0.364715634092843 
999	 0.368280997270098 
1000	 0.373384985030621 
1001	 0.37730959111353 
1002	 0.3798567165618 
1003	 0.380655420139917 
1004	 0.379042303988618 
1005	 0.379044573645881 
1006	 0.382069743920399 
1007	 0.385530269679924 
1008	 0.388239736661065 
1009	 0.388827254919886 
1010	 0.384314259930479 
1011	 0.37929192577754 
1012	 0.380730261823863 
1013	 0.380254460045203 
1014	 0.379252386562316 
1015	 0.385917506699834 
1016	 0.387422854481233 
1017	 0.383942203880173 
1018	 0.392899252420852 
1019	 0.40172608487572 
1020	 0.403811622229031 
1021	 0.408055715018963 
1022	 0.401578807349351 
1023	 0.376195868657637 
1024	 0.387691978734095 
1025	 0.413839427676074 
1026	 0.403712878081747 
1027	 0.392293938879023 
1028	 0.389255729874775 
1029	 0.397850378147122 
1030	 0.397640427919855 
1031	 0.387609404134306 
1032	 0.398556489541964 
1033	 0.4175014767187 
1034	 0.430878656581002 
1035	 0.417574864967594 
1036	 0.40221585186333 
1037	 0.412322588492884 
1038	 0.41648992849954 
1039	 0.414127181040673 
1040	 0.413714307451113 
1041	 0.409242118463818 
1042	 0.401400288706916 
1043	 0.394880497931983 
1044	 0.395439657582018 
1045	 0.403312874419697 
1046	 0.409708318968037 
1047	 0.408256664347012 
1048	 0.398553136805599 
1049	 0.40274394101321 
1050	 0.413008370516573 
1051	 0.417742013661039 
1052	 0.409111702176685 
1053	 0.398876336218028 
1054	 0.407420133284324 
1055	 0.415346752656401 
1056	 0.410524992601032 
1057	 0.371046345323694 
1058	 0.366956470848703 
1059	 0.399120432337815 
1060	 0.386614429538004 
1061	 0.397782110591417 
1062	 0.443004811728952 
1063	 0.400388273721379 
1064	 0.358327268878098 
1065	 0.378896051576886 
1066	 0.393702867255702 
1067	 0.393584198151594 
1068	 0.380358756222827 
1069	 0.392422478323212 
1070	 0.412804581478752 
1071	 0.405112635924268 
1072	 0.395622173930885 
1073	 0.3926661082471 
1074	 0.395940046393754 
1075	 0.37552514133259 
