Wavelength	SHSI00056.asd
325	 5.22323491520311E-02 
326	 5.01772023435291E-02 
327	 4.60879297368113E-02 
328	 5.06017650798537E-02 
329	 5.37829758408935E-02 
330	 5.17490663411646E-02 
331	 4.28899769880901E-02 
332	 3.94274109842502E-02 
333	 5.14389541692792E-02 
334	 5.47391385122839E-02 
335	 5.02893328670779E-02 
336	 5.06387806785114E-02 
337	 0.048440133977172 
338	 4.30126360865999E-02 
339	 4.03538073951598E-02 
340	 0.041398968943824 
341	 4.58203754192937E-02 
342	 4.53949129547895E-02 
343	 4.21497316774427E-02 
344	 4.23656869782256E-02 
345	 4.24091630331148E-02 
346	 4.19154573627492E-02 
347	 4.27387483837415E-02 
348	 4.51980111764008E-02 
349	 4.86674527965189E-02 
350	 4.68778225259605E-02 
351	 4.34768383897285E-02 
352	 4.54416457257538E-02 
353	 4.68253821654048E-02 
354	 4.64394684831946E-02 
355	 4.56550235283676E-02 
356	 4.48806108719344E-02 
357	 4.44809882032714E-02 
358	 4.52065838836245E-02 
359	 4.60668138277929E-02 
360	 4.55017752184763E-02 
361	 4.45627350045825E-02 
362	 4.39702855574329E-02 
363	 4.53986313040459E-02 
364	 4.55391476442536E-02 
365	 4.31176427074489E-02 
366	 4.23011484016461E-02 
367	 4.22212385928459E-02 
368	 4.11268791747134E-02 
369	 4.03318089787218E-02 
370	 4.04659194627922E-02 
371	 0.042823077176121 
372	 4.38515514435446E-02 
373	 4.21020779945146E-02 
374	 4.23185532966843E-02 
375	 0.043203255252937 
376	 4.23067076927962E-02 
377	 4.26696964203959E-02 
378	 4.40276332489654E-02 
379	 4.32185671694832E-02 
380	 4.19092762640267E-02 
381	 4.09972288696036E-02 
382	 4.02259778345544E-02 
383	 3.98636790755549E-02 
384	 4.02525066760682E-02 
385	 4.08641855049351E-02 
386	 4.14845622444664E-02 
387	 4.21930440730113E-02 
388	 0.042034125633921 
389	 4.07648993636661E-02 
390	 0.039702303035616 
391	 3.87100795642332E-02 
392	 0.037485618396828 
393	 3.82810652228661E-02 
394	 4.01524605312031E-02 
395	 3.92517011293269E-02 
396	 3.80600557251968E-02 
397	 3.76164062860515E-02 
398	 3.72798266428319E-02 
399	 3.68604706020769E-02 
400	 3.62214566554901E-02 
401	 3.67616016150537E-02 
402	 3.77695125056064E-02 
403	 3.68068483702606E-02 
404	 3.65709319338585E-02 
405	 3.76631051249441E-02 
406	 3.64160042450614E-02 
407	 3.50576085391063E-02 
408	 3.66329413964778E-02 
409	 3.65031800574504E-02 
410	 3.47480064045813E-02 
411	 3.45842331531218E-02 
412	 3.50913351226361E-02 
413	 3.56412003377373E-02 
414	 3.51533795779081E-02 
415	 3.43402150921942E-02 
416	 3.42483627519333E-02 
417	 3.41730446348091E-02 
418	 3.39964915271497E-02 
419	 3.38504808701184E-02 
420	 3.37133977000565E-02 
421	 3.35937161476045E-02 
422	 3.36509506752399E-02 
423	 3.36681035674583E-02 
424	 3.33026009672814E-02 
425	 3.32938542619248E-02 
426	 3.36932288584772E-02 
427	 3.40372271448232E-02 
428	 3.39738330563112E-02 
429	 3.33759786423358E-02 
430	 0.03324875407868 
431	 3.32939729282844E-02 
432	 3.27629633146773E-02 
433	 3.26108223087295E-02 
434	 3.28165933372803E-02 
435	 3.23208616843933E-02 
436	 3.18752213370727E-02 
437	 3.19735572988269E-02 
438	 3.23179976009932E-02 
439	 3.25911632570513E-02 
440	 3.23026184115134E-02 
441	 3.19984250891944E-02 
442	 3.18532314436557E-02 
443	 3.17691843518719E-02 
444	 3.18649048911546E-02 
445	 3.21909577799959E-02 
446	 0.032167366993987 
447	 3.20565432602016E-02 
448	 3.27682600717677E-02 
449	 3.28275561827365E-02 
450	 3.20008169987118E-02 
451	 3.17158161730616E-02 
452	 3.20247156701071E-02 
453	 3.28382139819664E-02 
454	 3.31811870360795E-02 
455	 3.30587533318623E-02 
456	 3.31647690769037E-02 
457	 3.29303858304573E-02 
458	 3.23651595343528E-02 
459	 3.28023357295646E-02 
460	 3.34484491194336E-02 
461	 3.32524168565699E-02 
462	 0.032922100445955 
463	 3.27272060572352E-02 
464	 3.29590019370348E-02 
465	 3.32921473053268E-02 
466	 0.033513934572103 
467	 3.34864551639349E-02 
468	 3.33971230066665E-02 
469	 3.35450063044175E-02 
470	 3.35779988742445E-02 
471	 3.35471041083298E-02 
472	 3.40200439783622E-02 
473	 3.41931201590843E-02 
474	 3.36598351723593E-02 
475	 3.35531476592405E-02 
476	 3.38669445887038E-02 
477	 0.034335276511721 
478	 3.43736010355298E-02 
479	 3.39841913601053E-02 
480	 3.40278890058864E-02 
481	 3.42032420157474E-02 
482	 0.034247293126539 
483	 3.42256603992092E-02 
484	 3.42744244290547E-02 
485	 3.47865106360217E-02 
486	 3.47298586149092E-02 
487	 3.39759759796039E-02 
488	 3.40411591282822E-02 
489	 0.034402800888606 
490	 3.44248552815353E-02 
491	 3.44250708236673E-02 
492	 3.44605113201318E-02 
493	 3.45101499093489E-02 
494	 3.47366946485652E-02 
495	 3.51252173762512E-02 
496	 3.51166792576709E-02 
497	 3.50298648903562E-02 
498	 3.53376799487904E-02 
499	 3.59650509888546E-02 
500	 3.65992339985727E-02 
501	 3.62060038673274E-02 
502	 0.036160146163394 
503	 3.71334356522068E-02 
504	 3.73486756230619E-02 
505	 3.71243455959926E-02 
506	 3.73888099818594E-02 
507	 3.74731382903766E-02 
508	 3.73904125671758E-02 
509	 3.78268023841522E-02 
510	 3.86249810080536E-02 
511	 0.039546292004516 
512	 3.95356185739884E-02 
513	 3.90844968341953E-02 
514	 3.97429912812766E-02 
515	 4.05592873856924E-02 
516	 4.10936855277046E-02 
517	 4.08281777742239E-02 
518	 4.07126623020431E-02 
519	 0.041745456764392 
520	 4.22726235429377E-02 
521	 4.22589427380426E-02 
522	 4.25432531107775E-02 
523	 4.30669114373441E-02 
524	 4.37575752347047E-02 
525	 4.41666673825597E-02 
526	 4.44457434818892E-02 
527	 4.48734529552754E-02 
528	 4.54289515813381E-02 
529	 4.60069004815056E-02 
530	 0.046267227155212 
531	 4.65093601856607E-02 
532	 4.69599450941228E-02 
533	 4.77450287457123E-02 
534	 4.85298979846476E-02 
535	 4.86359065800802E-02 
536	 4.87248350660836E-02 
537	 4.90252172691178E-02 
538	 4.94856149055161E-02 
539	 5.00074393962581E-02 
540	 0.050481097624187 
541	 5.07148006767738E-02 
542	 5.08630233411981E-02 
543	 5.14388596220003E-02 
544	 5.20481933382289E-02 
545	 5.24917904302256E-02 
546	 5.26729183442486E-02 
547	 5.27540688283596E-02 
548	 5.29530729075417E-02 
549	 5.34291124739918E-02 
550	 5.41113308844306E-02 
551	 5.46682594450001E-02 
552	 5.49423318679687E-02 
553	 5.49005791584848E-02 
554	 5.51883624105759E-02 
555	 0.055687067693989 
556	 5.59809500220725E-02 
557	 5.64837372030473E-02 
558	 5.71456376868162E-02 
559	 5.71599212807423E-02 
560	 5.71657248301751E-02 
561	 5.77327749198584E-02 
562	 5.79274925903747E-02 
563	 5.77816661708463E-02 
564	 5.78207017976814E-02 
565	 5.79056064611905E-02 
566	 5.80010676846239E-02 
567	 5.81604803054962E-02 
568	 5.82141627985346E-02 
569	 5.79497850833511E-02 
570	 5.79796589817653E-02 
571	 5.82993450321937E-02 
572	 5.83395251819076E-02 
573	 5.82848255965727E-02 
574	 5.82553938734712E-02 
575	 5.83105872863013E-02 
576	 5.83381297504608E-02 
577	 5.80958415555743E-02 
578	 5.80682728968182E-02 
579	 5.83182164251442E-02 
580	 5.84163713993354E-02 
581	 5.83207142041106E-02 
582	 5.80525949879052E-02 
583	 5.82138811074769E-02 
584	 5.86377458335384E-02 
585	 5.86254650333246E-02 
586	 5.84682705981565E-02 
587	 5.83069649218676E-02 
588	 5.83575177223851E-02 
589	 0.05837851966898 
590	 5.80344819065909E-02 
591	 5.81330212454995E-02 
592	 0.058662286448006 
593	 5.90043436619707E-02 
594	 5.89779882961667E-02 
595	 0.058550440050772 
596	 5.84698736168379E-02 
597	 5.86413815530951E-02 
598	 5.86881277960111E-02 
599	 5.89661595331463E-02 
600	 5.94230546359753E-02 
601	 5.94278922967722E-02 
602	 5.92930271535747E-02 
603	 5.93093624018549E-02 
604	 5.92838236525473E-02 
605	 5.91604028546163E-02 
606	 5.88712129759486E-02 
607	 5.85086782763042E-02 
608	 5.82041664650841E-02 
609	 5.84894837215885E-02 
610	 5.86170872051413E-02 
611	 5.76203348286187E-02 
612	 5.74281215717114E-02 
613	 5.80909308868372E-02 
614	 5.81687712028405E-02 
615	 5.78178653447108E-02 
616	 5.71668363987348E-02 
617	 0.056564841855496 
618	 5.62407080349711E-02 
619	 5.64780701757544E-02 
620	 5.64883092130432E-02 
621	 5.61524339272568E-02 
622	 5.61845522792712E-02 
623	 5.61294814897288E-02 
624	 5.56140486506551E-02 
625	 0.055586525561296 
626	 5.59104750683299E-02 
627	 5.57463340349832E-02 
628	 5.56314484158782E-02 
629	 5.57673435209084E-02 
630	 5.61038342214659E-02 
631	 5.62540362462045E-02 
632	 5.57662669578692E-02 
633	 5.56940782976008E-02 
634	 0.05616173081492 
635	 5.68134374516777E-02 
636	 5.67461451529459E-02 
637	 5.56324650532845E-02 
638	 5.55341901303701E-02 
639	 5.61922783318516E-02 
640	 5.66744526538588E-02 
641	 5.67008139554883E-02 
642	 5.63120952381615E-02 
643	 0.056325245583319 
644	 0.056385929743449 
645	 5.61664970155504E-02 
646	 5.58696365294637E-02 
647	 5.56979116271569E-02 
648	 5.60868973659382E-02 
649	 5.64998963999133E-02 
650	 5.66075580359992E-02 
651	 5.60845268613148E-02 
652	 5.52694267223759E-02 
653	 5.45918529408635E-02 
654	 5.45758372238493E-02 
655	 5.48922944106702E-02 
656	 5.39541622378678E-02 
657	 5.26598381864659E-02 
658	 5.16418450022776E-02 
659	 5.07227717737413E-02 
660	 4.99167686988364E-02 
661	 4.92824400167893E-02 
662	 4.87380597649774E-02 
663	 4.81419273087694E-02 
664	 4.71083614513674E-02 
665	 4.58872296350106E-02 
666	 4.47605353551218E-02 
667	 4.44611789290376E-02 
668	 0.044449763244661 
669	 4.29886742744606E-02 
670	 4.20617926424619E-02 
671	 4.22292195015624E-02 
672	 4.21364039097288E-02 
673	 4.19837011347738E-02 
674	 4.21151027329127E-02 
675	 4.23715116513619E-02 
676	 4.25936842430569E-02 
677	 4.24094408118504E-02 
678	 4.22596108419925E-02 
679	 4.24597703823998E-02 
680	 0.043409553511741 
681	 4.43761205276534E-02 
682	 4.41146963876211E-02 
683	 4.46986197800878E-02 
684	 0.046304139919238 
685	 0.047116309121565 
686	 4.81146797847095E-02 
687	 5.01362450822306E-02 
688	 5.20025902363772E-02 
689	 5.37917161407101E-02 
690	 5.66081937066877E-02 
691	 5.93117094083612E-02 
692	 6.15444490579333E-02 
693	 6.30250666315641E-02 
694	 6.50794791694641E-02 
695	 6.88375699556697E-02 
696	 7.11110571138368E-02 
697	 7.22431419171154E-02 
698	 7.49794327108749E-02 
699	 7.77998881364594E-02 
700	 7.99738845992529E-02 
701	 8.19300391413769E-02 
702	 8.35547202523033E-02 
703	 0.084672895836764 
704	 8.62478380506915E-02 
705	 0.088308674177851 
706	 0.08998218867226 
707	 0.091469038463314 
708	 9.28834188063445E-02 
709	 9.40896565494589E-02 
710	 9.53409356396451E-02 
711	 9.71774273680195E-02 
712	 9.83395829995535E-02 
713	 9.87113402061856E-02 
714	 9.98573862585532E-02 
715	 0.100486683626495 
716	 0.099430255341304 
717	 9.90975848278993E-02 
718	 0.100044664267737 
719	 0.101862863556991 
720	 0.103074978242402 
721	 0.103264798548102 
722	 0.103835064126576 
723	 0.104643604083594 
724	 0.105402865435456 
725	 0.10561952525262 
726	 0.105553978643048 
727	 0.106449903635742 
728	 0.107450359550971 
729	 0.108128261012473 
730	 0.10874847645369 
731	 0.109372294830461 
732	 0.110050021580933 
733	 0.110502237721418 
734	 0.110857382015274 
735	 0.11169099040036 
736	 0.112662116008534 
737	 0.113449722960471 
738	 0.113567742275606 
739	 0.113669516567708 
740	 0.115130435283214 
741	 0.115893318158219 
742	 0.115714935092968 
743	 0.116473370274233 
744	 0.117342744596071 
745	 0.117581900689955 
746	 0.117393140985876 
747	 0.117255027326709 
748	 0.118296726915208 
749	 0.118894368765295 
750	 0.118615548384956 
751	 0.118660309187904 
752	 0.118815039274663 
753	 0.118781244986694 
754	 0.118951823220116 
755	 0.119251234355521 
756	 0.119225591181152 
757	 0.119349202399911 
758	 0.119738468709243 
759	 0.119273872340585 
760	 0.117781285820258 
761	 0.116907671514131 
762	 0.116225755190907 
763	 0.11594196767581 
764	 0.116487397475487 
765	 0.118353133759284 
766	 0.121000288364692 
767	 0.122354855772507 
768	 0.122853894942817 
769	 0.122982331166187 
770	 0.123433237987552 
771	 0.124336330336656 
772	 0.125570177026023 
773	 0.125808736839339 
774	 0.124480983560949 
775	 0.12490948376261 
776	 0.126148014430379 
777	 0.125598336266566 
778	 0.125241808826839 
779	 0.125655113742268 
780	 0.126735474549393 
781	 0.127407972404827 
782	 0.126946877012017 
783	 0.127151703366424 
784	 0.127872923901373 
785	 0.128220516876151 
786	 0.127811392886416 
787	 0.126861193720371 
788	 0.127188013745627 
789	 0.12774325641247 
790	 0.127512974259474 
791	 0.12770492385631 
792	 0.128223490110434 
793	 0.128323054575879 
794	 0.128410970670226 
795	 0.128581201543353 
796	 0.128600037627656 
797	 0.128616623922783 
798	 0.128771180412744 
799	 0.128651673183635 
800	 0.128346006932306 
801	 0.128242506684569 
802	 0.128463203552065 
803	 0.129053590924866 
804	 0.129907037527652 
805	 0.13054386516065 
806	 0.130513161592154 
807	 0.130605319130677 
808	 0.130990868282431 
809	 0.131670869278961 
810	 0.132194979983274 
811	 0.132287683026858 
812	 0.131862875744392 
813	 0.131119891977853 
814	 0.13036561916814 
815	 0.130203348679951 
816	 0.130475132045201 
817	 0.129915554307784 
818	 0.130095999957059 
819	 0.131398998667523 
820	 0.132116093956107 
821	 0.132411205944804 
822	 0.132623128135664 
823	 0.133043589033268 
824	 0.133704512293967 
825	 0.134481527964378 
826	 0.135307264621163 
827	 0.136036308571045 
828	 0.135950045602547 
829	 0.135569900244271 
830	 0.135633826304184 
831	 0.136611551041323 
832	 0.137924705287169 
833	 0.137595107708011 
834	 0.137692732949262 
835	 0.138819434490492 
836	 0.139100345892919 
837	 0.138533886298804 
838	 0.137374729093086 
839	 0.137834857057475 
840	 0.13953169790936 
841	 0.140023672012723 
842	 0.13992328693837 
843	 0.139602300674521 
844	 0.13994683676884 
845	 0.140423366602497 
846	 0.140365023979832 
847	 0.140456930164227 
848	 0.140559364579286 
849	 0.139651244534229 
850	 0.140058699762051 
851	 0.142065019246716 
852	 0.141214265576785 
853	 0.139761869574437 
854	 0.140432418080521 
855	 0.141399616064285 
856	 0.141707038471976 
857	 0.139637511601945 
858	 0.139178681571415 
859	 0.140958826448798 
860	 0.140419689172308 
861	 0.13926400706678 
862	 0.139320038947165 
863	 0.13969365755023 
864	 0.139999694358695 
865	 0.139512815435278 
866	 0.140457988002007 
867	 0.14267266910765 
868	 0.141654494961569 
869	 0.140767594396788 
870	 0.142639454431859 
871	 0.143410015449913 
872	 0.143419083297407 
873	 0.144552137195292 
874	 0.144715939422776 
875	 0.143751276913722 
876	 0.143477324848155 
877	 0.143958831292602 
878	 0.145233021653569 
879	 0.147457849074963 
880	 0.149320418017034 
881	 0.148764091005995 
882	 0.150160220082937 
883	 0.153013500646276 
884	 0.150983107491253 
885	 0.149988488027549 
886	 0.152803526921612 
887	 0.153592130275806 
888	 0.153027687718942 
889	 0.152856922835388 
890	 0.153534936992133 
891	 0.154532408117059 
892	 0.153716140229592 
893	 0.152246686035675 
894	 0.151106536128854 
895	 0.152633591232812 
896	 0.154316333465592 
897	 0.153036988786454 
898	 0.152351208473948 
899	 0.153075372680424 
900	 0.155623886334423 
901	 0.154086548077791 
902	 0.149030223532937 
903	 0.152606435924467 
904	 0.156670487104979 
905	 0.155177747887918 
906	 0.155530169287074 
907	 0.158095923292363 
908	 0.161830259194599 
909	 0.160789059872013 
910	 0.155704270369071 
911	 0.156854121831262 
912	 0.159720570778173 
913	 0.161238415376475 
914	 0.160035912819898 
915	 0.158931055187272 
916	 0.161358950138302 
917	 0.163448708858092 
918	 0.16365569292369 
919	 0.159843423497171 
920	 0.158521605270815 
921	 0.161322122459299 
922	 0.163201175154138 
923	 0.163515787299836 
924	 0.161985504106886 
925	 0.160067837273479 
926	 0.158330143113582 
927	 0.157273376554425 
928	 0.157605226476559 
929	 0.158958330751646 
930	 0.158079113054085 
931	 0.155574836748297 
932	 0.153032049780556 
933	 0.158417198470466 
934	 0.165150762116599 
935	 0.161480907697417 
936	 0.149426583950533 
937	 0.138631190530587 
938	 0.152351365272081 
939	 0.161486714198104 
940	 0.159011920744984 
941	 0.159375546678491 
942	 0.157146203107571 
943	 0.149491840305314 
944	 0.150709412203091 
945	 0.153420362495654 
946	 0.142891632972624 
947	 0.141647387708598 
948	 0.149757972496676 
949	 0.148481942528355 
950	 0.147078815294873 
951	 0.148666659945678 
952	 0.147426562098734 
953	 0.149101227996539 
954	 0.15764896034231 
955	 0.153999684484445 
956	 0.1467737518895 
957	 0.156509454414284 
958	 0.162450224349171 
959	 0.159614958610279 
960	 0.150270186382629 
961	 0.145151701741971 
962	 0.148343331655922 
963	 0.149578866631817 
964	 0.151460278579741 
965	 0.156701596340126 
966	 0.157540732319776 
967	 0.154588062175445 
968	 0.151370100170381 
969	 0.152905855685126 
970	 0.157502765324391 
971	 0.152185249114379 
972	 0.151737178453752 
973	 0.161349213769622 
974	 0.159040780547855 
975	 0.154612451079051 
976	 0.160687228505861 
977	 0.163249389689561 
978	 0.162169349897407 
979	 0.162728291347326 
980	 0.162914543416285 
981	 0.161350692058667 
982	 0.154025640103086 
983	 0.151338107519198 
984	 0.157762943053224 
985	 0.164542375560391 
986	 0.167844801617164 
987	 0.165221950851879 
988	 0.167332801704644 
989	 0.170415798519237 
990	 0.162831268275037 
991	 0.159771347298491 
992	 0.163532455520372 
993	 0.165345500116829 
994	 0.166254626550759 
995	 0.166584733677392 
996	 0.166527702367866 
997	 0.165053930319426 
998	 0.161482725469833 
999	 0.158877199458 
1000	 0.1611923988972 
1001	 0.173971327992511 
1002	 0.170874279979245 
1003	 0.155835021785516 
1004	 0.167044755060967 
1005	 0.171948903013032 
1006	 0.16250678623613 
1007	 0.16792798417209 
1008	 0.175364542420886 
1009	 0.174022215637121 
1010	 0.171067792397092 
1011	 0.167706028472425 
1012	 0.164805719602453 
1013	 0.168270698966187 
1014	 0.173864615590292 
1015	 0.168230980346003 
1016	 0.166806225827723 
1017	 0.171791553109484 
1018	 0.170193327708005 
1019	 0.169949679242311 
1020	 0.174213250477294 
1021	 0.173830622752807 
1022	 0.172477409065037 
1023	 0.174586105202406 
1024	 0.181055511258413 
1025	 0.185652608651481 
1026	 0.177908938405876 
1027	 0.169789820826064 
1028	 0.16737700129994 
1029	 0.179625273682952 
1030	 0.186329876847875 
1031	 0.182102063950436 
1032	 0.177026779013828 
1033	 0.174522082729241 
1034	 0.17629437758708 
1035	 0.175481007256661 
1036	 0.178011499054551 
1037	 0.190141339376005 
1038	 0.206027612013065 
1039	 0.211185435761498 
1040	 0.185137295757173 
1041	 0.180620532013559 
1042	 0.197143629985235 
1043	 0.188866550763302 
1044	 0.185283211599133 
1045	 0.19029539201228 
1046	 0.177557581123546 
1047	 0.17446453008638 
1048	 0.192183538237462 
1049	 0.187632122342639 
1050	 0.182817571352277 
1051	 0.199248397381704 
1052	 0.188935008275148 
1053	 0.172873011895037 
1054	 0.192431529267305 
1055	 0.19099848985963 
1056	 0.179278252611586 
1057	 0.215504363190189 
1058	 0.214793175707155 
1059	 0.172959791263548 
1060	 0.177726969482616 
1061	 0.166666666666667 
1062	 0.12679058148613 
1063	 0.14307446672084 
1064	 0.182078125492557 
1065	 0.210990419312268 
1066	 0.201579195739374 
1067	 0.177179932192979 
1068	 0.168855980196561 
1069	 0.182208753990046 
1070	 0.208271405867714 
1071	 0.227469319171736 
1072	 0.200302226356248 
1073	 0.15045024770513 
1074	 0.163986585989537 
1075	 0.161707496841506 
