Wavelength	SHSI00237.asd
325	 7.12996943507446E-02 
326	 6.74638623662785E-02 
327	 5.24965520953793E-02 
328	 7.02381407937215E-02 
329	 8.18248801999443E-02 
330	 7.47663605506961E-02 
331	 6.64772762210457E-02 
332	 6.18359268044904E-02 
333	 6.36142825428215E-02 
334	 6.89969762012941E-02 
335	 0.074361120034241 
336	 7.39069873248387E-02 
337	 7.21197597156003E-02 
338	 6.97225797455586E-02 
339	 6.18287777870404E-02 
340	 5.94778749476547E-02 
341	 6.97415936936279E-02 
342	 0.070461563207786 
343	 6.61596546123108E-02 
344	 7.21877398085052E-02 
345	 7.49727283294677E-02 
346	 7.29553693863751E-02 
347	 7.45929442729437E-02 
348	 7.49083453626002E-02 
349	 7.12473332871086E-02 
350	 0.07086532464927 
351	 7.24665529629475E-02 
352	 7.26923963829797E-02 
353	 7.18248860470368E-02 
354	 7.06593701288906E-02 
355	 7.17943182720567E-02 
356	 7.40558119060043E-02 
357	 7.63799653523171E-02 
358	 7.70758057300148E-02 
359	 7.64075105825252E-02 
360	 7.51619925049751E-02 
361	 7.35184180815974E-02 
362	 7.24686400040083E-02 
363	 0.074917780837571 
364	 7.55487333867885E-02 
365	 7.26446695577421E-02 
366	 7.49257688320218E-02 
367	 7.90134511487731E-02 
368	 7.91938108098405E-02 
369	 7.91760652948147E-02 
370	 7.94155011348133E-02 
371	 7.82795262119415E-02 
372	 7.84801196701155E-02 
373	 8.09275594633385E-02 
374	 8.09931542248027E-02 
375	 7.97287751599289E-02 
376	 7.92641096046732E-02 
377	 7.78779603442207E-02 
378	 7.64218879275895E-02 
379	 7.89385480727101E-02 
380	 7.99420569877287E-02 
381	 7.74557087761402E-02 
382	 7.93502532195167E-02 
383	 8.09385934458196E-02 
384	 7.53231165931876E-02 
385	 7.53486490353708E-02 
386	 8.00750584587067E-02 
387	 7.74777769732448E-02 
388	 7.50110684783642E-02 
389	 0.075540772600347 
390	 7.50451388239222E-02 
391	 7.53131571446598E-02 
392	 7.86800417510975E-02 
393	 7.81934275981929E-02 
394	 0.074475078440195 
395	 7.37510353318185E-02 
396	 7.39790459994455E-02 
397	 7.40233074615994E-02 
398	 0.072491557574147 
399	 7.13532711732583E-02 
400	 7.25180083909841E-02 
401	 7.20321124135617E-02 
402	 7.08754893942022E-02 
403	 7.36809790370938E-02 
404	 0.075434976953388 
405	 0.074497434166914 
406	 7.49103129020116E-02 
407	 0.075580496596643 
408	 7.47701618414388E-02 
409	 7.45336697018753E-02 
410	 7.49351953384406E-02 
411	 7.47558991049634E-02 
412	 7.49157408643013E-02 
413	 7.55619781498744E-02 
414	 7.47610947953505E-02 
415	 7.37675494236529E-02 
416	 7.43870989460838E-02 
417	 7.51118573199548E-02 
418	 7.55090887827128E-02 
419	 7.54652723089783E-02 
420	 7.51691037919286E-02 
421	 7.48085751610572E-02 
422	 7.47713660786327E-02 
423	 7.50598548727578E-02 
424	 7.56127635421828E-02 
425	 7.57442865277049E-02 
426	 0.07549642205146 
427	 7.57505614945453E-02 
428	 7.60362754204573E-02 
429	 7.60761171648258E-02 
430	 7.63947547051727E-02 
431	 7.65121977501207E-02 
432	 7.55437484944628E-02 
433	 7.50602460452245E-02 
434	 7.52935214135673E-02 
435	 7.53477972723979E-02 
436	 7.56760566584194E-02 
437	 7.64836740457724E-02 
438	 7.67592348703583E-02 
439	 7.66264795063393E-02 
440	 0.076590354934152 
441	 7.65221664381127E-02 
442	 7.64533807929149E-02 
443	 7.64629441045045E-02 
444	 7.69351511861948E-02 
445	 7.80506209445232E-02 
446	 7.82570252237342E-02 
447	 7.78470375972061E-02 
448	 7.80459682929761E-02 
449	 7.83575133131411E-02 
450	 7.86864535895713E-02 
451	 7.92279713031736E-02 
452	 7.98647375033151E-02 
453	 0.080464991457669 
454	 8.09458398327566E-02 
455	 8.13394335968995E-02 
456	 8.19402917371969E-02 
457	 8.17165046549328E-02 
458	 8.06284369234343E-02 
459	 8.10282104131753E-02 
460	 8.19635495714504E-02 
461	 8.20824448234606E-02 
462	 0.081895744658667 
463	 8.17758498658496E-02 
464	 8.25496553664057E-02 
465	 8.33304452458059E-02 
466	 8.36528394891062E-02 
467	 8.38898179971203E-02 
468	 8.40316265260534E-02 
469	 8.40202945575705E-02 
470	 0.083663534764719 
471	 8.32367065091016E-02 
472	 8.37725292996346E-02 
473	 8.45203366802151E-02 
474	 8.49264836097955E-02 
475	 8.47347632961615E-02 
476	 8.43257243864756E-02 
477	 8.44328477806355E-02 
478	 8.43122820826146E-02 
479	 8.40526431741495E-02 
480	 8.48509621550691E-02 
481	 8.58573356938157E-02 
482	 0.086358109574968 
483	 8.66292753195679E-02 
484	 8.68866955709698E-02 
485	 8.76329261521274E-02 
486	 0.087821553792646 
487	 8.72060579098908E-02 
488	 8.67842754893991E-02 
489	 8.62383068796781E-02 
490	 8.52825465864372E-02 
491	 8.61782940296874E-02 
492	 8.80847443555392E-02 
493	 8.75887896738018E-02 
494	 8.70824638894511E-02 
495	 8.75050210667062E-02 
496	 8.78217824097045E-02 
497	 8.82882154756557E-02 
498	 8.93419286989127E-02 
499	 8.98711085063158E-02 
500	 8.98551877660728E-02 
501	 9.02953515283862E-02 
502	 0.090566121078927 
503	 9.04096563296568E-02 
504	 9.09146978522154E-02 
505	 0.091515033752936 
506	 9.09672822361924E-02 
507	 9.16736024666816E-02 
508	 9.36456609992389E-02 
509	 9.39840744076871E-02 
510	 9.42605579144122E-02 
511	 0.095655084636927 
512	 9.60717389375501E-02 
513	 0.095966174839354 
514	 9.71681927090904E-02 
515	 9.86229767936827E-02 
516	 0.099743851986697 
517	 9.95490510812117E-02 
518	 9.92568200972123E-02 
519	 0.100184126713632 
520	 0.100518372838362 
521	 0.10041205707949 
522	 0.101246598136448 
523	 0.102195628011554 
524	 0.102935668067308 
525	 0.103908807860306 
526	 0.104964103145525 
527	 0.10584224825025 
528	 0.106134436838536 
529	 0.106073341230438 
530	 0.106740674123304 
531	 0.107802550083909 
532	 0.108933011235651 
533	 0.109336380082786 
534	 0.109353990496223 
535	 0.109869313575924 
536	 0.110599410457833 
537	 0.111442732758151 
538	 0.112288802796479 
539	 0.112966744177614 
540	 0.113323166799441 
541	 0.113435957251889 
542	 0.113549661463251 
543	 0.114157224719361 
544	 0.115145807226652 
545	 0.116292844193631 
546	 0.116607097028791 
547	 0.11664790292652 
548	 0.117258715975458 
549	 0.117759383679207 
550	 0.118086089288857 
551	 0.118596506886218 
552	 0.119006362898061 
553	 0.11922792542297 
554	 0.120147438795934 
555	 0.121265707261614 
556	 0.121436350648854 
557	 0.121681654934627 
558	 0.122191989411715 
559	 0.122294794633897 
560	 0.122263275119428 
561	 0.122388617671637 
562	 0.122771567207148 
563	 0.123356644215915 
564	 0.12400204710381 
565	 0.124369188880976 
566	 0.124361701343051 
567	 0.124425808603422 
568	 0.124686516474459 
569	 0.125237414692732 
570	 0.125305305673571 
571	 0.124953801444772 
572	 0.125091807570141 
573	 0.125353635187869 
574	 0.125547587935571 
575	 0.125962186184003 
576	 0.126470561819984 
577	 0.126798832609381 
578	 0.126932514624486 
579	 0.126912480773525 
580	 0.126901176605846 
581	 0.127179540224156 
582	 0.127937491420401 
583	 0.128461095384807 
584	 0.128693483243875 
585	 0.128842872689111 
586	 0.129118774327796 
587	 0.129537973780648 
588	 0.129514494934815 
589	 0.129375485477701 
590	 0.129611728044108 
591	 0.129623234224295 
592	 0.129472342272325 
593	 0.129807128962158 
594	 0.130176929097447 
595	 0.130341226234051 
596	 0.130636914765844 
597	 0.131007145731848 
598	 0.131281543168205 
599	 0.131622086517116 
600	 0.131935410431374 
601	 0.131577382471763 
602	 0.131368450359915 
603	 0.131999123426691 
604	 0.132578255057774 
605	 0.132883077755391 
606	 0.132782531598497 
607	 0.132733130569217 
608	 0.1328778335637 
609	 0.132769176028732 
610	 0.13258458398979 
611	 0.132590383081973 
612	 0.132525663496173 
613	 0.132300022183668 
614	 0.131759266165521 
615	 0.131555849403354 
616	 0.131987387565013 
617	 0.131949308729302 
618	 0.131536551785048 
619	 0.131136089406343 
620	 0.131368754878747 
621	 0.132165429401877 
622	 0.132328213830348 
623	 0.132136648160581 
624	 0.131915260651296 
625	 0.132045809435037 
626	 0.132462644120626 
627	 0.132736323670399 
628	 0.13324318851427 
629	 0.133950183113199 
630	 0.133926145248638 
631	 0.133467133245606 
632	 0.133051087725868 
633	 0.133290884956703 
634	 0.134036158005347 
635	 0.134212699643001 
636	 0.13448617469017 
637	 0.135142050686348 
638	 0.135196763634409 
639	 0.134973727580066 
640	 0.135258429632269 
641	 0.135693167085729 
642	 0.136044170665111 
643	 0.135741101024356 
644	 0.135649301104868 
645	 0.136439114525139 
646	 0.136234101383445 
647	 0.135385893729243 
648	 0.135765192214372 
649	 0.136214140132245 
650	 0.136267636077468 
651	 0.13597240601756 
652	 0.135705555774107 
653	 0.135900754263867 
654	 0.135654308493292 
655	 0.134849401916139 
656	 0.134034427967607 
657	 0.133091022259778 
658	 0.132108961397677 
659	 0.131852520198136 
660	 0.131725926085851 
661	 0.130695702637418 
662	 0.129421453930741 
663	 0.128160556353199 
664	 0.127139243739452 
665	 0.126187448616036 
666	 0.125164000752268 
667	 0.124279362966541 
668	 0.123550750829888 
669	 0.122900629564526 
670	 0.122380194010167 
671	 0.122079089294276 
672	 0.122468603111623 
673	 0.122640236505937 
674	 0.121576090620421 
675	 0.12130224896304 
676	 0.121891954432938 
677	 0.122037196660178 
678	 0.122262754887074 
679	 0.12283834094404 
680	 0.123653418756934 
681	 0.124634686786817 
682	 0.125663214522204 
683	 0.127470181391574 
684	 0.129848981629743 
685	 0.131173181782894 
686	 0.132898813452337 
687	 0.136253031343615 
688	 0.139557182550274 
689	 0.142414545367528 
690	 0.145407382460263 
691	 0.148653024201823 
692	 0.15234700191082 
693	 0.156850846689252 
694	 0.161202516091583 
695	 0.164253517317053 
696	 0.167359703192936 
697	 0.17075426532783 
698	 0.174431713968796 
699	 0.177846950232468 
700	 0.180740719855635 
701	 0.183890405360293 
702	 0.186912168977454 
703	 0.189198947370599 
704	 0.191786586274419 
705	 0.19464331067636 
706	 0.196541618731932 
707	 0.198651460480371 
708	 0.20156382369862 
709	 0.203550839334874 
710	 0.204976356225428 
711	 0.206938594723637 
712	 0.208919723790032 
713	 0.21075060148405 
714	 0.212378797686232 
715	 0.213853070844928 
716	 0.215325841863939 
717	 0.217155588329658 
718	 0.219254441976069 
719	 0.220807253299009 
720	 0.221824158511057 
721	 0.222472381731531 
722	 0.223437072328381 
723	 0.224872793966982 
724	 0.226848782407769 
725	 0.22833219464167 
726	 0.229152396219867 
727	 0.230057055398952 
728	 0.230892960946039 
729	 0.231647660230593 
730	 0.232571259516935 
731	 0.233633207443324 
732	 0.23473898503932 
733	 0.235937811167345 
734	 0.237160124588822 
735	 0.23819115569079 
736	 0.238878015200526 
737	 0.239177613274413 
738	 0.239913337563763 
739	 0.240995427042544 
740	 0.242026045354971 
741	 0.242915658897918 
742	 0.243630605138594 
743	 0.244226240444004 
744	 0.244988448420187 
745	 0.246116659176308 
746	 0.246949709072097 
747	 0.247585612269331 
748	 0.248590957901324 
749	 0.249468740412017 
750	 0.250033349710204 
751	 0.250302246558208 
752	 0.250733573662918 
753	 0.251762593123568 
754	 0.252239011542889 
755	 0.252371482759876 
756	 0.253669825956589 
757	 0.253826025489623 
758	 0.252085153402445 
759	 0.251634830431681 
760	 0.253482806603045 
761	 0.25760091600343 
762	 0.259837542370989 
763	 0.260053656449214 
764	 0.261608156008549 
765	 0.263107727077879 
766	 0.263933760472797 
767	 0.263843663101939 
768	 0.263562483519745 
769	 0.26387907182228 
770	 0.263940447023116 
771	 0.263906491498555 
772	 0.265026224096764 
773	 0.26639009263543 
774	 0.267332123743828 
775	 0.267773676711782 
776	 0.268045431076462 
777	 0.268772056270239 
778	 0.269586907026296 
779	 0.270340090169322 
780	 0.270835057437818 
781	 0.27152386744104 
782	 0.272685874825375 
783	 0.273226142516406 
784	 0.273537807165633 
785	 0.274903580658416 
786	 0.275679811331205 
787	 0.275563246838334 
788	 0.275863904817334 
789	 0.276481353882505 
790	 0.277224602764393 
791	 0.277533982952673 
792	 0.277825216293108 
793	 0.279496266399936 
794	 0.280482192115003 
795	 0.280308664637448 
796	 0.280683475062832 
797	 0.281409334204266 
798	 0.282186388636816 
799	 0.283120317531628 
800	 0.284137909195266 
801	 0.285043784172511 
802	 0.285781561520377 
803	 0.286356718446079 
804	 0.287053985334425 
805	 0.287552460536096 
806	 0.287544991537143 
807	 0.288286624152252 
808	 0.289489377837359 
809	 0.289498439560172 
810	 0.289785962711162 
811	 0.290766087386487 
812	 0.290810017126152 
813	 0.29046878872773 
814	 0.290665954839624 
815	 0.291944780015935 
816	 0.294066969906906 
817	 0.295795198559228 
818	 0.297096632400798 
819	 0.297801657807173 
820	 0.297253787529947 
821	 0.297002496489986 
822	 0.298832411323986 
823	 0.300635695132665 
824	 0.301622470998811 
825	 0.301224933883171 
826	 0.301294125899097 
827	 0.302468354473735 
828	 0.303109494092709 
829	 0.303295474337108 
830	 0.303357443206599 
831	 0.304843837932773 
832	 0.307233295253257 
833	 0.308206543296983 
834	 0.308359476531072 
835	 0.308060534915004 
836	 0.307884108010014 
837	 0.308312045781106 
838	 0.309740383503236 
839	 0.310494283625053 
840	 0.31053042056556 
841	 0.310750520911304 
842	 0.311660261246669 
843	 0.313176031158882 
844	 0.313391285240955 
845	 0.312707321951541 
846	 0.311851220829509 
847	 0.312627745184188 
848	 0.31432010643465 
849	 0.313559481331537 
850	 0.313327094927039 
851	 0.314707193805736 
852	 0.316311754738397 
853	 0.317599091965378 
854	 0.318156330134871 
855	 0.319294350136021 
856	 0.320190947941642 
857	 0.317898780000881 
858	 0.317110835745873 
859	 0.318902740858084 
860	 0.319672885633782 
861	 0.319840613050734 
862	 0.320038693925718 
863	 0.320928003208479 
864	 0.322241610878471 
865	 0.323065776325814 
866	 0.323434759730793 
867	 0.323574780032569 
868	 0.324506139741949 
869	 0.325848660677289 
870	 0.327155980843036 
871	 0.327625456812251 
872	 0.327402750236054 
873	 0.326920481511007 
874	 0.327809695408119 
875	 0.329898394528102 
876	 0.330115452466117 
877	 0.330098206270796 
878	 0.331208482216657 
879	 0.334426155705201 
880	 0.337465307346434 
881	 0.336498416507662 
882	 0.336698395012914 
883	 0.338799498492197 
884	 0.340178429507068 
885	 0.340794155638776 
886	 0.340752754971029 
887	 0.341332616804446 
888	 0.341912433983466 
889	 0.341499250250964 
890	 0.340705593065431 
891	 0.340048083458085 
892	 0.340638884135675 
893	 0.340929351801682 
894	 0.340651164584866 
895	 0.343033545962318 
896	 0.345952197945875 
897	 0.346626380142981 
898	 0.347215638779643 
899	 0.348919582464492 
900	 0.353873778581122 
901	 0.35552786039287 
902	 0.352996751522755 
903	 0.353259507371203 
904	 0.353405031158268 
905	 0.351437519522126 
906	 0.35150631941102 
907	 0.353505486885453 
908	 0.356200735696107 
909	 0.356722543330788 
910	 0.355444276468747 
911	 0.357546269477237 
912	 0.36005396590961 
913	 0.361278624577657 
914	 0.362175035178169 
915	 0.36371588775517 
916	 0.366799633254346 
917	 0.36649148678585 
918	 0.363533214320766 
919	 0.362602852284194 
920	 0.36256210394559 
921	 0.362430781995382 
922	 0.358559477684886 
923	 0.356179109256583 
924	 0.359423016208039 
925	 0.359133198942711 
926	 0.356250270663963 
927	 0.356246771065884 
928	 0.357997123444302 
929	 0.360451678099527 
930	 0.359429812687756 
931	 0.357880488394339 
932	 0.359285745399217 
933	 0.369624868422501 
934	 0.377591200193243 
935	 0.366664009787878 
936	 0.361304382221594 
937	 0.362886252466363 
938	 0.35747239397143 
939	 0.352193495201772 
940	 0.351179371700469 
941	 0.363201411811811 
942	 0.373108126088452 
943	 0.369976708407007 
944	 0.363315009857843 
945	 0.357367110238097 
946	 0.356400487393871 
947	 0.360498058178429 
948	 0.366200464197503 
949	 0.363652513034722 
950	 0.357245694421094 
951	 0.351125504176733 
952	 0.356658798963661 
953	 0.361560528324028 
954	 0.3556135864241 
955	 0.356439377719764 
956	 0.361832389340876 
957	 0.36266487115152 
958	 0.366843562981402 
959	 0.372191174637022 
960	 0.365075842812207 
961	 0.360161626239597 
962	 0.362887524933158 
963	 0.358953178570668 
964	 0.35664220264583 
965	 0.364050211236301 
966	 0.368227026062709 
967	 0.367558525527704 
968	 0.363381549215047 
969	 0.363916087146045 
970	 0.368672420958093 
971	 0.365673787348627 
972	 0.36515416069383 
973	 0.371415895559481 
974	 0.373591005850345 
975	 0.373059530853916 
976	 0.37273623643216 
977	 0.374878353237318 
978	 0.377155591197743 
979	 0.373392973799587 
980	 0.373608045647422 
981	 0.3775523631873 
982	 0.372411952972045 
983	 0.368129108598319 
984	 0.36964612917328 
985	 0.370854022353511 
986	 0.371709945059358 
987	 0.372812381809337 
988	 0.376320109738568 
989	 0.379685049331635 
990	 0.377186959548721 
991	 0.376447357782988 
992	 0.378328400075905 
993	 0.377048201306736 
994	 0.378334018561445 
995	 0.383008160942352 
996	 0.378588246132033 
997	 0.371952258373133 
998	 0.371045846676642 
999	 0.377255704020557 
1000	 0.383153792885501 
1001	 0.376230944224316 
1002	 0.371927020647457 
1003	 0.374245270828808 
1004	 0.381127593912018 
1005	 0.390052385219707 
1006	 0.39682840925573 
1007	 0.390924759832985 
1008	 0.38001611386684 
1009	 0.372209658918313 
1010	 0.372220431333391 
1011	 0.379826078228874 
1012	 0.392241297150815 
1013	 0.392538419901336 
1014	 0.384499813119362 
1015	 0.386989633115128 
1016	 0.3892638667857 
1017	 0.38814938872009 
1018	 0.382847031937604 
1019	 0.383748908623009 
1020	 0.393674094623705 
1021	 0.392701342937614 
1022	 0.383763484461752 
1023	 0.373203065577097 
1024	 0.373500007389126 
1025	 0.384098818234728 
1026	 0.400034543598175 
1027	 0.393010470534985 
1028	 0.370254228143187 
1029	 0.377998993140344 
1030	 0.383253125999694 
1031	 0.379214838162094 
1032	 0.38803189441281 
1033	 0.393450471249361 
1034	 0.387026021226768 
1035	 0.387113640759195 
1036	 0.390531953077194 
1037	 0.391481652678101 
1038	 0.385801116482386 
1039	 0.377640073553547 
1040	 0.375376318814039 
1041	 0.374330830832037 
1042	 0.375405341608796 
1043	 0.384513371031977 
1044	 0.394063588138794 
1045	 0.399199579184238 
1046	 0.395701903477309 
1047	 0.384165786185681 
1048	 0.365936998960935 
1049	 0.337917784962388 
1050	 0.334188401054264 
1051	 0.379049096223826 
1052	 0.382515691723783 
1053	 0.367048141827739 
1054	 0.387223223275215 
1055	 0.394371027574619 
1056	 0.388507890641658 
1057	 0.392881379194656 
1058	 0.377355521655809 
1059	 0.350876497715401 
1060	 0.374357111302286 
1061	 0.391428331489453 
1062	 0.376989052085609 
1063	 0.36051807617714 
1064	 0.336810140651256 
1065	 0.310068544641851 
1066	 0.351317197069698 
1067	 0.395906507327322 
1068	 0.375224355281748 
1069	 0.360455559196435 
1070	 0.358094851710497 
1071	 0.353173279790159 
1072	 0.352479519593352 
1073	 0.354937712278076 
1074	 0.354228406035371 
1075	 0.360651198796071 
