Wavelength	SHSI00019.asd
325	 3.77096344455309E-02 
326	 4.00814949278604E-02 
327	 4.53553066402456E-02 
328	 4.29769037510585E-02 
329	 4.12420920027651E-02 
330	 4.24722359387117E-02 
331	 4.06735604726769E-02 
332	 3.96382755960288E-02 
333	 4.29914513102912E-02 
334	 4.42986962229753E-02 
335	 4.30494252116341E-02 
336	 3.98004792931398E-02 
337	 0.041776196637244 
338	 4.86555674798185E-02 
339	 4.85078622379818E-02 
340	 4.45448767086333E-02 
341	 4.03183028682984E-02 
342	 3.89291598920654E-02 
343	 4.10724350556872E-02 
344	 4.76162020961596E-02 
345	 4.80123475287665E-02 
346	 4.24281018340334E-02 
347	 0.043259152094501 
348	 4.49613231588422E-02 
349	 4.39392950575262E-02 
350	 4.46460325069806E-02 
351	 4.57668711405126E-02 
352	 0.044286229385393 
353	 4.54754032572156E-02 
354	 4.90839444157429E-02 
355	 4.95329537065756E-02 
356	 4.87049780198812E-02 
357	 4.78058820760939E-02 
358	 4.61590474127341E-02 
359	 0.044817586450967 
360	 4.53251084665762E-02 
361	 0.04703805050936 
362	 4.86165427519901E-02 
363	 4.65093010214108E-02 
364	 4.49829231975433E-02 
365	 4.61034644267608E-02 
366	 4.74235440149563E-02 
367	 4.76974085489656E-02 
368	 4.56721710669463E-02 
369	 0.043750190550901 
370	 0.042833100043362 
371	 4.33066080671567E-02 
372	 4.54233289942565E-02 
373	 4.84309787278403E-02 
374	 4.69020090547729E-02 
375	 4.41413321265041E-02 
376	 4.53693369302707E-02 
377	 4.48401513342436E-02 
378	 4.26815114267873E-02 
379	 0.043634331530795 
380	 4.44794740597086E-02 
381	 4.40195504345064E-02 
382	 4.60840218539232E-02 
383	 0.047626413352548 
384	 4.43384374443678E-02 
385	 4.41854686501721E-02 
386	 4.68693621629908E-02 
387	 4.56546786669813E-02 
388	 4.34225389643861E-02 
389	 0.041891413240012 
390	 4.30989549499363E-02 
391	 4.47426844089016E-02 
392	 4.39916995878037E-02 
393	 4.31689953929088E-02 
394	 4.28086142734366E-02 
395	 4.30444039101192E-02 
396	 4.27814834158172E-02 
397	 4.16904277866864E-02 
398	 4.04764047857342E-02 
399	 4.00478412041686E-02 
400	 4.10964595252084E-02 
401	 4.10602448858176E-02 
402	 4.02630924157366E-02 
403	 4.06954498455679E-02 
404	 4.13756273666179E-02 
405	 4.18668262249926E-02 
406	 4.22339554185471E-02 
407	 4.21674158730727E-02 
408	 4.13262074494171E-02 
409	 4.07527342881159E-02 
410	 4.05641359337235E-02 
411	 4.02291503212725E-02 
412	 0.040287037016355 
413	 0.040838433558062 
414	 4.09696906420297E-02 
415	 4.07008143896621E-02 
416	 4.01824578767475E-02 
417	 4.01805329335555E-02 
418	 4.05493475098513E-02 
419	 4.02312525733809E-02 
420	 3.97745411536216E-02 
421	 3.94833433052446E-02 
422	 3.91765996567315E-02 
423	 3.91397075136463E-02 
424	 3.98061276862837E-02 
425	 4.00327681256271E-02 
426	 3.97985599148468E-02 
427	 4.02419467593584E-02 
428	 4.05665401293415E-02 
429	 4.02834625453823E-02 
430	 3.99329127779607E-02 
431	 3.96036051083498E-02 
432	 3.92996823925183E-02 
433	 3.92244555534025E-02 
434	 3.93313774267993E-02 
435	 3.92517620974855E-02 
436	 3.92128102696455E-02 
437	 3.93688554941009E-02 
438	 3.96672864149492E-02 
439	 3.99554582465803E-02 
440	 4.00158055125989E-02 
441	 3.96360951623593E-02 
442	 3.90138707784991E-02 
443	 3.91902728041163E-02 
444	 3.95702940517853E-02 
445	 3.96437287145876E-02 
446	 3.96044543040016E-02 
447	 3.96133252531293E-02 
448	 3.99822961556099E-02 
449	 4.02629162169826E-02 
450	 4.03660074256734E-02 
451	 0.040686010011674 
452	 4.10439388096417E-02 
453	 4.12373997171062E-02 
454	 4.12363427807095E-02 
455	 4.11161091020611E-02 
456	 4.10856507274497E-02 
457	 4.11144090522959E-02 
458	 4.11585836327524E-02 
459	 4.09236244275519E-02 
460	 4.09199139463609E-02 
461	 4.17415252076061E-02 
462	 4.21777248432886E-02 
463	 4.21390597293205E-02 
464	 4.23580332729519E-02 
465	 4.22341334712037E-02 
466	 4.16306713568571E-02 
467	 4.18073845028173E-02 
468	 4.22738163081781E-02 
469	 4.21141445155134E-02 
470	 4.19346108795246E-02 
471	 4.19393684459716E-02 
472	 4.22965199633602E-02 
473	 0.042561784761284 
474	 0.042502695124656 
475	 4.27802846149866E-02 
476	 4.30978816210595E-02 
477	 4.27758640886924E-02 
478	 4.26453077561001E-02 
479	 4.28535067294111E-02 
480	 4.29004655341371E-02 
481	 0.042907359844498 
482	 4.30125650540915E-02 
483	 4.35852441016646E-02 
484	 4.42706909980881E-02 
485	 4.41047027528978E-02 
486	 4.37347221182407E-02 
487	 4.34265478365024E-02 
488	 4.31650089434285E-02 
489	 4.31742017748341E-02 
490	 4.36321599469835E-02 
491	 4.40148196486472E-02 
492	 4.41740541506124E-02 
493	 4.39921145707714E-02 
494	 4.40391080883245E-02 
495	 0.04450645046873 
496	 4.47740296211017E-02 
497	 0.045078145782096 
498	 4.57999331583899E-02 
499	 4.60920463893806E-02 
500	 4.59396052434249E-02 
501	 4.60635483204552E-02 
502	 4.61867601993906E-02 
503	 4.61895779032723E-02 
504	 4.63910627365138E-02 
505	 4.68583357944777E-02 
506	 4.76588253389047E-02 
507	 4.81267643648194E-02 
508	 4.82003278748234E-02 
509	 4.85067385866649E-02 
510	 4.88636460216102E-02 
511	 4.91237457262408E-02 
512	 4.94122048265382E-02 
513	 4.98477503911179E-02 
514	 5.07585936146133E-02 
515	 5.11163074432024E-02 
516	 0.050779579922011 
517	 5.12608417350889E-02 
518	 5.20158746938504E-02 
519	 5.23468068500412E-02 
520	 5.28000968104251E-02 
521	 5.34290360669326E-02 
522	 5.41595421706543E-02 
523	 5.46526195010772E-02 
524	 5.48282525873594E-02 
525	 0.055300905839887 
526	 0.055918261558832 
527	 5.63614820981235E-02 
528	 5.69192998030888E-02 
529	 5.75606928410913E-02 
530	 5.79505245290017E-02 
531	 5.83940287699984E-02 
532	 5.90553867325967E-02 
533	 5.94113238962963E-02 
534	 0.059666792419847 
535	 6.03766675914254E-02 
536	 6.09994301166585E-02 
537	 6.14546359987054E-02 
538	 6.22435410021215E-02 
539	 6.29017941422188E-02 
540	 6.29969176935812E-02 
541	 6.33291236508201E-02 
542	 6.39734543047941E-02 
543	 6.47202014188131E-02 
544	 6.52669043594294E-02 
545	 6.55346019488701E-02 
546	 6.60218901936139E-02 
547	 6.65085569964529E-02 
548	 6.66481364279098E-02 
549	 6.69086502225564E-02 
550	 6.73345835757107E-02 
551	 6.76023322991841E-02 
552	 0.068073549306281 
553	 6.89075421441513E-02 
554	 6.94562246079358E-02 
555	 6.97087682465908E-02 
556	 6.97981673436597E-02 
557	 7.02101828048637E-02 
558	 7.08966128065575E-02 
559	 7.07905242749572E-02 
560	 7.06061305495553E-02 
561	 7.10258855549033E-02 
562	 7.15979473658223E-02 
563	 7.21276518814364E-02 
564	 7.23837241460104E-02 
565	 7.24286633154319E-02 
566	 7.23221627063148E-02 
567	 7.22445954500904E-02 
568	 7.22975605210455E-02 
569	 7.25764457884975E-02 
570	 7.29224586316685E-02 
571	 7.31550227798996E-02 
572	 7.28278193920181E-02 
573	 7.26780028130043E-02 
574	 7.30955769337082E-02 
575	 7.32925977130445E-02 
576	 7.31859803224251E-02 
577	 7.27922452280096E-02 
578	 0.072867041008986 
579	 7.34615761936398E-02 
580	 7.36288171333651E-02 
581	 0.073506749517784 
582	 7.32844644523095E-02 
583	 7.33731351116799E-02 
584	 7.36656863754323E-02 
585	 7.36662408888382E-02 
586	 7.36438781623435E-02 
587	 7.37079543422462E-02 
588	 7.38954630602032E-02 
589	 7.40418447119201E-02 
590	 7.39293273919645E-02 
591	 7.37713201753859E-02 
592	 7.37053445196966E-02 
593	 7.39906763342993E-02 
594	 7.41416326040854E-02 
595	 7.39030317208174E-02 
596	 7.36743844025727E-02 
597	 7.37050132024754E-02 
598	 7.43408122801558E-02 
599	 7.48615548869136E-02 
600	 7.49442189580846E-02 
601	 7.43878417352778E-02 
602	 7.37160924012113E-02 
603	 7.34314841283259E-02 
604	 7.36517215018527E-02 
605	 7.41435944930812E-02 
606	 7.43399794630141E-02 
607	 7.42338842953477E-02 
608	 7.38511030733171E-02 
609	 7.35182933291684E-02 
610	 7.33714233588782E-02 
611	 7.35236091276713E-02 
612	 7.32648113139174E-02 
613	 7.26697483475296E-02 
614	 7.26209242376192E-02 
615	 7.26198151307331E-02 
616	 7.23643321855831E-02 
617	 7.20210580655297E-02 
618	 7.16637390985395E-02 
619	 7.13640535123815E-02 
620	 7.12165241680125E-02 
621	 7.11934764298046E-02 
622	 7.09831666253735E-02 
623	 7.10128852490016E-02 
624	 7.15946429396216E-02 
625	 7.14549661539214E-02 
626	 7.08124670251929E-02 
627	 7.08275943849083E-02 
628	 7.11075004931256E-02 
629	 7.14707985313688E-02 
630	 7.17211900793317E-02 
631	 7.17003505958132E-02 
632	 7.12615658741883E-02 
633	 7.11911925149602E-02 
634	 7.14922085412731E-02 
635	 7.14840811575201E-02 
636	 0.07142311024033 
637	 7.14377736538493E-02 
638	 7.13009137738786E-02 
639	 7.11650533372583E-02 
640	 7.13080857017387E-02 
641	 0.071997182415879 
642	 7.29318327902981E-02 
643	 7.25392329827093E-02 
644	 7.19522326717079E-02 
645	 7.21800654368887E-02 
646	 7.23651529336511E-02 
647	 7.22596186054555E-02 
648	 7.15892525581898E-02 
649	 7.10590859646312E-02 
650	 0.070983334818271 
651	 7.12322112499248E-02 
652	 7.13241581965002E-02 
653	 7.07194866284684E-02 
654	 7.02489436217071E-02 
655	 6.98652066927166E-02 
656	 6.86963665232553E-02 
657	 6.76512735513718E-02 
658	 6.72341062265293E-02 
659	 6.65314362567337E-02 
660	 6.57406146210663E-02 
661	 6.53929898863313E-02 
662	 6.46801535288648E-02 
663	 6.34505527383828E-02 
664	 6.21573223398159E-02 
665	 0.060850952814829 
666	 5.96002353601788E-02 
667	 5.87888243806253E-02 
668	 5.83146831611076E-02 
669	 5.77533260214705E-02 
670	 5.72976782980679E-02 
671	 5.69589967588505E-02 
672	 5.64600553752006E-02 
673	 5.61038936141959E-02 
674	 0.056241053617538 
675	 0.056287876085193 
676	 0.05615169550257 
677	 5.59678157248142E-02 
678	 5.59597485932499E-02 
679	 5.62622320055662E-02 
680	 5.67332615757705E-02 
681	 0.057490309660523 
682	 5.87745889120994E-02 
683	 5.96591444508594E-02 
684	 6.01671627177117E-02 
685	 6.16184566731098E-02 
686	 6.32678794299146E-02 
687	 6.45104090416025E-02 
688	 6.67365961318014E-02 
689	 6.95192787086748E-02 
690	 7.18916655644326E-02 
691	 7.40382783643543E-02 
692	 0.076089061982783 
693	 7.81517430004568E-02 
694	 8.04973594989361E-02 
695	 8.32602885789566E-02 
696	 8.55224877638003E-02 
697	 8.73546352326247E-02 
698	 8.95476069373601E-02 
699	 0.091795546106678 
700	 9.39187991476484E-02 
701	 9.58987860895357E-02 
702	 9.76784046470817E-02 
703	 9.92076772850701E-02 
704	 0.100722172008413 
705	 0.102238627060184 
706	 0.103495187791844 
707	 0.104704008596286 
708	 0.105944295464838 
709	 0.106603388158133 
710	 0.107160315195835 
711	 0.108663342202174 
712	 0.109909025116314 
713	 0.110647082041681 
714	 0.111626503458988 
715	 0.112545484714207 
716	 0.11314047315323 
717	 0.113475146076915 
718	 0.113849760667116 
719	 0.115160185304709 
720	 0.115727913342215 
721	 0.11539312004528 
722	 0.116561018724935 
723	 0.117812131761841 
724	 0.117389812451669 
725	 0.117591738901641 
726	 0.118530694476664 
727	 0.11875004665028 
728	 0.119426541916876 
729	 0.12087314826251 
730	 0.12104492668951 
731	 0.12078466479574 
732	 0.121542884395015 
733	 0.122386346690781 
734	 0.122990880766811 
735	 0.122967807900785 
736	 0.122947890124381 
737	 0.123340563371393 
738	 0.123751700750726 
739	 0.124118184669417 
740	 0.124404663376922 
741	 0.12493361210235 
742	 0.125644331305529 
743	 0.125889242339227 
744	 0.125924879724727 
745	 0.126004452075172 
746	 0.126227921886426 
747	 0.126531162766839 
748	 0.126659453933694 
749	 0.127055523344228 
750	 0.127718953879168 
751	 0.127729385651899 
752	 0.127729532709641 
753	 0.128429023935628 
754	 0.128867353432867 
755	 0.128862118221663 
756	 0.12847012907708 
757	 0.128091709430967 
758	 0.127910646211408 
759	 0.127665652633169 
760	 0.127671931794714 
761	 0.128899193161659 
762	 0.129200750082976 
763	 0.12862373509978 
764	 0.128711793005157 
765	 0.129557024448755 
766	 0.130825908782559 
767	 0.131143390268923 
768	 0.131247289872005 
769	 0.132089213888008 
770	 0.132259865862361 
771	 0.131782298314961 
772	 0.132016861208274 
773	 0.132289979751178 
774	 0.132224809087702 
775	 0.132680545192253 
776	 0.133371117463642 
777	 0.133600684320718 
778	 0.133621989560437 
779	 0.133611683714794 
780	 0.134030067973576 
781	 0.134343785345607 
782	 0.134161334590894 
783	 0.134132128832224 
784	 0.134218865560818 
785	 0.13405942494003 
786	 0.134286576346816 
787	 0.134934893385521 
788	 0.135133120292119 
789	 0.13507964440156 
790	 0.135017553425752 
791	 0.135049343184599 
792	 0.135268148568202 
793	 0.135888385099274 
794	 0.136071563608451 
795	 0.135690205623327 
796	 0.135875356679378 
797	 0.136111191499456 
798	 0.135834355160215 
799	 0.135437246215667 
800	 0.135217365261069 
801	 0.135808296181663 
802	 0.136121842898484 
803	 0.135878407552697 
804	 0.13617743542335 
805	 0.136724413041234 
806	 0.137107163130274 
807	 0.137189157863576 
808	 0.137101314328659 
809	 0.137366960733422 
810	 0.137406063295254 
811	 0.137014221040001 
812	 0.136524435246786 
813	 0.136439348301069 
814	 0.137355711702405 
815	 0.13823453443467 
816	 0.138827835447887 
817	 0.139442867341431 
818	 0.13984030041976 
819	 0.139856560049813 
820	 0.139038809744262 
821	 0.138484162349269 
822	 0.139470828881257 
823	 0.140471831618016 
824	 0.141028598678054 
825	 0.141093618481629 
826	 0.140982783763239 
827	 0.140877342383984 
828	 0.140811761411311 
829	 0.140946731211772 
830	 0.14143606410918 
831	 0.141602165177064 
832	 0.141550286728757 
833	 0.142098422270071 
834	 0.142394714347997 
835	 0.142209896363959 
836	 0.142480039933495 
837	 0.142881299191476 
838	 0.142954864089553 
839	 0.142412017688554 
840	 0.141779790775911 
841	 0.142746953003152 
842	 0.143577712159325 
843	 0.143526789193815 
844	 0.143201981273989 
845	 0.142458273321417 
846	 0.141180342724138 
847	 0.141584714222633 
848	 0.143147191053959 
849	 0.143115871078358 
850	 0.142274842693061 
851	 0.141239162206071 
852	 0.141914647977236 
853	 0.142645515268655 
854	 0.141614954355384 
855	 0.141644616379258 
856	 0.142574255060818 
857	 0.142647234072734 
858	 0.142506907147006 
859	 0.142205534383157 
860	 0.140994417601545 
861	 0.140139649823809 
862	 0.140800903546484 
863	 0.141378795840902 
864	 0.141711705256737 
865	 0.142223521735881 
866	 0.142311723073288 
867	 0.14207827582494 
868	 0.143009375337741 
869	 0.143717664886788 
870	 0.143174877918114 
871	 0.143207846837817 
872	 0.143911483218311 
873	 0.144908748883901 
874	 0.145790374859895 
875	 0.146249827500345 
876	 0.145854124481094 
877	 0.145316075510782 
878	 0.14522179668091 
879	 0.145638308646336 
880	 0.146631818854946 
881	 0.148270743498235 
882	 0.14950366422557 
883	 0.150172935382399 
884	 0.15123796917507 
885	 0.150827200220417 
886	 0.148525439851169 
887	 0.149141091499026 
888	 0.150568307325343 
889	 0.149382615935771 
890	 0.149335586839498 
891	 0.150625223485996 
892	 0.151026534703542 
893	 0.151815020118629 
894	 0.1531380126736 
895	 0.152364111630396 
896	 0.1511200573955 
897	 0.151604767724932 
898	 0.152884735268958 
899	 0.154333314233326 
900	 0.155027969977621 
901	 0.154795456871056 
902	 0.154057272171093 
903	 0.154986041210831 
904	 0.15546976371099 
905	 0.154070476935636 
906	 0.153679943133547 
907	 0.154302457794145 
908	 0.155182188513904 
909	 0.155185008072186 
910	 0.154693671480456 
911	 0.15669813509939 
912	 0.158540928735371 
913	 0.158504346769256 
914	 0.156578214367088 
915	 0.154771156213823 
916	 0.155479661139867 
917	 0.157899120954274 
918	 0.16015047307594 
919	 0.157572452210729 
920	 0.156948426879146 
921	 0.159680944180724 
922	 0.159750690107391 
923	 0.158457455838442 
924	 0.157139076771061 
925	 0.154767518015366 
926	 0.152511854944456 
927	 0.153045116682805 
928	 0.154043762889694 
929	 0.154370125280386 
930	 0.152561001745551 
931	 0.152971049633275 
932	 0.158198693909866 
933	 0.157523878519421 
934	 0.153561041324473 
935	 0.153077032725754 
936	 0.151239062741209 
937	 0.150054212541886 
938	 0.158053306839951 
939	 0.158180866572877 
940	 0.149773724420585 
941	 0.155758125153051 
942	 0.161476153707504 
943	 0.15635044085231 
944	 0.149441202985901 
945	 0.146172439825459 
946	 0.1529551696748 
947	 0.154411147282138 
948	 0.149829044465684 
949	 0.150356102735774 
950	 0.156028263901694 
951	 0.163533242120915 
952	 0.156827373392287 
953	 0.146098399047423 
954	 0.142201214604522 
955	 0.144617241963489 
956	 0.148344412820602 
957	 0.144594105034329 
958	 0.144945126376714 
959	 0.150220815498878 
960	 0.152961427922774 
961	 0.154130521247407 
962	 0.153913593988838 
963	 0.150686530730335 
964	 0.148184376449281 
965	 0.149602724601533 
966	 0.14902287145147 
967	 0.148658470225383 
968	 0.155042362918359 
969	 0.158523127609733 
970	 0.157016286860264 
971	 0.153707901312637 
972	 0.151688193670928 
973	 0.153080226147294 
974	 0.159070969093737 
975	 0.162614506938336 
976	 0.156755260174754 
977	 0.154301505962913 
978	 0.15525208980479 
979	 0.153518164562224 
980	 0.154937499807554 
981	 0.159092815947479 
982	 0.158277807211417 
983	 0.157462200415552 
984	 0.158828302284003 
985	 0.157518900951646 
986	 0.156598471102356 
987	 0.159411435483247 
988	 0.161100823507706 
989	 0.160120667449493 
990	 0.155118061833987 
991	 0.152607059604756 
992	 0.154894427650561 
993	 0.162472620353809 
994	 0.165946464135302 
995	 0.161690997644821 
996	 0.159533410421892 
997	 0.158608828869305 
998	 0.157576530661096 
999	 0.15865979028376 
1000	 0.16005220378614 
1001	 0.158107785352955 
1002	 0.156657140182122 
1003	 0.15681181641025 
1004	 0.158540448762574 
1005	 0.16080966384241 
1006	 0.162435705723148 
1007	 0.160449098281039 
1008	 0.158956370757802 
1009	 0.161165933644633 
1010	 0.163557379500132 
1011	 0.166464944829938 
1012	 0.170740691529965 
1013	 0.169842923526173 
1014	 0.165822133751421 
1015	 0.167440563819253 
1016	 0.164385227359836 
1017	 0.156454458749866 
1018	 0.155832451694129 
1019	 0.156795039745485 
1020	 0.156405232619198 
1021	 0.158309065805323 
1022	 0.159709077504353 
1023	 0.158219777363884 
1024	 0.160128975159211 
1025	 0.162888000645771 
1026	 0.160486556439847 
1027	 0.159736220893332 
1028	 0.160148297481079 
1029	 0.153683865059924 
1030	 0.157119217125709 
1031	 0.170801487709494 
1032	 0.17030612850155 
1033	 0.162272619005611 
1034	 0.151854463069172 
1035	 0.144041706162955 
1036	 0.144807501296478 
1037	 0.156788262738493 
1038	 0.158476294717583 
1039	 0.154193399794297 
1040	 0.158112257424136 
1041	 0.158348569692422 
1042	 0.155990315762592 
1043	 0.162494211937415 
1044	 0.168678400242282 
1045	 0.171075400332032 
1046	 0.168678212216731 
1047	 0.171770539126599 
1048	 0.182571979087029 
1049	 0.169055710761863 
1050	 0.154380009698491 
1051	 0.160651530845873 
1052	 0.155566960610426 
1053	 0.147320400639448 
1054	 0.153465292418209 
1055	 0.174077828832391 
1056	 0.192067552272928 
1057	 0.174067106706863 
1058	 0.158015026985463 
1059	 0.156651779980671 
1060	 0.158127519050866 
1061	 0.155298541422173 
1062	 0.147009599974421 
1063	 0.1480243505648 
1064	 0.155131852215642 
1065	 0.162721855488465 
1066	 0.15380305210394 
1067	 0.142407662347042 
1068	 0.145180666041224 
1069	 0.141770773537227 
1070	 0.133775926717747 
1071	 0.132390427020974 
1072	 0.169507747408639 
1073	 0.214755823335837 
1074	 0.190346287841812 
1075	 0.174946478133894 
