Wavelength	SHSI00346.asd
325	 0.067170319978426 
326	 6.87256345339954E-02 
327	 7.51666585723672E-02 
328	 7.61353446134545E-02 
329	 7.87630707923625E-02 
330	 8.30918305083507E-02 
331	 7.55933908323914E-02 
332	 0.068157980468445 
333	 7.21905027784859E-02 
334	 7.21127316530719E-02 
335	 6.74240912539255E-02 
336	 6.17399682828233E-02 
337	 6.49294286970018E-02 
338	 7.57063832476424E-02 
339	 7.42313796968867E-02 
340	 7.01873532115428E-02 
341	 7.18975195085865E-02 
342	 7.33141626877524E-02 
343	 7.32009913687388E-02 
344	 7.07045963929346E-02 
345	 6.97922377765016E-02 
346	 7.10156090470282E-02 
347	 0.072080722749219 
348	 7.20679399263517E-02 
349	 7.07046349875505E-02 
350	 7.05724076817478E-02 
351	 7.09850976660086E-02 
352	 0.070321971432432 
353	 6.98427594139568E-02 
354	 7.00620857855868E-02 
355	 7.18128507668404E-02 
356	 0.072745393137398 
357	 7.15433093537046E-02 
358	 6.93088150330344E-02 
359	 6.79077117268986E-02 
360	 6.97904932842802E-02 
361	 6.96546545090343E-02 
362	 6.73766917267356E-02 
363	 0.066924886311395 
364	 6.77600499293703E-02 
365	 6.92574959500424E-02 
366	 6.97131037262225E-02 
367	 6.90296297993689E-02 
368	 6.73440291340483E-02 
369	 6.66267560674825E-02 
370	 6.70282691870166E-02 
371	 6.71994825771945E-02 
372	 6.76494610540361E-02 
373	 6.83879325422593E-02 
374	 6.79004627372686E-02 
375	 6.67458606277214E-02 
376	 6.59019077224638E-02 
377	 6.52982902107691E-02 
378	 6.50918731839078E-02 
379	 6.57884290196483E-02 
380	 6.59637733016856E-02 
381	 6.51748921857844E-02 
382	 6.57095661367407E-02 
383	 6.64580760777363E-02 
384	 6.57184131412909E-02 
385	 6.54622678760594E-02 
386	 0.06585368010416 
387	 6.59953076653588E-02 
388	 6.55280648502758E-02 
389	 6.44324481954526E-02 
390	 6.35007737076729E-02 
391	 0.06321080433813 
392	 6.39644407660965E-02 
393	 6.42510272246742E-02 
394	 6.42830635006401E-02 
395	 6.61176475597395E-02 
396	 6.56636926803147E-02 
397	 6.23068511266473E-02 
398	 6.24923320833354E-02 
399	 6.34821835077268E-02 
400	 6.20919127693357E-02 
401	 6.19308261730574E-02 
402	 6.27920802682768E-02 
403	 6.26563002356691E-02 
404	 6.24700765179395E-02 
405	 6.24924329353264E-02 
406	 0.061714003929419 
407	 6.14377568098258E-02 
408	 6.32758106725456E-02 
409	 6.36558624437583E-02 
410	 6.24425924440419E-02 
411	 6.16064915835006E-02 
412	 6.10907403213803E-02 
413	 6.09781162624434E-02 
414	 6.16918921432907E-02 
415	 6.24250686182108E-02 
416	 6.21499750344291E-02 
417	 6.20274208506773E-02 
418	 6.21874902300214E-02 
419	 6.21309276710409E-02 
420	 6.20910867577596E-02 
421	 6.22077969683213E-02 
422	 6.26116662918756E-02 
423	 6.28138270736436E-02 
424	 6.20999109631732E-02 
425	 6.18361315585683E-02 
426	 6.22555197238939E-02 
427	 6.28530903544186E-02 
428	 6.31647462365437E-02 
429	 6.29144349055936E-02 
430	 6.26211679896272E-02 
431	 0.0623447266682 
432	 6.20352646329368E-02 
433	 6.19990404772314E-02 
434	 6.21917687943795E-02 
435	 6.21368306546627E-02 
436	 6.21885180630853E-02 
437	 6.25143312950019E-02 
438	 6.23526046990573E-02 
439	 6.19929547635097E-02 
440	 6.21462642114223E-02 
441	 6.24371663948606E-02 
442	 6.27163303546039E-02 
443	 6.28746076156889E-02 
444	 6.28913144567002E-02 
445	 6.27860304805532E-02 
446	 0.062897000063723 
447	 6.31475130227556E-02 
448	 6.32475760292337E-02 
449	 6.32454865260985E-02 
450	 6.32094626391632E-02 
451	 6.34210534649771E-02 
452	 6.36697954439479E-02 
453	 6.37320545178617E-02 
454	 6.36535838944931E-02 
455	 6.35618742938069E-02 
456	 6.37725181689719E-02 
457	 6.39953244005776E-02 
458	 6.41121615421993E-02 
459	 6.42072580803803E-02 
460	 6.42995707037669E-02 
461	 6.44045802713709E-02 
462	 6.45103456319917E-02 
463	 6.45831713636413E-02 
464	 6.45075327952518E-02 
465	 6.45529531414082E-02 
466	 6.48061485719554E-02 
467	 6.48213949217983E-02 
468	 6.46607081503803E-02 
469	 0.064492119056076 
470	 0.064370184238485 
471	 6.43349908108405E-02 
472	 6.44002032636225E-02 
473	 6.45799789868493E-02 
474	 6.48540940088167E-02 
475	 6.50201441047633E-02 
476	 0.065123965453663 
477	 6.53210501585477E-02 
478	 0.065204284509849 
479	 6.48854336028894E-02 
480	 0.065339296505886 
481	 6.57210869211876E-02 
482	 6.53742280173544E-02 
483	 6.51262050698059E-02 
484	 6.51421564778577E-02 
485	 6.54774138033057E-02 
486	 6.57696799614862E-02 
487	 6.58309053985288E-02 
488	 6.56187594956041E-02 
489	 6.52697238322667E-02 
490	 0.064956349978144 
491	 6.52840750827651E-02 
492	 6.59573483489824E-02 
493	 6.58675260990467E-02 
494	 6.58083574501144E-02 
495	 6.60768859906192E-02 
496	 6.62517409574373E-02 
497	 6.64691199091078E-02 
498	 6.69491808753667E-02 
499	 6.72995994719773E-02 
500	 6.74071837250633E-02 
501	 6.72284242820726E-02 
502	 6.71981718333532E-02 
503	 6.75846091814177E-02 
504	 6.82295417651813E-02 
505	 6.87866737268148E-02 
506	 6.87497604100427E-02 
507	 6.86335061745705E-02 
508	 6.87439425868408E-02 
509	 0.069577106854766 
510	 7.05493095217356E-02 
511	 7.11553373937528E-02 
512	 7.12999045871229E-02 
513	 7.12939682351721E-02 
514	 7.18927778656759E-02 
515	 7.25047362450154E-02 
516	 7.29402653863244E-02 
517	 7.33670389920448E-02 
518	 7.38484487894291E-02 
519	 7.44267301279894E-02 
520	 7.48588558599895E-02 
521	 7.51990909972364E-02 
522	 7.56808396468933E-02 
523	 7.64742758445728E-02 
524	 0.077517578010107 
525	 7.78498073718761E-02 
526	 7.78334741467753E-02 
527	 7.81159700203737E-02 
528	 7.85554881640686E-02 
529	 7.90998453803424E-02 
530	 7.96896390021348E-02 
531	 8.01439567854311E-02 
532	 8.03778189410982E-02 
533	 8.07565318916053E-02 
534	 8.12571854201364E-02 
535	 8.17107646650736E-02 
536	 8.22849972152675E-02 
537	 8.29159370313344E-02 
538	 8.30997776830303E-02 
539	 8.31917087351764E-02 
540	 8.35433883666707E-02 
541	 8.37718614955631E-02 
542	 8.39724804605807E-02 
543	 8.46182214977507E-02 
544	 8.51129915975146E-02 
545	 8.52668017422441E-02 
546	 8.56020975896951E-02 
547	 8.59910403829047E-02 
548	 8.62061616165835E-02 
549	 8.64652665296289E-02 
550	 8.67722606585641E-02 
551	 8.69556052342412E-02 
552	 8.71353036050916E-02 
553	 8.73841869798639E-02 
554	 8.76232087444721E-02 
555	 8.78798092031269E-02 
556	 8.82498352555996E-02 
557	 8.83474940657488E-02 
558	 8.81817990351505E-02 
559	 8.83903099391469E-02 
560	 8.87428204700443E-02 
561	 0.088993928416538 
562	 8.91414919123473E-02 
563	 8.92103141160722E-02 
564	 8.92868316584803E-02 
565	 8.93332398469524E-02 
566	 8.93194116781245E-02 
567	 8.91416865808274E-02 
568	 8.89548048867305E-02 
569	 8.89622793827396E-02 
570	 8.90261160225613E-02 
571	 8.90635967385951E-02 
572	 8.89394044708036E-02 
573	 8.87601319561885E-02 
574	 8.86076738428802E-02 
575	 8.85781796965092E-02 
576	 8.85672990394218E-02 
577	 8.83402927414858E-02 
578	 8.83686019547106E-02 
579	 8.86514147535045E-02 
580	 8.85123634352501E-02 
581	 8.82580542555823E-02 
582	 8.81806638619036E-02 
583	 8.81510815557263E-02 
584	 8.81508778624145E-02 
585	 8.81997190570041E-02 
586	 8.81712873239399E-02 
587	 0.088031627220231 
588	 8.78985922521003E-02 
589	 0.087969545905373 
590	 8.84654987921426E-02 
591	 8.84259274428514E-02 
592	 8.78587881632187E-02 
593	 8.75627506824252E-02 
594	 8.74137836530387E-02 
595	 8.73770591366497E-02 
596	 8.76414482975729E-02 
597	 8.80026344820409E-02 
598	 8.80872710049404E-02 
599	 8.80933692615614E-02 
600	 8.80759375710759E-02 
601	 8.80315097366197E-02 
602	 8.79478160064453E-02 
603	 8.78235951428765E-02 
604	 8.77848176729722E-02 
605	 8.77918728105452E-02 
606	 8.77026853460244E-02 
607	 0.087532408889952 
608	 8.72626481020754E-02 
609	 8.67375113357248E-02 
610	 8.63973335919171E-02 
611	 8.67840801327017E-02 
612	 8.64472450059296E-02 
613	 8.55433799647577E-02 
614	 8.58610513944745E-02 
615	 8.62052903440329E-02 
616	 8.58922674969996E-02 
617	 8.56862237483725E-02 
618	 0.085592136703946 
619	 8.54389234756941E-02 
620	 8.52916153596189E-02 
621	 8.51973979085796E-02 
622	 8.53264740154487E-02 
623	 8.52961818928907E-02 
624	 8.48119102977542E-02 
625	 8.47432885952082E-02 
626	 8.50484458666504E-02 
627	 8.52522635759245E-02 
628	 8.50279171755554E-02 
629	 8.43998191035092E-02 
630	 8.45004528142467E-02 
631	 8.48573604401774E-02 
632	 8.47639382156901E-02 
633	 8.47883124261606E-02 
634	 8.48659807508595E-02 
635	 8.42847152155464E-02 
636	 0.084111870626339 
637	 8.48381242833464E-02 
638	 8.49135762360323E-02 
639	 8.45499867503725E-02 
640	 8.45027604429628E-02 
641	 8.44100826699298E-02 
642	 8.41824994488243E-02 
643	 8.38335376804784E-02 
644	 8.35221594638394E-02 
645	 8.33798472972083E-02 
646	 8.33049661424102E-02 
647	 8.30899319749598E-02 
648	 8.22035169257044E-02 
649	 8.15384253845772E-02 
650	 8.14735469554319E-02 
651	 8.17950423238015E-02 
652	 8.19802511638584E-02 
653	 8.14520838314132E-02 
654	 8.10930936477005E-02 
655	 8.09348162386241E-02 
656	 8.03402467282995E-02 
657	 0.079675427300398 
658	 7.91877397298717E-02 
659	 7.87548327770089E-02 
660	 7.82974504526536E-02 
661	 7.77141938353494E-02 
662	 7.72729816282207E-02 
663	 0.076899050107289 
664	 7.59564199211577E-02 
665	 7.49043915341146E-02 
666	 7.41741286668603E-02 
667	 7.39741525251764E-02 
668	 7.39445646362576E-02 
669	 7.30260192007563E-02 
670	 7.26401371887119E-02 
671	 0.073100926904417 
672	 0.073027747278953 
673	 7.26297337943973E-02 
674	 7.22821001347091E-02 
675	 7.21863535808054E-02 
676	 7.23688484112904E-02 
677	 7.27033891521351E-02 
678	 7.30859775573866E-02 
679	 0.073434747624588 
680	 7.37202729321872E-02 
681	 7.39308825158687E-02 
682	 7.40198401660207E-02 
683	 0.074818425931992 
684	 7.62707510523404E-02 
685	 7.71598935840833E-02 
686	 7.81399199227981E-02 
687	 7.97665156437755E-02 
688	 8.14357547862006E-02 
689	 8.30205505942962E-02 
690	 8.48563682752781E-02 
691	 8.66901034169193E-02 
692	 8.84987530809019E-02 
693	 9.03172571608371E-02 
694	 9.23563089873701E-02 
695	 9.47180950503766E-02 
696	 9.67561896238505E-02 
697	 9.86636473220862E-02 
698	 0.101512461430307 
699	 0.103946632561789 
700	 0.105425264715604 
701	 0.107333064016043 
702	 0.109409075017457 
703	 0.111096335460634 
704	 0.112940669145899 
705	 0.114920315944943 
706	 0.116485916336059 
707	 0.117823963020758 
708	 0.119049180172353 
709	 0.120100673571787 
710	 0.12109932154359 
711	 0.122216241572543 
712	 0.123808953311837 
713	 0.125664893316642 
714	 0.126402737274697 
715	 0.126833308384405 
716	 0.127781336616642 
717	 0.12871510362354 
718	 0.12959909626003 
719	 0.130492155362174 
720	 0.131285990665593 
721	 0.131922071893514 
722	 0.132485923271168 
723	 0.133146065159713 
724	 0.134025291095983 
725	 0.134248788641998 
726	 0.134056369389225 
727	 0.134940164729963 
728	 0.135671955498172 
729	 0.135766496489083 
730	 0.136446021829337 
731	 0.137255220951406 
732	 0.137418885402432 
733	 0.137171284025853 
734	 0.136885520424889 
735	 0.137552339066958 
736	 0.138349432381438 
737	 0.138715941618146 
738	 0.139088703896594 
739	 0.13947803410073 
740	 0.139802489159707 
741	 0.140038239424285 
742	 0.140216878544457 
743	 0.140545754422567 
744	 0.140698854380106 
745	 0.140460845587946 
746	 0.14073195143275 
747	 0.14136302381449 
748	 0.14164585672958 
749	 0.141743987001352 
750	 0.141730906224784 
751	 0.141798713763814 
752	 0.141911404229857 
753	 0.14202160996021 
754	 0.1424126045162 
755	 0.142840226696716 
756	 0.1424279755815 
757	 0.142201990165268 
758	 0.142561522917731 
759	 0.142518051467203 
760	 0.142377353871695 
761	 0.14338960961619 
762	 0.144027776817951 
763	 0.144107289874743 
764	 0.144451315540883 
765	 0.145048812767351 
766	 0.145699777842317 
767	 0.145638159282492 
768	 0.145217079305005 
769	 0.14482182369992 
770	 0.145070493612164 
771	 0.145731328372675 
772	 0.14529445386209 
773	 0.144907252002606 
774	 0.145309650636793 
775	 0.145817400601625 
776	 0.14616200592017 
777	 0.146044198444389 
778	 0.146050674677725 
779	 0.146259921036732 
780	 0.146095728153593 
781	 0.146183349953828 
782	 0.146917158234544 
783	 0.146808842459901 
784	 0.146461428626397 
785	 0.14777128477277 
786	 0.14827722310534 
787	 0.147527534259571 
788	 0.147540866653189 
789	 0.14804746651205 
790	 0.1486533287464 
791	 0.148762321773646 
792	 0.148490848058321 
793	 0.148449022525309 
794	 0.148331287971176 
795	 0.148184347301979 
796	 0.148718103050522 
797	 0.14914130752495 
798	 0.148688704879893 
799	 0.148645597362633 
800	 0.148896373195116 
801	 0.148278343879009 
802	 0.148455453161752 
803	 0.149740413897209 
804	 0.150002961075683 
805	 0.149897233335583 
806	 0.150261444366657 
807	 0.14983329617267 
808	 0.149105655462464 
809	 0.150220492376948 
810	 0.151185488454772 
811	 0.151141370927121 
812	 0.150672621565027 
813	 0.150316351920055 
814	 0.150696163121298 
815	 0.150427123025671 
816	 0.14975898748209 
817	 0.150543431661515 
818	 0.151695375061161 
819	 0.152564006105603 
820	 0.152651816162752 
821	 0.152542066573395 
822	 0.152941739250483 
823	 0.153163298004525 
824	 0.153072813703014 
825	 0.152766399571123 
826	 0.152355256085794 
827	 0.152016721331914 
828	 0.152436831557674 
829	 0.153021983655186 
830	 0.152990188457561 
831	 0.153347071193138 
832	 0.153988844487364 
833	 0.153950684625456 
834	 0.154181499103386 
835	 0.15489435938893 
836	 0.154891125090623 
837	 0.154508725707224 
838	 0.154254553768345 
839	 0.15445974843137 
840	 0.154924729881232 
841	 0.154823859296664 
842	 0.15485440978067 
843	 0.155134379557527 
844	 0.154477505724371 
845	 0.154038769119765 
846	 0.155098807757136 
847	 0.154800009618105 
848	 0.153491180758905 
849	 0.153947961211959 
850	 0.154527081342384 
851	 0.154540901937298 
852	 0.153814772746983 
853	 0.153956738356628 
854	 0.156428164349108 
855	 0.156572886793117 
856	 0.154883930861824 
857	 0.154983569287536 
858	 0.155290978858889 
859	 0.155352312465537 
860	 0.155270407101795 
861	 0.155389172255047 
862	 0.155989688947757 
863	 0.156430993921993 
864	 0.156419718045613 
865	 0.155495581680345 
866	 0.155237654343817 
867	 0.156062125416935 
868	 0.157089755952871 
869	 0.157130470681819 
870	 0.155583909972972 
871	 0.156094651541207 
872	 0.157684328716968 
873	 0.157325971281241 
874	 0.157115402881937 
875	 0.15756684659896 
876	 0.158290186600813 
877	 0.15838017363755 
878	 0.157496093425836 
879	 0.158509609127264 
880	 0.159933935857807 
881	 0.158739038816011 
882	 0.158905260160578 
883	 0.160601024158683 
884	 0.160545146952373 
885	 0.160002947103661 
886	 0.15982950889091 
887	 0.160687456771535 
888	 0.161638917802961 
889	 0.161371475462965 
890	 0.161396891728563 
891	 0.16172598991242 
892	 0.161144144760167 
893	 0.161029432000795 
894	 0.161825999436093 
895	 0.161922531673351 
896	 0.161495295695819 
897	 0.16103310742207 
898	 0.162321308030227 
899	 0.164219503111549 
900	 0.162881632023797 
901	 0.162418771927573 
902	 0.163797589552207 
903	 0.165073019665182 
904	 0.164577891759329 
905	 0.161606730904362 
906	 0.161683422496229 
907	 0.16381130404404 
908	 0.16473166674779 
909	 0.16430865899456 
910	 0.163152264034678 
911	 0.164019669883018 
912	 0.165649857774068 
913	 0.166958274592589 
914	 0.166487771512188 
915	 0.164871342357285 
916	 0.163177006516058 
917	 0.162890900606129 
918	 0.163938175087278 
919	 0.165131665006468 
920	 0.166451340397252 
921	 0.167474070388807 
922	 0.16690356393166 
923	 0.165194654040102 
924	 0.163213789697667 
925	 0.166000391495683 
926	 0.169923789938315 
927	 0.165083957719754 
928	 0.162028378870727 
929	 0.163273317073083 
930	 0.160645581428338 
931	 0.159656783535006 
932	 0.163985748024834 
933	 0.164424621618677 
934	 0.161865953095012 
935	 0.160259435142956 
936	 0.162780640587364 
937	 0.167191379160356 
938	 0.16517488822325 
939	 0.16752957951912 
940	 0.173505845179425 
941	 0.164659154262823 
942	 0.159837621362884 
943	 0.17127857675704 
944	 0.17288872034125 
945	 0.165821668240048 
946	 0.157593313797605 
947	 0.15878515324344 
948	 0.166641759735566 
949	 0.161707844858494 
950	 0.159847246091927 
951	 0.165287883651912 
952	 0.161821237150829 
953	 0.160132396734425 
954	 0.169501494570807 
955	 0.172175366225562 
956	 0.167317837307353 
957	 0.158110164322429 
958	 0.161849960863124 
959	 0.175983135670056 
960	 0.177628553768033 
961	 0.172945692229303 
962	 0.166445502286607 
963	 0.16399170006431 
964	 0.165127137813507 
965	 0.168419563131663 
966	 0.169387485756643 
967	 0.167386313520238 
968	 0.162446484959282 
969	 0.162684259719139 
970	 0.167337558496091 
971	 0.164691225783347 
972	 0.162738373373622 
973	 0.16523514156705 
974	 0.164861324762179 
975	 0.164629940774032 
976	 0.168150193769384 
977	 0.16661308161058 
978	 0.163168911870894 
979	 0.168294542363715 
980	 0.170574941398004 
981	 0.168398792165188 
982	 0.169396976440359 
983	 0.168755403708918 
984	 0.165414449514627 
985	 0.170156937670863 
986	 0.17464739185327 
987	 0.169904481891302 
988	 0.166801768891919 
989	 0.166889636436344 
990	 0.169041991464076 
991	 0.170317981574767 
992	 0.169761995068538 
993	 0.167878126103184 
994	 0.16617782474191 
995	 0.165626942698042 
996	 0.166314534080244 
997	 0.167174444323945 
998	 0.167264041406696 
999	 0.16852206676123 
1000	 0.16876317200753 
1001	 0.163780104341601 
1002	 0.16187464428504 
1003	 0.164468493484906 
1004	 0.168490247024722 
1005	 0.169471777790881 
1006	 0.166822767327577 
1007	 0.168067819810412 
1008	 0.172157080171642 
1009	 0.176572500274348 
1010	 0.171469913836145 
1011	 0.163037110213465 
1012	 0.161662366608509 
1013	 0.168443901946451 
1014	 0.178169423961654 
1015	 0.178255832826517 
1016	 0.174166962895984 
1017	 0.168822882341135 
1018	 0.165942022757931 
1019	 0.169538204739471 
1020	 0.17881897027461 
1021	 0.176559880170498 
1022	 0.16882920146587 
1023	 0.164186475274906 
1024	 0.168166507031426 
1025	 0.174228763064853 
1026	 0.170154089196199 
1027	 0.174825930717062 
1028	 0.18441438920164 
1029	 0.17498790587158 
1030	 0.15841011709935 
1031	 0.145213961769 
1032	 0.15723267527588 
1033	 0.174403692199595 
1034	 0.182044990286337 
1035	 0.175992684389089 
1036	 0.169974600260353 
1037	 0.177209286157091 
1038	 0.173832574914123 
1039	 0.164923822945006 
1040	 0.166467813356629 
1041	 0.166881969544785 
1042	 0.164607682800464 
1043	 0.162798476699398 
1044	 0.163775523029224 
1045	 0.167139576805167 
1046	 0.166598626769132 
1047	 0.167110248642392 
1048	 0.17103990148346 
1049	 0.173846119028133 
1050	 0.171580839406479 
1051	 0.162698396665387 
1052	 0.171802631897156 
1053	 0.182970959245911 
1054	 0.169172861971101 
1055	 0.164423239647474 
1056	 0.172324111926055 
1057	 0.183855190928458 
1058	 0.177367980743481 
1059	 0.156335605270023 
1060	 0.159680802997805 
1061	 0.180459092677553 
1062	 0.206853568266995 
1063	 0.205413805055493 
1064	 0.192074952549348 
1065	 0.181137750988872 
1066	 0.174878045390741 
1067	 0.164483434061737 
1068	 0.142242995494329 
1069	 0.162115372464775 
1070	 0.200607154347132 
1071	 0.197458955136548 
1072	 0.169524352068024 
1073	 0.13688632205424 
1074	 0.149476402826188 
1075	 0.188605723567066 
