Wavelength	SHSI00236.asd
325	 0.082220757613466 
326	 7.73163895136921E-02 
327	 6.29347004917093E-02 
328	 7.76090514722253E-02 
329	 8.38285368989899E-02 
330	 7.05413696542837E-02 
331	 5.80444098169069E-02 
332	 5.47794334026802E-02 
333	 6.57967882546754E-02 
334	 7.29349648267974E-02 
335	 7.49869057102422E-02 
336	 7.92971422459917E-02 
337	 0.076668648417809 
338	 6.80524288462326E-02 
339	 6.96849135017446E-02 
340	 7.33218722574515E-02 
341	 7.20285332628384E-02 
342	 7.17496687604705E-02 
343	 7.33758881326544E-02 
344	 7.71816232896844E-02 
345	 0.079009724282425 
346	 7.83329726292989E-02 
347	 7.81009638853614E-02 
348	 7.74211104133478E-02 
349	 7.56886919623985E-02 
350	 7.25051778057996E-02 
351	 7.05757532401294E-02 
352	 7.42756082538645E-02 
353	 7.53482496360432E-02 
354	 7.35933493119689E-02 
355	 7.64062613254292E-02 
356	 7.97895598476078E-02 
357	 8.11546588774444E-02 
358	 8.15508987626611E-02 
359	 8.04791197747335E-02 
360	 7.70166901231254E-02 
361	 7.55713589976313E-02 
362	 7.67043777605006E-02 
363	 7.85846530085751E-02 
364	 7.81322145624742E-02 
365	 7.46788187981264E-02 
366	 7.49112024637316E-02 
367	 7.79704310078992E-02 
368	 8.17464592715551E-02 
369	 8.31829367345655E-02 
370	 8.23533734224751E-02 
371	 0.082150948344862 
372	 8.37319663546927E-02 
373	 8.69521358007514E-02 
374	 8.63845084571088E-02 
375	 8.29796947418032E-02 
376	 7.89665226391067E-02 
377	 7.76691983174106E-02 
378	 7.88747460002628E-02 
379	 7.88231286841587E-02 
380	 7.88969457417371E-02 
381	 0.079953813219625 
382	 8.37986248995843E-02 
383	 8.55827314537157E-02 
384	 7.90993164495858E-02 
385	 7.83796787995187E-02 
386	 0.083084810720321 
387	 8.20169658324067E-02 
388	 7.91598686665847E-02 
389	 7.66897930322013E-02 
390	 7.64404574115466E-02 
391	 7.79688709223388E-02 
392	 8.04048424632732E-02 
393	 7.92256885611157E-02 
394	 7.54869317455922E-02 
395	 7.51388795925353E-02 
396	 7.58548588460973E-02 
397	 7.63106040428303E-02 
398	 7.51020980018708E-02 
399	 7.37884588586779E-02 
400	 7.39460010756995E-02 
401	 7.40036160221054E-02 
402	 7.40396014571888E-02 
403	 7.50151843745108E-02 
404	 7.60975704027069E-02 
405	 7.70012011614183E-02 
406	 7.84672077125905E-02 
407	 7.94432100748355E-02 
408	 0.0786509595517 
409	 7.73540735440228E-02 
410	 7.63182449662771E-02 
411	 0.076634988997784 
412	 7.72797087979271E-02 
413	 7.76322600686863E-02 
414	 7.72277678391641E-02 
415	 7.67972647626133E-02 
416	 7.73162124072938E-02 
417	 7.79927360129725E-02 
418	 7.85086374238132E-02 
419	 7.85931713413887E-02 
420	 7.82869346085835E-02 
421	 7.77524558286703E-02 
422	 7.78806662018277E-02 
423	 7.82648501338929E-02 
424	 7.81742510172492E-02 
425	 7.78135431901662E-02 
426	 7.75345591076517E-02 
427	 7.83859456298999E-02 
428	 7.94008501355513E-02 
429	 7.98497355087012E-02 
430	 7.96294895581379E-02 
431	 7.90784697917801E-02 
432	 7.87606332251708E-02 
433	 7.86476182611807E-02 
434	 7.86134903287101E-02 
435	 0.078060453726998 
436	 0.078044777788103 
437	 7.91081628868051E-02 
438	 7.93446325811547E-02 
439	 7.90471583572057E-02 
440	 7.92815436536954E-02 
441	 7.94601522015728E-02 
442	 7.95193232804858E-02 
443	 7.98194830961557E-02 
444	 8.02990987965587E-02 
445	 8.08676034549439E-02 
446	 8.12507936480881E-02 
447	 8.13497429805458E-02 
448	 8.09906091705461E-02 
449	 8.10496728340813E-02 
450	 8.17365769360811E-02 
451	 8.23741523408349E-02 
452	 8.28338202175237E-02 
453	 8.30608832771914E-02 
454	 8.37288567261485E-02 
455	 8.46131422546798E-02 
456	 8.48302498301867E-02 
457	 8.44718486984403E-02 
458	 8.38158501306925E-02 
459	 8.42181282812199E-02 
460	 8.49894985970918E-02 
461	 8.51795550619801E-02 
462	 0.084986023650316 
463	 8.48024544156771E-02 
464	 8.57454981667386E-02 
465	 8.65726279961536E-02 
466	 8.67029362207842E-02 
467	 8.71240417241533E-02 
468	 8.74872107543855E-02 
469	 8.71564193868331E-02 
470	 8.63485217249182E-02 
471	 8.56414270965094E-02 
472	 8.66599548204528E-02 
473	 0.088003646690998 
474	 8.86624694060112E-02 
475	 8.83492202011782E-02 
476	 8.77487012047754E-02 
477	 8.81224583096045E-02 
478	 8.83666299726051E-02 
479	 0.088350926272339 
480	 8.88873973479258E-02 
481	 8.94934017802561E-02 
482	 8.97785823874754E-02 
483	 9.00802942396291E-02 
484	 9.04455848159674E-02 
485	 9.09502108148756E-02 
486	 9.07884074813839E-02 
487	 8.98870635244774E-02 
488	 0.089511013357329 
489	 8.94517804271026E-02 
490	 8.94325271914016E-02 
491	 0.090341251876357 
492	 9.15367681126687E-02 
493	 9.08444294883649E-02 
494	 9.04794303443195E-02 
495	 9.12549914541706E-02 
496	 9.16967188286645E-02 
497	 9.19784833816625E-02 
498	 9.24994615080419E-02 
499	 9.32091444935195E-02 
500	 9.38925045581526E-02 
501	 0.093861225288198 
502	 9.39048058091832E-02 
503	 9.44487437034469E-02 
504	 9.47558763727041E-02 
505	 9.49842319929185E-02 
506	 9.55377956203411E-02 
507	 9.62140396797443E-02 
508	 9.69214910576723E-02 
509	 9.74587678987488E-02 
510	 9.82895000428481E-02 
511	 9.96865681377592E-02 
512	 0.100380453842259 
513	 0.100560314613501 
514	 0.101137077674411 
515	 0.101902150938488 
516	 0.102739233088334 
517	 0.103320522346217 
518	 0.103676989860021 
519	 0.103881344352689 
520	 0.103843392257709 
521	 0.103929548923927 
522	 0.105079452539098 
523	 0.106404452455793 
524	 0.107485441272104 
525	 0.108538268763464 
526	 0.109476775105254 
527	 0.110170529256815 
528	 0.110298199800549 
529	 0.110154136669685 
530	 0.110875907702894 
531	 0.112064329704681 
532	 0.113331152118044 
533	 0.113759045136431 
534	 0.113738072553745 
535	 0.114310242042073 
536	 0.114867550241857 
537	 0.115351363484252 
538	 0.116293982029649 
539	 0.117321583426246 
540	 0.118024702631901 
541	 0.118067711249697 
542	 0.11788908260547 
543	 0.118767218176302 
544	 0.119855284048761 
545	 0.120723522539617 
546	 0.121083188851429 
547	 0.121376134680319 
548	 0.122207787888193 
549	 0.122797048085934 
550	 0.122996230583547 
551	 0.122956268580392 
552	 0.123087865951608 
553	 0.123682860776786 
554	 0.124767298029229 
555	 0.12584980781021 
556	 0.126035787290238 
557	 0.126360733433345 
558	 0.126969825907576 
559	 0.126887666976338 
560	 0.126791985119321 
561	 0.127304931336414 
562	 0.127657648241702 
563	 0.127969727691989 
564	 0.129026066656269 
565	 0.129654843956942 
566	 0.129471682886322 
567	 0.129406288239698 
568	 0.129583624422875 
569	 0.130041626383787 
570	 0.130149563483017 
571	 0.129977376006646 
572	 0.130360335567635 
573	 0.130733380174951 
574	 0.130818347167146 
575	 0.131338489892397 
576	 0.131947362107709 
577	 0.131822751108526 
578	 0.13192514885956 
579	 0.13244244733361 
580	 0.132794436099393 
581	 0.132973114427193 
582	 0.13301084238836 
583	 0.133195210754816 
584	 0.133482710468196 
585	 0.133560584956112 
586	 0.133891196504093 
587	 0.134539033409135 
588	 0.134673854356981 
589	 0.134621902509148 
590	 0.13490293636291 
591	 0.134941525162278 
592	 0.134821832750598 
593	 0.135261699222624 
594	 0.135561033952139 
595	 0.135392006287393 
596	 0.13559905364582 
597	 0.136201034158397 
598	 0.137112109641481 
599	 0.137039918805173 
600	 0.136061820962311 
601	 0.136489921053494 
602	 0.13707681163318 
603	 0.136733896513261 
604	 0.137021871978326 
605	 0.137767955749571 
606	 0.137829219322074 
607	 0.13796277061399 
608	 0.138354146537234 
609	 0.138339157982543 
610	 0.138111910588758 
611	 0.13798934873637 
612	 0.138104358823379 
613	 0.138278221595403 
614	 0.137773537846643 
615	 0.137293350142912 
616	 0.137235526277812 
617	 0.137039264507371 
618	 0.136691157040643 
619	 0.136239227212991 
620	 0.136469487952962 
621	 0.137298125035527 
622	 0.137196368567432 
623	 0.137180278777456 
624	 0.138097400532213 
625	 0.137994553362178 
626	 0.13725860721957 
627	 0.137805747351297 
628	 0.138575689983472 
629	 0.139069191250657 
630	 0.138900325740053 
631	 0.138661764277898 
632	 0.139118717665015 
633	 0.139312183393517 
634	 0.139248638686257 
635	 0.139753843921497 
636	 0.140125906731395 
637	 0.140012639960361 
638	 0.140141415155406 
639	 0.140515581719176 
640	 0.14098277275078 
641	 0.141278090400809 
642	 0.141271169886533 
643	 0.140836795586611 
644	 0.140650323073167 
645	 0.141249981736805 
646	 0.141530440578837 
647	 0.141562754125608 
648	 0.14222366358363 
649	 0.142367968119864 
650	 0.141668320876034 
651	 0.141014217370904 
652	 0.140737880177646 
653	 0.141114770064426 
654	 0.141446659694813 
655	 0.141361134376581 
656	 0.14037028825464 
657	 0.139053197676767 
658	 0.137901745514839 
659	 0.137065493379684 
660	 0.136421581847974 
661	 0.135790223996363 
662	 0.134897411556498 
663	 0.133751815373207 
664	 0.132812260654438 
665	 0.131922882894742 
666	 0.130950496643848 
667	 0.130100006509781 
668	 0.129325765561425 
669	 0.128367300376137 
670	 0.127695103498371 
671	 0.12745006914963 
672	 0.127336309842619 
673	 0.127181025116761 
674	 0.12683116962912 
675	 0.126905821703819 
676	 0.127376943032681 
677	 0.127735916946363 
678	 0.127992204101206 
679	 0.128197602697175 
680	 0.128663569157511 
681	 0.129599109959572 
682	 0.131248476374848 
683	 0.133252595095814 
684	 0.13539881751753 
685	 0.137560789936749 
686	 0.139737660603381 
687	 0.141980438611585 
688	 0.14558757764369 
689	 0.14957630303666 
690	 0.151992374501265 
691	 0.155186021633623 
692	 0.159652894062015 
693	 0.163667296910403 
694	 0.167416088358362 
695	 0.171017372904098 
696	 0.174290942260544 
697	 0.17750084779537 
698	 0.181589129154082 
699	 0.185387402478389 
700	 0.1883584871949 
701	 0.191524040549242 
702	 0.194678420495238 
703	 0.197421580281781 
704	 0.199914934628427 
705	 0.202335290054027 
706	 0.205001984343189 
707	 0.207602028312317 
708	 0.209886500607801 
709	 0.211709321011909 
710	 0.213338030786486 
711	 0.215241113394002 
712	 0.217494397707457 
713	 0.219904402955783 
714	 0.221530285694038 
715	 0.222992482215831 
716	 0.224971086974177 
717	 0.226823050236907 
718	 0.2284865375963 
719	 0.230081271840477 
720	 0.230913632178067 
721	 0.231146682045931 
722	 0.232511220990652 
723	 0.234523164250541 
724	 0.236483124233234 
725	 0.237729075804471 
726	 0.238356919469475 
727	 0.239662365716389 
728	 0.240598770553668 
729	 0.240906361219574 
730	 0.242550576832233 
731	 0.244454470066754 
732	 0.244882124867365 
733	 0.245465969880718 
734	 0.24655340125081 
735	 0.248042089203579 
736	 0.248947100425324 
737	 0.248788265662977 
738	 0.249946668437027 
739	 0.251802842076193 
740	 0.252579241315182 
741	 0.253123387258062 
742	 0.253682011682384 
743	 0.254233356680523 
744	 0.254935529882145 
745	 0.255888148100932 
746	 0.25655402279983 
747	 0.257147666199175 
748	 0.258483973421537 
749	 0.259549936004275 
750	 0.260039528182832 
751	 0.260516743587519 
752	 0.261095053373038 
753	 0.261842441720929 
754	 0.262464350967804 
755	 0.263105694281638 
756	 0.264663574096502 
757	 0.264615687419842 
758	 0.262222882114444 
759	 0.2620854481173 
760	 0.265162600349187 
761	 0.269520313492307 
762	 0.27154111700385 
763	 0.271495889410746 
764	 0.272988126469466 
765	 0.274323094095992 
766	 0.274840338622559 
767	 0.27454515686836 
768	 0.274122061025023 
769	 0.27427496863414 
770	 0.275015217278264 
771	 0.276107338661034 
772	 0.276623411637048 
773	 0.2771947116915 
774	 0.278206457041636 
775	 0.279144456396959 
776	 0.279843355038259 
777	 0.280158191581584 
778	 0.280485060790268 
779	 0.281046002410411 
780	 0.282111190190037 
781	 0.283226009453997 
782	 0.284009718536856 
783	 0.284540911100563 
784	 0.285037695789433 
785	 0.285932785088695 
786	 0.286768520821899 
787	 0.287399770388536 
788	 0.287916018662519 
789	 0.288390083987035 
790	 0.288898930864675 
791	 0.289517196013122 
792	 0.290378608392154 
793	 0.291884668575827 
794	 0.292623791434855 
795	 0.292407689356629 
796	 0.293240071572979 
797	 0.29408640417653 
798	 0.293901709976888 
799	 0.294804791313556 
800	 0.296404544195068 
801	 0.296423354577362 
802	 0.296880652057481 
803	 0.298352372182523 
804	 0.29950910278967 
805	 0.300108053778897 
806	 0.300045856494982 
807	 0.299950046543002 
808	 0.300227929073567 
809	 0.301558208661422 
810	 0.302944659080931 
811	 0.303776462335502 
812	 0.303479013993196 
813	 0.303000699378706 
814	 0.303674389771723 
815	 0.305599638100635 
816	 0.308178378856616 
817	 0.309509182075037 
818	 0.310510801898987 
819	 0.311405595326182 
820	 0.310939949303885 
821	 0.310980674224228 
822	 0.313700995525865 
823	 0.315551750730475 
824	 0.315787014861991 
825	 0.314972691564953 
826	 0.314745567155087 
827	 0.315760012098859 
828	 0.316941199630213 
829	 0.317620006244891 
830	 0.317191079863389 
831	 0.318192362324495 
832	 0.320206292039281 
833	 0.320428591111255 
834	 0.320227382313794 
835	 0.320309282150959 
836	 0.321130162927333 
837	 0.322323147156641 
838	 0.323410482032388 
839	 0.323901238934291 
840	 0.324060709394174 
841	 0.324963644388006 
842	 0.326084538249843 
843	 0.326949582182276 
844	 0.326236703775927 
845	 0.325332074571042 
846	 0.325839328343972 
847	 0.325792787797221 
848	 0.325413949943056 
849	 0.326597528822041 
850	 0.327219153796354 
851	 0.326846354369121 
852	 0.328340138231015 
853	 0.330536581233253 
854	 0.331910952787286 
855	 0.332389806230159 
856	 0.332206607503881 
857	 0.331978370211624 
858	 0.332140534258068 
859	 0.332716650380831 
860	 0.332801973399648 
861	 0.332558644023103 
862	 0.332255613681641 
863	 0.332631264921002 
864	 0.333618988498285 
865	 0.334573180811434 
866	 0.336673297790695 
867	 0.339538185634562 
868	 0.339880105842463 
869	 0.339673246805864 
870	 0.340495594705854 
871	 0.339948469993793 
872	 0.338974159600393 
873	 0.339965927398594 
874	 0.341331590689162 
875	 0.342708402998306 
876	 0.344853629901099 
877	 0.345952418067374 
878	 0.345237097634122 
879	 0.347430721750389 
880	 0.350797842047986 
881	 0.351479687179473 
882	 0.352572485137558 
883	 0.354362893101813 
884	 0.355117782104034 
885	 0.355069277489005 
886	 0.354510672847783 
887	 0.354367958418334 
888	 0.354850192382337 
889	 0.356014803382292 
890	 0.355756966708691 
891	 0.354489514878454 
892	 0.355195755634999 
893	 0.355682273830021 
894	 0.355635508618544 
895	 0.359576363310328 
896	 0.364080353494182 
897	 0.364779259614985 
898	 0.366229206793445 
899	 0.368641034516313 
900	 0.370142131658655 
901	 0.371331153678521 
902	 0.371780447958869 
903	 0.368893841000752 
904	 0.366449827779139 
905	 0.367364994420933 
906	 0.369847763695028 
907	 0.372464943013233 
908	 0.373183126732205 
909	 0.373157028293126 
910	 0.373049592663309 
911	 0.373863520081041 
912	 0.375518935314571 
913	 0.377454666675729 
914	 0.376430858506273 
915	 0.375218344967315 
916	 0.37746335736654 
917	 0.379152673409611 
918	 0.379583111179489 
919	 0.379200525555048 
920	 0.379591715915239 
921	 0.380573455478922 
922	 0.377996745329735 
923	 0.375117435514495 
924	 0.374728024126777 
925	 0.372841313191886 
926	 0.370477812116559 
927	 0.371277204379707 
928	 0.372050815003378 
929	 0.372327822217062 
930	 0.375640807872865 
931	 0.378149507000714 
932	 0.37737117454053 
933	 0.383322167914978 
934	 0.389868044427468 
935	 0.386385075545945 
936	 0.386152598655265 
937	 0.387853215155467 
938	 0.37951308864018 
939	 0.372250879856199 
940	 0.370880583562161 
941	 0.380566827397773 
942	 0.38540747547979 
943	 0.375890067355808 
944	 0.378490363470326 
945	 0.38508975574368 
946	 0.377141401137966 
947	 0.37434621027219 
948	 0.377973596181271 
949	 0.375088841534959 
950	 0.3707894093676 
951	 0.369113192795135 
952	 0.380139692256387 
953	 0.388688509152525 
954	 0.382324625574473 
955	 0.378134247310542 
956	 0.378618269687121 
957	 0.382799597228171 
958	 0.387019725480886 
959	 0.388837509094128 
960	 0.384636775995902 
961	 0.381306629018032 
962	 0.381907810974833 
963	 0.382171425112974 
964	 0.381573993490034 
965	 0.380137028541939 
966	 0.38119414735548 
967	 0.383356833315177 
968	 0.382923395091521 
969	 0.381895515968211 
970	 0.380868248853214 
971	 0.37951524900113 
972	 0.380283283317947 
973	 0.384580957603637 
974	 0.392391497843927 
975	 0.398772432040748 
976	 0.398517502335743 
977	 0.394402159854996 
978	 0.389162494402989 
979	 0.386800766023463 
980	 0.384851179294411 
981	 0.383572950977572 
982	 0.385878669754703 
983	 0.389416805351908 
984	 0.391818467836299 
985	 0.387833231296624 
986	 0.384123676983072 
987	 0.387990191903888 
988	 0.392308693230599 
989	 0.394729549293889 
990	 0.393256275077554 
991	 0.396214760592812 
992	 0.402064294210851 
993	 0.396417908004667 
994	 0.388317477353189 
995	 0.383787031115955 
996	 0.388813818875588 
997	 0.390010315223172 
998	 0.376674122347126 
999	 0.3875101902692 
1000	 0.405916545639481 
1001	 0.393221475184489 
1002	 0.389084278438644 
1003	 0.398587130743901 
1004	 0.403539137776452 
1005	 0.404951324258073 
1006	 0.402526748112425 
1007	 0.394961091440976 
1008	 0.39311291985622 
1009	 0.403281829346706 
1010	 0.405360610754244 
1011	 0.40067390940565 
1012	 0.395352780284452 
1013	 0.391024563305984 
1014	 0.390981560731663 
1015	 0.401901102362446 
1016	 0.410034351589489 
1017	 0.411579319642194 
1018	 0.411335235595061 
1019	 0.408804259793889 
1020	 0.405240042905595 
1021	 0.40926225713916 
1022	 0.411199636876086 
1023	 0.402031324566445 
1024	 0.396835791449303 
1025	 0.400005846005375 
1026	 0.414030773924782 
1027	 0.408315526556783 
1028	 0.388186670052495 
1029	 0.395387046622514 
1030	 0.402484697660435 
1031	 0.401947750245217 
1032	 0.402808524452564 
1033	 0.404753032132405 
1034	 0.407817790453577 
1035	 0.415383047873434 
1036	 0.417571860230882 
1037	 0.405235697198232 
1038	 0.403632870607726 
1039	 0.410326666274128 
1040	 0.412962009460954 
1041	 0.419383773833475 
1042	 0.423076310567671 
1043	 0.399047593988974 
1044	 0.38438508216998 
1045	 0.389086238072707 
1046	 0.389328349331736 
1047	 0.396441033934454 
1048	 0.411481664980767 
1049	 0.398470862395562 
1050	 0.383064003997527 
1051	 0.392664927966354 
1052	 0.399309316753313 
1053	 0.407475731596777 
1054	 0.426897883272338 
1055	 0.426314806847792 
1056	 0.406769286909183 
1057	 0.385789118810339 
1058	 0.379976402684816 
1059	 0.388601120139856 
1060	 0.384205631379479 
1061	 0.399063089904666 
1062	 0.431556911857358 
1063	 0.393331972099429 
1064	 0.350679439512021 
1065	 0.354895398704907 
1066	 0.393340020283285 
1067	 0.411831517032968 
1068	 0.365050298028705 
1069	 0.384296345874225 
1070	 0.426007191455467 
1071	 0.383378576624741 
1072	 0.367518419924513 
1073	 0.389513515228903 
1074	 0.399720109810069 
1075	 0.414514383763539 
