Wavelength	SHSI00112.asd
325	 2.11790984378502E-02 
326	 2.84156129611335E-02 
327	 0.036635134094092 
328	 4.25925292068102E-02 
329	 4.30232335761697E-02 
330	 3.93690246750657E-02 
331	 4.41935857427169E-02 
332	 5.00395988263446E-02 
333	 4.91830428220309E-02 
334	 0.046184716290734 
335	 4.18319790262762E-02 
336	 3.39842496417015E-02 
337	 3.68091430726164E-02 
338	 4.90506887767203E-02 
339	 4.43144924314867E-02 
340	 3.65593158129726E-02 
341	 3.80223059611944E-02 
342	 4.23524748661089E-02 
343	 4.54653416571611E-02 
344	 4.12486063717583E-02 
345	 0.041341332822155 
346	 4.57250427420529E-02 
347	 4.16870215491344E-02 
348	 0.035883543355351 
349	 3.34756864615426E-02 
350	 3.70572443262907E-02 
351	 4.19610330874106E-02 
352	 4.07192811986421E-02 
353	 4.03626463938443E-02 
354	 4.16516040353464E-02 
355	 4.09175030613694E-02 
356	 3.95492696536554E-02 
357	 3.84788437518192E-02 
358	 3.73762352014366E-02 
359	 3.70045127699491E-02 
360	 3.85399065261361E-02 
361	 0.039220917566875 
362	 3.83843669210362E-02 
363	 3.58297840928286E-02 
364	 3.61878488540498E-02 
365	 4.07252371873046E-02 
366	 4.08916875767264E-02 
367	 3.77678724809743E-02 
368	 3.39183393732965E-02 
369	 3.55224217523207E-02 
370	 4.04718655753489E-02 
371	 0.036593783441501 
372	 0.032915031021991 
373	 3.40854968562817E-02 
374	 3.63310059633007E-02 
375	 0.037679224205961 
376	 3.61212554706555E-02 
377	 3.45771585587704E-02 
378	 3.38366813719767E-02 
379	 3.36572725432325E-02 
380	 3.41347449923601E-02 
381	 3.46442442202448E-02 
382	 3.09630667624613E-02 
383	 2.78209632978135E-02 
384	 3.17209899816711E-02 
385	 3.22049831946142E-02 
386	 2.94032309789954E-02 
387	 0.032415441519119 
388	 3.32347824124896E-02 
389	 2.97974910376237E-02 
390	 0.033557054331802 
391	 0.037553048741207 
392	 3.31516904309842E-02 
393	 3.14114716981361E-02 
394	 3.29591809330207E-02 
395	 3.23039066866548E-02 
396	 3.19565283012655E-02 
397	 3.26742182256293E-02 
398	 3.26058603679547E-02 
399	 3.26817697902921E-02 
400	 3.39326067664146E-02 
401	 3.37869595204115E-02 
402	 3.26678074041739E-02 
403	 0.032696356740944 
404	 0.032936705298053 
405	 3.28973629138892E-02 
406	 3.18797023710631E-02 
407	 3.10599573338355E-02 
408	 3.19035217580624E-02 
409	 3.24985893479578E-02 
410	 3.24083113342357E-02 
411	 3.16419328332209E-02 
412	 3.15194829511639E-02 
413	 3.23184388323283E-02 
414	 3.12122525458701E-02 
415	 3.01918679247467E-02 
416	 0.032095554414134 
417	 3.33481065610537E-02 
418	 3.32480829848384E-02 
419	 0.032373985429646 
420	 3.17780743882734E-02 
421	 0.031962374184611 
422	 3.18017189022355E-02 
423	 3.14319233688665E-02 
424	 3.12196709569428E-02 
425	 3.15768789870938E-02 
426	 3.22922083009274E-02 
427	 3.22509773283482E-02 
428	 3.19605175136169E-02 
429	 3.18026651203477E-02 
430	 3.20637200057915E-02 
431	 3.22014606674235E-02 
432	 3.12234217448771E-02 
433	 3.08961393290529E-02 
434	 3.14482714834262E-02 
435	 3.18369441220231E-02 
436	 0.031990734250821 
437	 3.18349294350922E-02 
438	 3.09459015766713E-02 
439	 3.01934253512562E-02 
440	 3.12845860462616E-02 
441	 0.031980422357663 
442	 3.18233253770119E-02 
443	 3.21320940432615E-02 
444	 3.22364521905253E-02 
445	 3.16540166961796E-02 
446	 3.15941377790845E-02 
447	 3.19803507521745E-02 
448	 3.21893257124004E-02 
449	 3.23822785119125E-02 
450	 3.25274476214334E-02 
451	 3.23664311462468E-02 
452	 3.20922898511728E-02 
453	 3.19090160417315E-02 
454	 3.17029760834271E-02 
455	 0.031572565628455 
456	 3.18492710368226E-02 
457	 3.20421638706524E-02 
458	 3.19448239832824E-02 
459	 3.16557101781227E-02 
460	 3.16368787529505E-02 
461	 3.23895718087744E-02 
462	 3.28556345412196E-02 
463	 3.27395432183901E-02 
464	 3.19276289987561E-02 
465	 3.14351176402166E-02 
466	 3.16996374783187E-02 
467	 0.031469788109992 
468	 3.11533929324233E-02 
469	 3.15506099245965E-02 
470	 3.16336118002034E-02 
471	 3.14842388830915E-02 
472	 0.032506728980548 
473	 3.29723392690351E-02 
474	 3.19747031586417E-02 
475	 0.031795684841046 
476	 3.21277637859721E-02 
477	 0.031808482316394 
478	 3.22591184343797E-02 
479	 3.33456431816287E-02 
480	 3.28431989060749E-02 
481	 3.21629574093734E-02 
482	 3.24582059355253E-02 
483	 0.032766037520214 
484	 3.29068759834495E-02 
485	 0.032840926371629 
486	 0.032722469195148 
487	 3.26288759777213E-02 
488	 3.25309677366132E-02 
489	 3.26450788605407E-02 
490	 3.31434850058278E-02 
491	 3.32033125908223E-02 
492	 3.29272055138928E-02 
493	 3.30671509093676E-02 
494	 3.31432155302589E-02 
495	 3.29894994804628E-02 
496	 3.28790264374835E-02 
497	 3.28697052756178E-02 
498	 3.29995383654153E-02 
499	 3.30263028857586E-02 
500	 3.29405132622385E-02 
501	 3.28644061538826E-02 
502	 3.32108164902058E-02 
503	 3.40394799507341E-02 
504	 3.38116940090352E-02 
505	 3.29860734018916E-02 
506	 3.25865720446575E-02 
507	 3.32568549492559E-02 
508	 3.46663521262394E-02 
509	 3.47191991959599E-02 
510	 3.43007871278376E-02 
511	 3.41794789631746E-02 
512	 3.42094010271333E-02 
513	 3.42942282763553E-02 
514	 3.42204726640271E-02 
515	 3.40827160807079E-02 
516	 3.40667330880914E-02 
517	 0.035057711494537 
518	 3.56582452686292E-02 
519	 3.44240187227132E-02 
520	 0.034408326163312 
521	 0.035405764326122 
522	 3.50306110619295E-02 
523	 3.47818083804574E-02 
524	 3.52617046720123E-02 
525	 3.57746591192735E-02 
526	 3.60857551478246E-02 
527	 3.59723164349138E-02 
528	 3.58931653461941E-02 
529	 3.60242589711159E-02 
530	 0.036517993265596 
531	 3.68046357821131E-02 
532	 3.65752292626298E-02 
533	 3.67341861669342E-02 
534	 3.70818752177566E-02 
535	 3.69503380813195E-02 
536	 3.69109067673632E-02 
537	 3.70619280996795E-02 
538	 3.69979940972841E-02 
539	 3.68266822389286E-02 
540	 3.66975960179059E-02 
541	 3.70792400021916E-02 
542	 3.77133741422114E-02 
543	 3.76864771902548E-02 
544	 3.76210938929342E-02 
545	 3.77330889012049E-02 
546	 0.037650355516539 
547	 3.75760753664851E-02 
548	 3.78086665805529E-02 
549	 3.78566745219407E-02 
550	 3.77490033726535E-02 
551	 3.80489377092506E-02 
552	 3.82504590266505E-02 
553	 3.80735621571575E-02 
554	 3.80168115468323E-02 
555	 3.81426100270164E-02 
556	 3.84482636599987E-02 
557	 3.85376755367762E-02 
558	 3.84566104853246E-02 
559	 3.91486743487385E-02 
560	 3.96525072272783E-02 
561	 3.91018872584528E-02 
562	 3.84913996892393E-02 
563	 0.038178722450102 
564	 3.85227647980093E-02 
565	 3.90481928558661E-02 
566	 3.94077165487512E-02 
567	 3.89467712623324E-02 
568	 3.83833985037256E-02 
569	 3.86998396733795E-02 
570	 3.92024792708323E-02 
571	 0.039566598175707 
572	 3.93528715876584E-02 
573	 0.039082804826337 
574	 3.90507743386407E-02 
575	 3.87103305663347E-02 
576	 3.85113561482507E-02 
577	 3.94234660645207E-02 
578	 3.99682298150543E-02 
579	 3.98268907911055E-02 
580	 4.00136840794937E-02 
581	 3.98684706563434E-02 
582	 3.89121128246007E-02 
583	 0.0390876520366 
584	 0.040033070335748 
585	 3.99246928698738E-02 
586	 3.95341208251825E-02 
587	 3.92440138483815E-02 
588	 3.96549393031032E-02 
589	 4.00927459239118E-02 
590	 3.96012163668211E-02 
591	 3.97518374176604E-02 
592	 4.04757867746883E-02 
593	 0.040298360100132 
594	 3.99395590637936E-02 
595	 3.98693731272878E-02 
596	 4.03175249190184E-02 
597	 0.040786697603723 
598	 4.03413667239559E-02 
599	 4.01020401003591E-02 
600	 4.03188561277205E-02 
601	 4.04087835544757E-02 
602	 4.05990765716446E-02 
603	 0.041061471991825 
604	 4.11833957565827E-02 
605	 4.10823129833457E-02 
606	 4.14206699135643E-02 
607	 0.041325596168969 
608	 4.06652116067327E-02 
609	 4.08470059562384E-02 
610	 4.13833439009992E-02 
611	 4.14992233940901E-02 
612	 4.13032967339573E-02 
613	 4.10942288503234E-02 
614	 4.18218493034362E-02 
615	 4.25303344156695E-02 
616	 4.26191892724933E-02 
617	 4.24111314302553E-02 
618	 4.21766636275357E-02 
619	 4.22737153869045E-02 
620	 4.26866127383074E-02 
621	 4.32376175121856E-02 
622	 4.32944692910317E-02 
623	 4.28549100298072E-02 
624	 4.20324432286997E-02 
625	 4.20543520638272E-02 
626	 4.27627426768833E-02 
627	 4.31374055200655E-02 
628	 4.32670230694738E-02 
629	 4.31703773335754E-02 
630	 4.30214549924084E-02 
631	 4.30307011598558E-02 
632	 4.34186413762632E-02 
633	 4.39550128610244E-02 
634	 4.43243802322318E-02 
635	 4.37451658633883E-02 
636	 4.31844556840606E-02 
637	 4.32409136771083E-02 
638	 4.36193460720967E-02 
639	 4.40082899403298E-02 
640	 4.39408466794853E-02 
641	 4.37306210337635E-02 
642	 4.35948500223735E-02 
643	 4.40642317004263E-02 
644	 4.42421434405308E-02 
645	 4.34293759843166E-02 
646	 4.34849793810734E-02 
647	 4.42011770045266E-02 
648	 4.40656492621317E-02 
649	 4.38428503764961E-02 
650	 0.043828169381684 
651	 4.40286686682402E-02 
652	 4.41524863431889E-02 
653	 4.38617696922175E-02 
654	 4.42445834660704E-02 
655	 4.50213886373861E-02 
656	 4.40711502531372E-02 
657	 4.36565265651804E-02 
658	 4.48441473163234E-02 
659	 4.49370704133947E-02 
660	 4.43029200984279E-02 
661	 4.39763944878566E-02 
662	 4.39330929118052E-02 
663	 4.42116589689177E-02 
664	 4.49279477661703E-02 
665	 4.50837731513932E-02 
666	 4.39837955488167E-02 
667	 4.37778913874258E-02 
668	 4.41783066281847E-02 
669	 4.34126322145929E-02 
670	 4.30000829873367E-02 
671	 4.34060422966761E-02 
672	 4.39476493433772E-02 
673	 0.044332193535467 
674	 4.43095762720116E-02 
675	 4.46191329306781E-02 
676	 4.50828906930852E-02 
677	 0.044455588928777 
678	 4.45613554156817E-02 
679	 0.046113844704039 
680	 4.66157355478542E-02 
681	 4.63756235872747E-02 
682	 4.63756888020779E-02 
683	 0.046297394998633 
684	 0.046314904467369 
685	 4.72766303012148E-02 
686	 4.85388247214753E-02 
687	 4.94845929131678E-02 
688	 0.050176897078128 
689	 5.07135274317443E-02 
690	 5.14971776241096E-02 
691	 5.22884715256466E-02 
692	 0.052912866289384 
693	 5.26540085689914E-02 
694	 5.28092408070129E-02 
695	 5.46511374501321E-02 
696	 5.58034261237502E-02 
697	 5.63632229754473E-02 
698	 5.81270722535678E-02 
699	 5.92791878837134E-02 
700	 5.92622335740671E-02 
701	 6.08754734236032E-02 
702	 6.25433225629027E-02 
703	 6.17409117607778E-02 
704	 6.22743011203971E-02 
705	 6.42448214250022E-02 
706	 6.46773083927717E-02 
707	 6.45703041895428E-02 
708	 6.47122971572765E-02 
709	 6.61139215721317E-02 
710	 6.77828637400112E-02 
711	 6.75876065086396E-02 
712	 6.79079491831899E-02 
713	 6.90965343898439E-02 
714	 6.91803551363179E-02 
715	 6.93896344037512E-02 
716	 7.09061879247384E-02 
717	 7.15818454653102E-02 
718	 7.15648741277261E-02 
719	 7.30241252559643E-02 
720	 7.42022950889395E-02 
721	 7.44878909866561E-02 
722	 7.45193363101233E-02 
723	 7.45879566869655E-02 
724	 0.074947293385958 
725	 7.48037663000696E-02 
726	 7.46189003415365E-02 
727	 0.076344599250965 
728	 7.80868553934828E-02 
729	 0.078846835952531 
730	 7.90088203229012E-02 
731	 7.91609284939565E-02 
732	 8.00395782593527E-02 
733	 7.99732918921417E-02 
734	 7.92646890820552E-02 
735	 8.01230667032957E-02 
736	 8.12000193379506E-02 
737	 8.16069662428943E-02 
738	 8.22374378199551E-02 
739	 8.28275133373154E-02 
740	 8.26411602176163E-02 
741	 8.28432794264652E-02 
742	 8.36368214345624E-02 
743	 8.42489421042508E-02 
744	 0.084624770763055 
745	 8.48042690633767E-02 
746	 8.56281351048095E-02 
747	 8.67390769719231E-02 
748	 8.69368062911367E-02 
749	 8.71049702642102E-02 
750	 0.087607348019787 
751	 0.088645482199239 
752	 8.94373893831451E-02 
753	 8.92049970094662E-02 
754	 8.93851409613698E-02 
755	 9.00138355281677E-02 
756	 9.02907271924699E-02 
757	 9.05254373410592E-02 
758	 9.08673291134327E-02 
759	 9.12411120427772E-02 
760	 9.19583992234694E-02 
761	 9.30452966901138E-02 
762	 9.43343417614557E-02 
763	 9.50819342612246E-02 
764	 9.39928469751018E-02 
765	 9.38364677356127E-02 
766	 9.50879721728008E-02 
767	 9.53970608827904E-02 
768	 9.53764695679612E-02 
769	 9.58407576473168E-02 
770	 9.65224313054379E-02 
771	 9.73825674796304E-02 
772	 9.85688997626351E-02 
773	 9.92878097803632E-02 
774	 9.91219503136729E-02 
775	 9.93689920396422E-02 
776	 0.100051709278196 
777	 0.100891195876112 
778	 0.101126178456439 
779	 0.100859563509571 
780	 0.10164058847424 
781	 0.102493686425927 
782	 0.102684408733321 
783	 0.103326164690403 
784	 0.104365062076085 
785	 0.105362743858295 
786	 0.10591448877141 
787	 0.106039312030425 
788	 0.106725173293104 
789	 0.107239174899855 
790	 0.106951041216774 
791	 0.107656647654764 
792	 0.108619436118465 
793	 0.106964678751029 
794	 0.107036075406733 
795	 0.109732598240339 
796	 0.11108115908502 
797	 0.11124490205604 
798	 0.110728520870381 
799	 0.110788350326921 
800	 0.111426260806094 
801	 0.111705838245596 
802	 0.112487011124686 
803	 0.113907875481591 
804	 0.115008473262846 
805	 0.115731968433733 
806	 0.116110077485451 
807	 0.116054280519036 
808	 0.116068895244293 
809	 0.117599866834885 
810	 0.119078587965038 
811	 0.119665911932264 
812	 0.118982025993237 
813	 0.118321152303724 
814	 0.119472498464182 
815	 0.121512607842675 
816	 0.123418475473451 
817	 0.122923330234226 
818	 0.122711254320859 
819	 0.123855470330826 
820	 0.124970458467621 
821	 0.126166228605909 
822	 0.127610860570209 
823	 0.127222294278436 
824	 0.125694102624259 
825	 0.126168141973106 
826	 0.127208148578412 
827	 0.128262897299508 
828	 0.12962137365745 
829	 0.130347099030423 
830	 0.129422979483187 
831	 0.130594731646315 
832	 0.133326189066223 
833	 0.133845437616387 
834	 0.13346350121433 
835	 0.132872998028861 
836	 0.132567388349004 
837	 0.133391707478544 
838	 0.13608371010892 
839	 0.137338837807621 
840	 0.136973905348424 
841	 0.136455451131978 
842	 0.137255330683276 
843	 0.139402820587548 
844	 0.138460615016043 
845	 0.13747262137592 
846	 0.140076596982365 
847	 0.141963760047741 
848	 0.142481361537496 
849	 0.142566813781131 
850	 0.142161776647193 
851	 0.141643884111607 
852	 0.14275525600681 
853	 0.144119959542948 
854	 0.144216718346051 
855	 0.14525176666065 
856	 0.146824162804886 
857	 0.146793012092903 
858	 0.147526709290896 
859	 0.149250577891982 
860	 0.148962280542914 
861	 0.147701325769288 
862	 0.146793206733861 
863	 0.148683166414591 
864	 0.151523989564841 
865	 0.149634856879964 
866	 0.149829834146013 
867	 0.153159790065186 
868	 0.152953129946639 
869	 0.15227687233999 
870	 0.153767248173723 
871	 0.155649360556779 
872	 0.157249388867848 
873	 0.157737168131673 
874	 0.159003951047752 
875	 0.160885031676175 
876	 0.160252124622922 
877	 0.159640731657148 
878	 0.160725197770945 
879	 0.161144775549902 
880	 0.161050225184902 
881	 0.161152524694767 
882	 0.162584440075814 
883	 0.165192254292071 
884	 0.167497689431336 
885	 0.168462079275663 
886	 0.167642551912348 
887	 0.166419273577839 
888	 0.165866137996399 
889	 0.167093989939024 
890	 0.167904205262946 
891	 0.168756447435189 
892	 0.173390343192879 
893	 0.175277032094555 
894	 0.172443165812224 
895	 0.174794666209709 
896	 0.177108506901839 
897	 0.172622316187045 
898	 0.172113173309339 
899	 0.175829444779915 
900	 0.17832470053386 
901	 0.179731406089497 
902	 0.179491030570533 
903	 0.175884859990699 
904	 0.173692025628605 
905	 0.176409683302043 
906	 0.179593102091995 
907	 0.181522502417643 
908	 0.180413196356379 
909	 0.178995618349688 
910	 0.178686988892558 
911	 0.18092377945262 
912	 0.183791991091875 
913	 0.185869030391683 
914	 0.186827277045288 
915	 0.186627486589166 
916	 0.185371966751328 
917	 0.182292874688321 
918	 0.180730815778375 
919	 0.190759047305294 
920	 0.194330354174495 
921	 0.187545421130335 
922	 0.185201751234897 
923	 0.187286456576874 
924	 0.192459856260805 
925	 0.190240300795315 
926	 0.184626193631972 
927	 0.18915221870259 
928	 0.193366688238237 
929	 0.1945080220943 
930	 0.199006730679771 
931	 0.200406093182904 
932	 0.194452340808013 
933	 0.195038119267221 
934	 0.198230178617335 
935	 0.194797423591372 
936	 0.191681965202784 
937	 0.191634991398625 
938	 0.197916909943105 
939	 0.196622941884887 
940	 0.187302517269887 
941	 0.189489332403864 
942	 0.191592949969796 
943	 0.18664396700353 
944	 0.19499793414774 
945	 0.20353093344735 
946	 0.187969746565143 
947	 0.186225413406079 
948	 0.201526162313433 
949	 0.210507491077798 
950	 0.213136475321811 
951	 0.208282462998771 
952	 0.189866437176831 
953	 0.178788878086006 
954	 0.192761355332684 
955	 0.19346606149604 
956	 0.189456296737389 
957	 0.207296919729003 
958	 0.210567876919882 
959	 0.198802170697546 
960	 0.203828772447093 
961	 0.204135548047777 
962	 0.19351689246561 
963	 0.196847997796993 
964	 0.200794195962367 
965	 0.192472646907551 
966	 0.198164678682487 
967	 0.211156901320577 
968	 0.210934517273616 
969	 0.214861713592556 
970	 0.221739902462142 
971	 0.210210630714704 
972	 0.202739817918578 
973	 0.209950733705097 
974	 0.211989238967826 
975	 0.20994530497096 
976	 0.207219939475835 
977	 0.203315815304865 
978	 0.201366447814895 
979	 0.207818164008108 
980	 0.211311907888167 
981	 0.210348141157939 
982	 0.213196396737209 
983	 0.214595062004886 
984	 0.212750765952595 
985	 0.214873675931392 
986	 0.214614496168341 
987	 0.206017560848983 
988	 0.208026680818465 
989	 0.217374715362959 
990	 0.221120716891717 
991	 0.22287719320524 
992	 0.223311954592864 
993	 0.222717621840298 
994	 0.222242683198988 
995	 0.221910859952418 
996	 0.218278870811148 
997	 0.211570784805754 
998	 0.203837936950442 
999	 0.215188768810943 
1000	 0.23055133874453 
1001	 0.219555463795424 
1002	 0.221668921501451 
1003	 0.236306575087575 
1004	 0.22533498212396 
1005	 0.222654157375854 
1006	 0.236291491597168 
1007	 0.232887717189401 
1008	 0.228642655553044 
1009	 0.235950416302633 
1010	 0.234582334703733 
1011	 0.233910350788399 
1012	 0.248579961793679 
1013	 0.240714893052115 
1014	 0.215524959399901 
1015	 0.204957067866103 
1016	 0.2158568226362 
1017	 0.240993522550829 
1018	 0.244458248381954 
1019	 0.242274577942464 
1020	 0.241826409279183 
1021	 0.228754938678222 
1022	 0.223899020323761 
1023	 0.243567224746442 
1024	 0.239600513856962 
1025	 0.226215137195672 
1026	 0.241331389922614 
1027	 0.252083558792262 
1028	 0.245933712789621 
1029	 0.208135176075334 
1030	 0.194146415643593 
1031	 0.215153099922766 
1032	 0.218819388607195 
1033	 0.227755321519398 
1034	 0.250500150126926 
1035	 0.253880171004745 
1036	 0.247970732429876 
1037	 0.245537483093991 
1038	 0.239308554641419 
1039	 0.230214318390886 
1040	 0.220083946531747 
1041	 0.22713717693837 
1042	 0.245488604461266 
1043	 0.250611521851867 
1044	 0.236511197931678 
1045	 0.208782008035612 
1046	 0.207993266131434 
1047	 0.204327681889924 
1048	 0.186974857008233 
1049	 0.206039433085152 
1050	 0.231935923380231 
1051	 0.234646629913637 
1052	 0.226924616658295 
1053	 0.227406473050226 
1054	 0.259822733580304 
1055	 0.244911548119516 
1056	 0.20300060497647 
1057	 0.226156993623362 
1058	 0.237741614278295 
1059	 0.227253204426403 
1060	 0.248022327834827 
1061	 0.269155799827447 
1062	 0.275588459540297 
1063	 0.25644921552436 
1064	 0.236344138018881 
1065	 0.227691850577505 
1066	 0.215847728925233 
1067	 0.222945261282125 
1068	 0.262177552574393 
1069	 0.238106100862197 
1070	 0.17479819643177 
1071	 0.162498593641007 
1072	 0.163376092774647 
1073	 0.164546156261447 
1074	 0.151346256643935 
1075	 0.176411596608951 
