Wavelength	SHSI00115.asd
325	 3.42722486167868E-02 
326	 3.83675839206923E-02 
327	 4.17717368330604E-02 
328	 4.17216085572979E-02 
329	 4.20851268138492E-02 
330	 0.043837404703358 
331	 4.31200942936935E-02 
332	 4.48141121999804E-02 
333	 5.28559491592226E-02 
334	 4.90384575918831E-02 
335	 0.037839396562749 
336	 3.53861201814394E-02 
337	 3.92428194705896E-02 
338	 4.55847654463841E-02 
339	 4.04456727072837E-02 
340	 3.50160451002183E-02 
341	 3.84683788398475E-02 
342	 4.20508412664083E-02 
343	 4.28612798147354E-02 
344	 3.76202911764788E-02 
345	 3.80205577022426E-02 
346	 4.38804714052682E-02 
347	 4.14726192566449E-02 
348	 3.79133564257276E-02 
349	 3.81545613697943E-02 
350	 3.98366849501172E-02 
351	 4.07519504817958E-02 
352	 3.78121663607682E-02 
353	 3.90402335017916E-02 
354	 4.34935165488859E-02 
355	 4.04090359645616E-02 
356	 3.70799673718392E-02 
357	 3.78927627400242E-02 
358	 3.95847044201801E-02 
359	 4.04915299590392E-02 
360	 3.87356064151187E-02 
361	 3.78901518443838E-02 
362	 3.79181833694356E-02 
363	 3.50727279017573E-02 
364	 3.44401578615269E-02 
365	 3.79513569078091E-02 
366	 3.96567293293941E-02 
367	 3.87145569853163E-02 
368	 3.48881419920882E-02 
369	 0.03452319021881 
370	 3.73953805112342E-02 
371	 3.75032398960154E-02 
372	 3.65956444650848E-02 
373	 3.56113040006264E-02 
374	 3.48147921987932E-02 
375	 3.38155921694475E-02 
376	 3.20019663174825E-02 
377	 3.27249567509369E-02 
378	 3.53971956686178E-02 
379	 3.53901526855828E-02 
380	 3.53120653467788E-02 
381	 3.59271245093587E-02 
382	 3.33151103009472E-02 
383	 3.04693817541823E-02 
384	 3.16625672360729E-02 
385	 3.29739243698473E-02 
386	 3.35851186427911E-02 
387	 3.44772714895233E-02 
388	 3.35077261847905E-02 
389	 3.07496858850998E-02 
390	 0.032659362769632 
391	 3.54793359342471E-02 
392	 3.44734297710371E-02 
393	 3.44636008038073E-02 
394	 0.035287792852775 
395	 3.34148886433368E-02 
396	 3.23501445489209E-02 
397	 3.31813052270465E-02 
398	 3.29435520362961E-02 
399	 3.21711491542743E-02 
400	 3.16835588219296E-02 
401	 3.22174140952858E-02 
402	 3.30593754425295E-02 
403	 3.20008702430895E-02 
404	 3.17218376082791E-02 
405	 3.29867220668053E-02 
406	 3.33822477255608E-02 
407	 3.30315592349195E-02 
408	 3.23718462189031E-02 
409	 3.25623568013122E-02 
410	 3.32923872204172E-02 
411	 0.032839176815878 
412	 3.22573407961696E-02 
413	 3.20837424656045E-02 
414	 3.22988805544306E-02 
415	 3.24595698053887E-02 
416	 3.20057606261091E-02 
417	 3.23621303272706E-02 
418	 3.31711577868202E-02 
419	 0.032282712246456 
420	 3.12633809946297E-02 
421	 3.10020359803317E-02 
422	 3.12211950171573E-02 
423	 3.15089427055404E-02 
424	 0.031314026507736 
425	 0.031442267809616 
426	 3.18398285218837E-02 
427	 3.14971145141643E-02 
428	 3.14306732252478E-02 
429	 0.03217442443668 
430	 0.032409079541416 
431	 3.21838063434867E-02 
432	 3.18707249185308E-02 
433	 3.19864529824045E-02 
434	 3.23667458633538E-02 
435	 3.17725131215842E-02 
436	 0.03139548460039 
437	 3.18949758246424E-02 
438	 3.15071929583895E-02 
439	 3.09758335742644E-02 
440	 3.21787168793171E-02 
441	 3.28186711433595E-02 
442	 3.24730722377804E-02 
443	 3.26205369244769E-02 
444	 3.25930869363196E-02 
445	 3.19162784421428E-02 
446	 3.19778530669852E-02 
447	 3.24784318710207E-02 
448	 3.22174183068985E-02 
449	 3.21058150794167E-02 
450	 3.23042831107215E-02 
451	 3.20783803836184E-02 
452	 3.17797348592866E-02 
453	 3.17911047774932E-02 
454	 3.19543579991536E-02 
455	 3.21651337163754E-02 
456	 3.22225652499036E-02 
457	 3.23154197934569E-02 
458	 3.24563976852596E-02 
459	 3.22470497973423E-02 
460	 3.20470475268674E-02 
461	 3.23056840557344E-02 
462	 3.25624251718734E-02 
463	 3.27101119728173E-02 
464	 3.28355887048496E-02 
465	 3.26581509810542E-02 
466	 3.21489625456745E-02 
467	 3.21749713585931E-02 
468	 3.24282020941191E-02 
469	 3.23093167529145E-02 
470	 3.21379606506972E-02 
471	 3.20586910251047E-02 
472	 0.032294501986542 
473	 3.25244690729067E-02 
474	 3.25348141909578E-02 
475	 0.032447805491382 
476	 3.22548295687683E-02 
477	 3.18475564564045E-02 
478	 3.23185077481985E-02 
479	 3.34362244478084E-02 
480	 3.28447004175367E-02 
481	 3.21795760929065E-02 
482	 3.27158922636888E-02 
483	 3.25869983901606E-02 
484	 3.21120343776114E-02 
485	 3.28402822043134E-02 
486	 3.32575789602184E-02 
487	 3.29977286409739E-02 
488	 3.33235906171408E-02 
489	 3.35715372315238E-02 
490	 3.30404835919324E-02 
491	 0.032788408907425 
492	 3.30427055071759E-02 
493	 3.40238929129874E-02 
494	 3.39493669967945E-02 
495	 0.032433010158848 
496	 3.24659631555257E-02 
497	 3.32652333817735E-02 
498	 3.34465822072153E-02 
499	 3.34986760788289E-02 
500	 3.34528189273983E-02 
501	 3.30925568045488E-02 
502	 3.29009069426903E-02 
503	 3.31473453943289E-02 
504	 3.34465807742309E-02 
505	 3.35910746671768E-02 
506	 3.32810002679754E-02 
507	 3.38030454744785E-02 
508	 3.50360361066129E-02 
509	 0.035024761402869 
510	 3.45002236822702E-02 
511	 0.034128287880927 
512	 0.034081690646983 
513	 3.42532963047592E-02 
514	 3.42927837340613E-02 
515	 3.42078623092147E-02 
516	 3.41594810951358E-02 
517	 3.51296219616573E-02 
518	 3.58556926699567E-02 
519	 3.49913344509969E-02 
520	 3.46196241639927E-02 
521	 3.49436804273488E-02 
522	 3.52469251611029E-02 
523	 3.54927194683062E-02 
524	 3.56877270678929E-02 
525	 3.62517888430984E-02 
526	 0.036645641307338 
527	 3.60497037670917E-02 
528	 3.59334087930229E-02 
529	 3.64595056007773E-02 
530	 3.67742623929484E-02 
531	 3.68246764364053E-02 
532	 3.66553869594019E-02 
533	 3.70358812796006E-02 
534	 3.77246112605669E-02 
535	 3.80786530785096E-02 
536	 3.79324555334634E-02 
537	 3.74481774888527E-02 
538	 3.77544825447028E-02 
539	 3.79920202672276E-02 
540	 3.73559582443106E-02 
541	 0.03757105812743 
542	 3.83544930839372E-02 
543	 3.80167488440122E-02 
544	 3.77657515172266E-02 
545	 3.80185743334958E-02 
546	 3.80493931220062E-02 
547	 0.038054836468587 
548	 0.038370885531717 
549	 3.83016125895743E-02 
550	 3.79630452292251E-02 
551	 3.83256894224962E-02 
552	 3.88511541933171E-02 
553	 3.91700134180268E-02 
554	 3.92676269068213E-02 
555	 3.92241488215615E-02 
556	 3.91897202542724E-02 
557	 3.92551547470115E-02 
558	 0.03945929809573 
559	 3.98142611344883E-02 
560	 3.99829810673225E-02 
561	 3.96775770542958E-02 
562	 3.92392195437417E-02 
563	 3.89128070882684E-02 
564	 3.90499389567984E-02 
565	 3.96188703138926E-02 
566	 4.03842160213027E-02 
567	 4.00814692448719E-02 
568	 3.95162724596617E-02 
569	 3.98594448991881E-02 
570	 4.00119552204932E-02 
571	 3.98570166030613E-02 
572	 3.99460100285707E-02 
573	 4.00323078656552E-02 
574	 3.99856102232124E-02 
575	 4.00123007207334E-02 
576	 4.00856189035954E-02 
577	 4.01000004247301E-02 
578	 4.01765538891157E-02 
579	 4.03509792853368E-02 
580	 0.040666940586314 
581	 4.07202355907582E-02 
582	 4.02244361369004E-02 
583	 4.02379453161324E-02 
584	 4.06310021662556E-02 
585	 4.05156981935532E-02 
586	 4.05311100658669E-02 
587	 4.08681784725807E-02 
588	 4.11734061652951E-02 
589	 4.11200878698064E-02 
590	 4.03494570042127E-02 
591	 4.01271154131277E-02 
592	 0.040422898174225 
593	 3.99024656142803E-02 
594	 3.98267668291777E-02 
595	 4.07783164170162E-02 
596	 4.11606183747054E-02 
597	 4.09928924239926E-02 
598	 4.06601271795111E-02 
599	 4.09014282130869E-02 
600	 4.15889165750404E-02 
601	 4.09032184219147E-02 
602	 4.03584624322966E-02 
603	 4.12532420167557E-02 
604	 4.17967442107669E-02 
605	 4.18964026165228E-02 
606	 4.22387664931275E-02 
607	 4.22742014720762E-02 
608	 4.18556713750552E-02 
609	 4.13573788850934E-02 
610	 4.12650619726312E-02 
611	 0.042106646892511 
612	 4.21227498288405E-02 
613	 4.14148112212501E-02 
614	 0.041873405256966 
615	 4.25871752935312E-02 
616	 4.29510104251729E-02 
617	 4.28458210303503E-02 
618	 0.042599987215331 
619	 4.28180841048495E-02 
620	 4.30823002311547E-02 
621	 4.32117357409217E-02 
622	 4.29825701122612E-02 
623	 4.27664290157233E-02 
624	 4.28748778582542E-02 
625	 0.042643068628282 
626	 4.22983044105115E-02 
627	 4.27342715145946E-02 
628	 4.33075180485194E-02 
629	 4.36741028931508E-02 
630	 4.34770545191917E-02 
631	 4.32845778344729E-02 
632	 4.38244798321312E-02 
633	 4.43975845199069E-02 
634	 4.47507461996539E-02 
635	 4.47037893001633E-02 
636	 4.44734582834768E-02 
637	 4.42417830138817E-02 
638	 4.42909787717696E-02 
639	 4.43701535486248E-02 
640	 4.39334114527819E-02 
641	 4.37906632695391E-02 
642	 4.41580556738338E-02 
643	 4.49055285854064E-02 
644	 4.49895940545698E-02 
645	 4.36701167670423E-02 
646	 4.38656532088539E-02 
647	 4.50802724625951E-02 
648	 4.43951292350833E-02 
649	 4.39648970173502E-02 
650	 4.44863947299361E-02 
651	 4.48918727349811E-02 
652	 4.49791276128985E-02 
653	 4.46278695562726E-02 
654	 4.49481769724383E-02 
655	 4.57336063222543E-02 
656	 4.51765678187486E-02 
657	 4.45351422779938E-02 
658	 4.45229591628764E-02 
659	 4.41467526906725E-02 
660	 4.37803180835973E-02 
661	 0.044206858082886 
662	 4.44330481437964E-02 
663	 4.43683560104856E-02 
664	 4.50424464204152E-02 
665	 4.53189662203378E-02 
666	 4.43536086945455E-02 
667	 4.41416406042056E-02 
668	 4.45350069665605E-02 
669	 4.42318782259484E-02 
670	 0.044038372267228 
671	 4.42580598755016E-02 
672	 4.49940935391753E-02 
673	 4.54932234026058E-02 
674	 4.49377723354571E-02 
675	 4.50878249486398E-02 
676	 4.57353195457151E-02 
677	 4.47980175870804E-02 
678	 4.44704482846465E-02 
679	 4.57809261234925E-02 
680	 0.047018713135301 
681	 4.76152131170962E-02 
682	 4.70245260017419E-02 
683	 4.66789746404967E-02 
684	 4.70759002736916E-02 
685	 4.83087308322155E-02 
686	 4.94221299185769E-02 
687	 4.96119168843994E-02 
688	 5.06633633053065E-02 
689	 5.19976121292327E-02 
690	 5.18007651652873E-02 
691	 5.20338581920918E-02 
692	 5.30363042721967E-02 
693	 5.30397268444548E-02 
694	 5.33091245058826E-02 
695	 5.51540655828409E-02 
696	 5.65882491320459E-02 
697	 5.75562726594605E-02 
698	 5.92364446972917E-02 
699	 6.03460967924366E-02 
700	 6.04936384510759E-02 
701	 6.17462563247792E-02 
702	 6.30592881485141E-02 
703	 6.27195123493416E-02 
704	 6.33921131223921E-02 
705	 6.51337264737719E-02 
706	 6.57911116581757E-02 
707	 0.066188736472048 
708	 6.68497957982004E-02 
709	 6.74879573180012E-02 
710	 6.81117398069694E-02 
711	 6.88146864308769E-02 
712	 6.92545136608358E-02 
713	 6.94671455592223E-02 
714	 7.00641793325054E-02 
715	 0.070968153405829 
716	 7.20977768269213E-02 
717	 7.24818489411939E-02 
718	 7.24928337077008E-02 
719	 7.41728693480059E-02 
720	 7.54509199092051E-02 
721	 7.55926162986552E-02 
722	 7.52240654908874E-02 
723	 7.52100370711121E-02 
724	 7.64909805374357E-02 
725	 7.73919973579693E-02 
726	 7.76942582903514E-02 
727	 7.82900355589089E-02 
728	 7.91567691656096E-02 
729	 0.080149514993992 
730	 8.02349331341074E-02 
731	 8.01199989082857E-02 
732	 8.08990642771932E-02 
733	 8.14798096690669E-02 
734	 8.16870842327033E-02 
735	 8.16765418594495E-02 
736	 8.19621295787422E-02 
737	 8.27997068467664E-02 
738	 8.32561348191535E-02 
739	 8.33910744369419E-02 
740	 8.35183078683714E-02 
741	 8.42464781967851E-02 
742	 8.54437792809929E-02 
743	 8.56946287747644E-02 
744	 8.57485623459486E-02 
745	 8.62852493003679E-02 
746	 8.72077506430972E-02 
747	 8.80510005100365E-02 
748	 8.76823137072276E-02 
749	 0.087671150042374 
750	 0.088526024430009 
751	 8.95126879547206E-02 
752	 9.04192002288802E-02 
753	 0.091074310246206 
754	 9.14254705707817E-02 
755	 9.16195785350775E-02 
756	 9.21630493307369E-02 
757	 9.21830629941637E-02 
758	 9.14948569608951E-02 
759	 9.23719659670564E-02 
760	 9.50718124015683E-02 
761	 9.63088547497721E-02 
762	 9.70148069514333E-02 
763	 0.097375587982558 
764	 9.67658621221551E-02 
765	 9.67295525736199E-02 
766	 9.74591467425801E-02 
767	 9.71654811246614E-02 
768	 9.68966763706859E-02 
769	 9.79951758982899E-02 
770	 9.84746132559566E-02 
771	 0.098411019971027 
772	 9.99976071874423E-02 
773	 0.101156326257038 
774	 0.100647769809299 
775	 0.100532062319054 
776	 0.101073289162338 
777	 0.102216294267996 
778	 0.102902408352063 
779	 0.102952250852145 
780	 0.103192122155729 
781	 0.10376816978929 
782	 0.104735924953327 
783	 0.105608460043446 
784	 0.106164480303939 
785	 0.106107977243567 
786	 0.106319847417139 
787	 0.107039277666762 
788	 0.107700114268297 
789	 0.108313281433058 
790	 0.108882631085571 
791	 0.10913300433751 
792	 0.109126755547792 
793	 0.109059131356791 
794	 0.109313013610244 
795	 0.110144181858039 
796	 0.112082597894467 
797	 0.113272709627462 
798	 0.112039224937935 
799	 0.112100218783015 
800	 0.113455813728032 
801	 0.113942595692439 
802	 0.114620948234712 
803	 0.11569047830654 
804	 0.116243359164475 
805	 0.116755497449736 
806	 0.11775828378482 
807	 0.118013439498981 
808	 0.117898635110373 
809	 0.119179609774403 
810	 0.120837286202251 
811	 0.122101827727874 
812	 0.121145055158598 
813	 0.119957754088274 
814	 0.121402041989567 
815	 0.122567770641628 
816	 0.123232530458597 
817	 0.125354326373012 
818	 0.126542241419935 
819	 0.126165851610634 
820	 0.126892024427031 
821	 0.127685867743495 
822	 0.127144589811983 
823	 0.127996895882859 
824	 0.129721742715588 
825	 0.12915906213999 
826	 0.128529475874443 
827	 0.12889613481798 
828	 0.130758404096133 
829	 0.132267825290624 
830	 0.131246017867068 
831	 0.13217460540959 
832	 0.134915918749168 
833	 0.136481079778963 
834	 0.136466931942337 
835	 0.135033522932334 
836	 0.134431111251251 
837	 0.134772386755326 
838	 0.135921981856588 
839	 0.138083163274278 
840	 0.140127018571407 
841	 0.138747623673854 
842	 0.138449386283472 
843	 0.140593570202984 
844	 0.14067368909764 
845	 0.140359744005284 
846	 0.141839034476985 
847	 0.142837668163231 
848	 0.143208626136658 
849	 0.14399544024208 
850	 0.144234862116964 
851	 0.143871078067333 
852	 0.144862235054508 
853	 0.146055726685489 
854	 0.146129313136724 
855	 0.146557548347025 
856	 0.147512052860306 
857	 0.148752946413351 
858	 0.149704080344584 
859	 0.150269710514356 
860	 0.151472406258904 
861	 0.151543990537611 
862	 0.14915113875893 
863	 0.150460538863811 
864	 0.153986181540591 
865	 0.153384657547598 
866	 0.153229022842193 
867	 0.154460935959175 
868	 0.154035001527166 
869	 0.15382954603945 
870	 0.155388376834403 
871	 0.157558682927111 
872	 0.159250208927381 
873	 0.158679702328025 
874	 0.159198233929258 
875	 0.161312517739316 
876	 0.162640044894928 
877	 0.163045813405732 
878	 0.162646149257617 
879	 0.163125977264938 
880	 0.164227691941 
881	 0.16511528093527 
882	 0.165650045844496 
883	 0.166322641827847 
884	 0.169270385090975 
885	 0.171257715532679 
886	 0.170550196980931 
887	 0.168791714626465 
888	 0.167797727670543 
889	 0.16960119503327 
890	 0.169315119910988 
891	 0.167818805418393 
892	 0.171804782208619 
893	 0.176195037028644 
894	 0.178414472080445 
895	 0.179192180990666 
896	 0.178214462789636 
897	 0.175495869318791 
898	 0.176981309659008 
899	 0.181248085459969 
900	 0.181484456104377 
901	 0.180727029200168 
902	 0.179732726009346 
903	 0.177198366829544 
904	 0.176347572482825 
905	 0.17929643456676 
906	 0.18096315354142 
907	 0.181313968455578 
908	 0.181716050175868 
909	 0.182540151056408 
910	 0.18373153585235 
911	 0.184544489010932 
912	 0.184228001907529 
913	 0.183186463874553 
914	 0.18703506791933 
915	 0.191310802476807 
916	 0.190220436175713 
917	 0.186392004348082 
918	 0.183412147083313 
919	 0.189494083251164 
920	 0.193027381355305 
921	 0.191106358825513 
922	 0.191627925360936 
923	 0.192986823731699 
924	 0.193380851148593 
925	 0.192324791682014 
926	 0.191082315124383 
927	 0.192616816517985 
928	 0.196432047934261 
929	 0.200832591137301 
930	 0.198031254095895 
931	 0.197444727744592 
932	 0.205281037971464 
933	 0.201203810607551 
934	 0.194128524832848 
935	 0.201742404812013 
936	 0.204107566244778 
937	 0.197065949961442 
938	 0.18116429558222 
939	 0.183509706627497 
940	 0.204243776885675 
941	 0.202968215794466 
942	 0.195566916065058 
943	 0.194569419297568 
944	 0.196923082817793 
945	 0.197985971967581 
946	 0.190942978913208 
947	 0.18775765065618 
948	 0.192573766738611 
949	 0.208158973162506 
950	 0.214497558449148 
951	 0.205795844151476 
952	 0.198524733062525 
953	 0.192137176653797 
954	 0.187187080223065 
955	 0.200115472327118 
956	 0.218599642173731 
957	 0.217380524839601 
958	 0.210163717873868 
959	 0.201917665430297 
960	 0.193621580810678 
961	 0.193979497210872 
962	 0.203857546255382 
963	 0.203735546710362 
964	 0.202755735652122 
965	 0.210357396129247 
966	 0.212870818038321 
967	 0.210915384879067 
968	 0.209426201685477 
969	 0.214667026310156 
970	 0.22181406427538 
971	 0.2059418847678 
972	 0.198639594120298 
973	 0.213474482779465 
974	 0.213969194853844 
975	 0.209923953427403 
976	 0.215066554841183 
977	 0.208984352427496 
978	 0.200451476637726 
979	 0.216592631139148 
980	 0.218726648267137 
981	 0.204808287424135 
982	 0.213703426227441 
983	 0.218023081079745 
984	 0.206647052477101 
985	 0.204861819927282 
986	 0.210906503426475 
987	 0.21976147281301 
988	 0.226297947555083 
989	 0.225636727181035 
990	 0.209976327055058 
991	 0.208589086574215 
992	 0.22300716099059 
993	 0.226272077258618 
994	 0.224751523669346 
995	 0.222076819883889 
996	 0.222019886667525 
997	 0.221284730573227 
998	 0.217413670625786 
999	 0.224139733424705 
1000	 0.232997737189115 
1001	 0.226393267190116 
1002	 0.225431224214385 
1003	 0.230961147515906 
1004	 0.225883921272418 
1005	 0.226096215759222 
1006	 0.235678618234494 
1007	 0.242332241155775 
1008	 0.241833483833859 
1009	 0.232816474826546 
1010	 0.232560891105023 
1011	 0.232828090173629 
1012	 0.220076234171937 
1013	 0.219127355370626 
1014	 0.229102890227797 
1015	 0.234333983526638 
1016	 0.236437304372875 
1017	 0.236671737793136 
1018	 0.241185698951367 
1019	 0.240370166388054 
1020	 0.230641524300394 
1021	 0.226636392842377 
1022	 0.228113684960306 
1023	 0.232460278763794 
1024	 0.23240263422278 
1025	 0.226280014442767 
1026	 0.21429278549241 
1027	 0.218305461304882 
1028	 0.234049378234759 
1029	 0.232247785574983 
1030	 0.227208943307997 
1031	 0.224795572380019 
1032	 0.22791268617906 
1033	 0.235849518719926 
1034	 0.246262385471353 
1035	 0.256905946650837 
1036	 0.258235608062554 
1037	 0.242360689363452 
1038	 0.242973218252995 
1039	 0.248210159851099 
1040	 0.226789132223601 
1041	 0.224595337734184 
1042	 0.243696299032388 
1043	 0.256542251226486 
1044	 0.244789058893532 
1045	 0.211373155261364 
1046	 0.209833870217895 
1047	 0.205541469375286 
1048	 0.185329895422955 
1049	 0.201958248132018 
1050	 0.233868107566812 
1051	 0.255112131785238 
1052	 0.248514110949086 
1053	 0.239288374301669 
1054	 0.270842730277509 
1055	 0.267459175452291 
1056	 0.233938592604146 
1057	 0.221868804212071 
1058	 0.196635916025451 
1059	 0.172569520472958 
1060	 0.222886030697276 
1061	 0.275235807264055 
1062	 0.294589831613475 
1063	 0.264013980373706 
1064	 0.223476755955264 
1065	 0.198138620947778 
1066	 0.209743170924178 
1067	 0.236172311340542 
1068	 0.243793906859905 
1069	 0.211154170267354 
1070	 0.180534984100325 
1071	 0.237783128192435 
1072	 0.217377037364405 
1073	 0.139609171943412 
1074	 0.201055079413398 
1075	 0.218215866598088 
