Wavelength	SHSI00211.asd
325	 0.120091702883307 
326	 0.108061007475229 
327	 9.14615867229221E-02 
328	 0.101107865203718 
329	 0.108112160590374 
330	 0.102877582750984 
331	 9.72564790088036E-02 
332	 9.55277656228809E-02 
333	 0.100369867625892 
334	 0.106429567424444 
335	 0.110951859925278 
336	 0.111005700116062 
337	 0.110421805061056 
338	 0.109506330970828 
339	 0.103183021342731 
340	 9.82720045147352E-02 
341	 9.98294462747851E-02 
342	 0.100087990919528 
343	 0.101209234752685 
344	 0.110172766144489 
345	 0.113876055069526 
346	 0.110847163564163 
347	 0.109579459254585 
348	 0.109954594539823 
349	 0.111469313873199 
350	 0.112340318176553 
351	 0.112395611657915 
352	 0.111898550877795 
353	 0.109471875683108 
354	 0.106580292643682 
355	 0.109448633001212 
356	 0.112825821885884 
357	 0.113525300355876 
358	 0.114404029455757 
359	 0.114912271561027 
360	 0.11377291939547 
361	 0.113702820268745 
362	 0.114398626844675 
363	 0.112369116462403 
364	 0.111078195362161 
365	 0.112202999847375 
366	 0.113526597042292 
367	 0.115067201098485 
368	 0.117152813674938 
369	 0.118677708775674 
370	 0.11937630647316 
371	 0.119163473611699 
372	 0.119723793946651 
373	 0.121555186209499 
374	 0.121626928221576 
375	 0.11927290664632 
376	 0.114227538526431 
377	 0.111853812546454 
378	 0.112975788280694 
379	 0.115796567833832 
380	 0.117419129102416 
381	 0.116553611553748 
382	 0.116901634515422 
383	 0.117250315505723 
384	 0.115570973825317 
385	 0.114723317768404 
386	 0.114479323337072 
387	 0.111826920471853 
388	 0.110185715536723 
389	 0.110706746247141 
390	 0.110071444917322 
391	 0.110651931624746 
392	 0.115375190952822 
393	 0.115309769330686 
394	 0.111131978123001 
395	 0.11086393384535 
396	 0.110013340453203 
397	 0.10723614183286 
398	 0.104872554636771 
399	 0.10414427097855 
400	 0.105861830179258 
401	 0.10594634803532 
402	 0.105194798592398 
403	 0.107947314548204 
404	 0.109678082876901 
405	 0.10892907653827 
406	 0.109454822428104 
407	 0.110140284370997 
408	 0.109257000667304 
409	 0.108464370057036 
410	 0.108221096992232 
411	 0.108748719977504 
412	 0.108998940320236 
413	 0.108547355197773 
414	 0.108146714704267 
415	 0.10814613446718 
416	 0.108882402105558 
417	 0.108701511973496 
418	 0.107878228449453 
419	 0.108656607876011 
420	 0.109040056449615 
421	 0.108127103667375 
422	 0.107608030547482 
423	 0.107730342096975 
424	 0.108564059728864 
425	 0.108678072212484 
426	 0.108198436776047 
427	 0.109089535540707 
428	 0.110090509489157 
429	 0.11027575602405 
430	 0.109567425211702 
431	 0.108401999623957 
432	 0.107470300931383 
433	 0.107118585429957 
434	 0.107258717090958 
435	 0.107059259062835 
436	 0.107307904707144 
437	 0.108406411269306 
438	 0.109030056631964 
439	 0.108995935861185 
440	 0.10825559511963 
441	 0.108426840123566 
442	 0.109585570057687 
443	 0.109617062743067 
444	 0.109845368831316 
445	 0.111239611533669 
446	 0.111523812851602 
447	 0.111030261733296 
448	 0.111287663962361 
449	 0.111846164882588 
450	 0.112501867937838 
451	 0.112753140835007 
452	 0.113214153158466 
453	 0.114482776916356 
454	 0.115715083312198 
455	 0.116501096503216 
456	 0.11629269342103 
457	 0.115903394569041 
458	 0.115799850535855 
459	 0.116272862532621 
460	 0.11698532009478 
461	 0.117495442695222 
462	 0.117315340497138 
463	 0.116917718110723 
464	 0.118174361802395 
465	 0.119127927736149 
466	 0.118939410251604 
467	 0.119552360821461 
468	 0.120293649334134 
469	 0.119894578665009 
470	 0.11959147816649 
471	 0.119754105958048 
472	 0.120395789711143 
473	 0.12115954348365 
474	 0.12177354318123 
475	 0.122178733233041 
476	 0.122326438969279 
477	 0.122130143684498 
478	 0.122239304844988 
479	 0.122759576563749 
480	 0.12312691873655 
481	 0.12372830335026 
482	 0.124804952083466 
483	 0.125167750516893 
484	 0.125174209441126 
485	 0.126305006281491 
486	 0.126681965554368 
487	 0.125800030084871 
488	 0.124888573452764 
489	 0.124296075776325 
490	 0.124269353213914 
491	 0.124785407802741 
492	 0.125534852330318 
493	 0.125760349341994 
494	 0.126116671064191 
495	 0.126813854904149 
496	 0.127265580580406 
497	 0.127831080592163 
498	 0.129036540470187 
499	 0.129870672257917 
500	 0.130246923691179 
501	 0.130841445460282 
502	 0.131311827654381 
503	 0.131524034480275 
504	 0.13204146317809 
505	 0.132792071251095 
506	 0.133506361282078 
507	 0.134542437332495 
508	 0.135932221818743 
509	 0.137388982846829 
510	 0.138864253319465 
511	 0.140296677797458 
512	 0.141416181956057 
513	 0.142305068217748 
514	 0.143153115207975 
515	 0.14454123247105 
516	 0.14636472971886 
517	 0.146785973173143 
518	 0.146864185500564 
519	 0.147840661432982 
520	 0.148458942666915 
521	 0.148914448698974 
522	 0.150316764425315 
523	 0.152064037005072 
524	 0.153858285288726 
525	 0.155712407032422 
526	 0.15721170968816 
527	 0.15778675806859 
528	 0.15850128455123 
529	 0.159569023624101 
530	 0.160603101283831 
531	 0.161805602157496 
532	 0.163229849054033 
533	 0.164070467405831 
534	 0.164626276967409 
535	 0.165702758475353 
536	 0.166852189422812 
537	 0.167977885501709 
538	 0.169211455194197 
539	 0.170571576093461 
540	 0.172020680847187 
541	 0.172775462205035 
542	 0.173028302415774 
543	 0.173615463673836 
544	 0.174681417788891 
545	 0.176186872563341 
546	 0.177278065407219 
547	 0.178185088697557 
548	 0.17931750033919 
549	 0.180125521551034 
550	 0.180687741431291 
551	 0.181712334400576 
552	 0.18273750108821 
553	 0.183521905847342 
554	 0.184660625345654 
555	 0.185933620748887 
556	 0.186794834987679 
557	 0.187718239430153 
558	 0.188639175358374 
559	 0.188593551941999 
560	 0.188558862082443 
561	 0.189435054940961 
562	 0.190422959389306 
563	 0.19135880364268 
564	 0.192296896096207 
565	 0.192925264765447 
566	 0.19316592382608 
567	 0.193459113528219 
568	 0.193811624970004 
569	 0.194173921601565 
570	 0.194520445576459 
571	 0.194773670527334 
572	 0.194682434031299 
573	 0.194746625830475 
574	 0.195252841267605 
575	 0.195741135611403 
576	 0.196304009448228 
577	 0.197256015958075 
578	 0.197916654417484 
579	 0.198118991780845 
580	 0.198210844805614 
581	 0.198419984299278 
582	 0.198923288958405 
583	 0.19951833255935 
584	 0.199940291967531 
585	 0.199527357114573 
586	 0.199597027381388 
587	 0.200535197344327 
588	 0.201040269260076 
589	 0.201045355142192 
590	 0.200644010537763 
591	 0.200760531677966 
592	 0.201409490808609 
593	 0.201888747160939 
594	 0.201941543930304 
595	 0.201565688698551 
596	 0.202123845589768 
597	 0.203225749902048 
598	 0.203933799778651 
599	 0.203796495976132 
600	 0.20302904770101 
601	 0.203379029815048 
602	 0.203773967816944 
603	 0.203316122540407 
604	 0.203766184242603 
605	 0.204818707559137 
606	 0.204991304157302 
607	 0.204768204666076 
608	 0.204332453403178 
609	 0.203858476378903 
610	 0.203281307047074 
611	 0.202495992120872 
612	 0.202493526985823 
613	 0.202933402489088 
614	 0.201817798035246 
615	 0.200846254547589 
616	 0.200956954153078 
617	 0.200643397363271 
618	 0.200102440406219 
619	 0.200027523028402 
620	 0.199829183343631 
621	 0.199485187157044 
622	 0.199692959828567 
623	 0.199850271241095 
624	 0.199456293755561 
625	 0.199590425368699 
626	 0.200110953431654 
627	 0.200052475184308 
628	 0.200411688251602 
629	 0.201357563511073 
630	 0.20156130804972 
631	 0.201177462929273 
632	 0.200563377439396 
633	 0.200377096969091 
634	 0.200739189936391 
635	 0.201408939495816 
636	 0.201898582578723 
637	 0.201957711355918 
638	 0.202186518979363 
639	 0.202774972491133 
640	 0.203964556464378 
641	 0.204483985809961 
642	 0.20411776285519 
643	 0.203850159937643 
644	 0.204076214714058 
645	 0.205037189845032 
646	 0.205522961338985 
647	 0.205424639843955 
648	 0.205171275989605 
649	 0.204732590184072 
650	 0.204140199316789 
651	 0.203431663180484 
652	 0.202637128463428 
653	 0.201776398048483 
654	 0.201212450381765 
655	 0.200593484614237 
656	 0.198689930369019 
657	 0.1959975171418 
658	 0.193173341287403 
659	 0.191421710706229 
660	 0.190144611763633 
661	 0.188260914574325 
662	 0.185947000419967 
663	 0.183376255599034 
664	 0.181239494612326 
665	 0.178929156893975 
666	 0.17600575754764 
667	 0.173741942004704 
668	 0.172201012169412 
669	 0.170990691726721 
670	 0.169583671908445 
671	 0.167971760736538 
672	 0.167524262692655 
673	 0.167430171020984 
674	 0.166656106288183 
675	 0.166121892312109 
676	 0.166160703291851 
677	 0.167148997938197 
678	 0.168204592087616 
679	 0.168872959629577 
680	 0.169608873877282 
681	 0.170949214001113 
682	 0.173635200907638 
683	 0.176599451343347 
684	 0.1796103570621 
685	 0.18328902273565 
686	 0.187725569806448 
687	 0.192874534850831 
688	 0.197984894984736 
689	 0.202869894285386 
690	 0.208640211117954 
691	 0.214395920335218 
692	 0.22014889295795 
693	 0.226863177840033 
694	 0.233639159280906 
695	 0.239256819439837 
696	 0.245500669247187 
697	 0.252153073006333 
698	 0.257944725672015 
699	 0.263414809450697 
700	 0.268661851923239 
701	 0.273449830046569 
702	 0.277872706550922 
703	 0.282134510192219 
704	 0.286047578094808 
705	 0.289648431542106 
706	 0.292950150051831 
707	 0.296259498459066 
708	 0.299703516314044 
709	 0.302662806384005 
710	 0.305323058803752 
711	 0.308161477158366 
712	 0.310973841850145 
713	 0.313642556612877 
714	 0.315977959956935 
715	 0.318080335233876 
716	 0.320194256680035 
717	 0.322749172730969 
718	 0.325662904169161 
719	 0.327956874863705 
720	 0.329611945033181 
721	 0.330676231968756 
722	 0.331459413059297 
723	 0.33266558617603 
724	 0.334977778014752 
725	 0.336757285908789 
726	 0.337811515387779 
727	 0.339363575600825 
728	 0.340633229277901 
729	 0.341472377942293 
730	 0.343672546959893 
731	 0.345872826128657 
732	 0.346019335763235 
733	 0.346101137541975 
734	 0.346713173152105 
735	 0.348085159475485 
736	 0.349417202324857 
737	 0.350183268633174 
738	 0.351198233815235 
739	 0.352487269462029 
740	 0.353911229210375 
741	 0.354952134292345 
742	 0.355532554889205 
743	 0.356153262390796 
744	 0.35678756959158 
745	 0.357409121239726 
746	 0.358041270435248 
747	 0.358807917437155 
748	 0.360037643420681 
749	 0.361098480613423 
750	 0.361829497341085 
751	 0.362838878783761 
752	 0.363818791394953 
753	 0.36441022844712 
754	 0.364806037121532 
755	 0.365220073665731 
756	 0.366414684734377 
757	 0.365907057264881 
758	 0.363093815729028 
759	 0.363700817716467 
760	 0.368988358979296 
761	 0.375063288583368 
762	 0.377545392036737 
763	 0.377195904361858 
764	 0.379173513307922 
765	 0.38001419152503 
766	 0.378935461927228 
767	 0.377942797700923 
768	 0.377575288574867 
769	 0.378351165381096 
770	 0.378748508313462 
771	 0.378696989966788 
772	 0.37937309927204 
773	 0.380464976049679 
774	 0.381656616938711 
775	 0.382104130446999 
776	 0.382319076388823 
777	 0.38346529790075 
778	 0.384519792340345 
779	 0.385243814184101 
780	 0.386036560091649 
781	 0.38674821422971 
782	 0.387290308082142 
783	 0.388062463604273 
784	 0.388990485394418 
785	 0.389761828935458 
786	 0.390630965014141 
787	 0.391488719660632 
788	 0.391364195822878 
789	 0.391486224977456 
790	 0.392926357064326 
791	 0.393660604088277 
792	 0.393872535111257 
793	 0.395002815597453 
794	 0.395832134510732 
795	 0.396190429063222 
796	 0.397565780630806 
797	 0.398625979863131 
798	 0.398100459181104 
799	 0.398541118203766 
800	 0.399965272005172 
801	 0.401080811962042 
802	 0.401662369530156 
803	 0.40176413366754 
804	 0.402604141789474 
805	 0.403568234944474 
806	 0.403936079890252 
807	 0.404684999866355 
808	 0.405612987818557 
809	 0.40545329727371 
810	 0.405886729767916 
811	 0.407373587769515 
812	 0.407754618158771 
813	 0.407750897118916 
814	 0.408558152979985 
815	 0.410429130383641 
816	 0.413114339305991 
817	 0.41573334776255 
818	 0.417294008059017 
819	 0.417329275064952 
820	 0.415790463275463 
821	 0.415430294032305 
822	 0.419283354622363 
823	 0.421338670073591 
824	 0.420834423796961 
825	 0.420028796007018 
826	 0.420202414996504 
827	 0.421802522965265 
828	 0.423129893224528 
829	 0.423888511440859 
830	 0.423972985726577 
831	 0.42463398766313 
832	 0.425747370275964 
833	 0.426153519854772 
834	 0.426053772721954 
835	 0.425774274753211 
836	 0.426670531319449 
837	 0.427805123909273 
838	 0.428017001379892 
839	 0.427759204743099 
840	 0.42747595104952 
841	 0.428096216693509 
842	 0.428987031820181 
843	 0.429712427700554 
844	 0.429633707208588 
845	 0.428936097711223 
846	 0.427987566448908 
847	 0.428810265020727 
848	 0.430652150018848 
849	 0.430099686553767 
850	 0.429233337762187 
851	 0.429118833958641 
852	 0.430512254564674 
853	 0.432517076890073 
854	 0.434028731307845 
855	 0.434786523431362 
856	 0.434492367846669 
857	 0.432338757492827 
858	 0.431887131526174 
859	 0.433700554310287 
860	 0.433516141047711 
861	 0.432802132755026 
862	 0.433167090339283 
863	 0.433928197563851 
864	 0.434889096477872 
865	 0.435809177357029 
866	 0.436963709387577 
867	 0.438383851859758 
868	 0.439990177790301 
869	 0.441014259334906 
870	 0.440940233319511 
871	 0.440751918245841 
872	 0.440778621794233 
873	 0.441198141742104 
874	 0.442673661873873 
875	 0.444922806191226 
876	 0.445923683125136 
877	 0.446919860027844 
878	 0.448915122003882 
879	 0.452399842991976 
880	 0.455498524199655 
881	 0.455153333202195 
882	 0.456320078088432 
883	 0.459145315005575 
884	 0.458996386736445 
885	 0.45925091574298 
886	 0.461422321898111 
887	 0.461981820234828 
888	 0.461609947152826 
889	 0.461700011860855 
890	 0.46118515883573 
891	 0.460451133050952 
892	 0.461280540626674 
893	 0.462221159941172 
894	 0.463010546727429 
895	 0.466373293957349 
896	 0.470303825299563 
897	 0.472228603008781 
898	 0.474867872724055 
899	 0.47879701085039 
900	 0.484774776797888 
901	 0.484232981234777 
902	 0.477060430695486 
903	 0.475747168865495 
904	 0.476779596515305 
905	 0.477249570858752 
906	 0.478854812575586 
907	 0.481099604749399 
908	 0.482842879159223 
909	 0.483468062262481 
910	 0.483386104444061 
911	 0.484912299179958 
912	 0.486803662226608 
913	 0.488415937703553 
914	 0.490558022675625 
915	 0.492951835538581 
916	 0.495092972022593 
917	 0.494207504346216 
918	 0.491416461754613 
919	 0.491174365687431 
920	 0.490999774397127 
921	 0.489960698546303 
922	 0.487611140174644 
923	 0.485866580556738 
924	 0.486223190028837 
925	 0.485904305688991 
926	 0.48402800469807 
927	 0.479516220256288 
928	 0.480735739462686 
929	 0.488304979477699 
930	 0.487342853395512 
931	 0.487689823043541 
932	 0.497312263654957 
933	 0.507508192193108 
934	 0.514819886686086 
935	 0.516933482266443 
936	 0.510038822095978 
937	 0.498961776224499 
938	 0.495251744241193 
939	 0.498269827873587 
940	 0.50459531245789 
941	 0.500884603515788 
942	 0.497009521595816 
943	 0.499788332332907 
944	 0.49883348727883 
945	 0.497894101435998 
946	 0.505061511221861 
947	 0.503733179782332 
948	 0.494492865978804 
949	 0.493920040157882 
950	 0.493217257212196 
951	 0.48991646533721 
952	 0.490863664096873 
953	 0.496328238918356 
954	 0.50486250433321 
955	 0.502444768141319 
956	 0.494138192304635 
957	 0.492640404829397 
958	 0.4987321194741 
959	 0.507773097430807 
960	 0.503699420981168 
961	 0.500179813616032 
962	 0.502750870008064 
963	 0.501480376073225 
964	 0.500317209666763 
965	 0.502971813287141 
966	 0.497502053040682 
967	 0.488315921488162 
968	 0.486884274534084 
969	 0.493651225292791 
970	 0.50441492123113 
971	 0.503386490293889 
972	 0.500940009787402 
973	 0.502326555595455 
974	 0.500819970100156 
975	 0.500745314087706 
976	 0.506749027388032 
977	 0.506317298885568 
978	 0.500163693094902 
979	 0.494436541443598 
980	 0.494889560799734 
981	 0.500737416005953 
982	 0.501016840182025 
983	 0.502263132643875 
984	 0.506342007180876 
985	 0.502092009517523 
986	 0.496102726892383 
987	 0.496635306995848 
988	 0.503498768116471 
989	 0.510994716482121 
990	 0.508121006964518 
991	 0.508063908254713 
992	 0.51109549920802 
993	 0.503171441476419 
994	 0.500061968080358 
995	 0.507295574799363 
996	 0.507575989196327 
997	 0.503108901234878 
998	 0.49827184199313 
999	 0.502689917467194 
1000	 0.510802791597806 
1001	 0.510507005308924 
1002	 0.508425584348484 
1003	 0.507524108185295 
1004	 0.511559034448144 
1005	 0.516362971763353 
1006	 0.51910219505569 
1007	 0.516535353238461 
1008	 0.512854088767558 
1009	 0.511493288832496 
1010	 0.508603342584803 
1011	 0.509274558150861 
1012	 0.520126521545205 
1013	 0.516962926476914 
1014	 0.506482315638558 
1015	 0.519051280957746 
1016	 0.521767263129294 
1017	 0.510297942238432 
1018	 0.509518929014778 
1019	 0.512920230488906 
1020	 0.516102312299675 
1021	 0.516068049236124 
1022	 0.514422361611194 
1023	 0.513979072369338 
1024	 0.524222017379225 
1025	 0.533310562199493 
1026	 0.520167801236816 
1027	 0.512257728842768 
1028	 0.513713248332218 
1029	 0.513816105208735 
1030	 0.51355651942255 
1031	 0.515349191185165 
1032	 0.531899995161961 
1033	 0.537446984994901 
1034	 0.520490820928957 
1035	 0.519093060557603 
1036	 0.525619225764219 
1037	 0.528456392166403 
1038	 0.539424268290697 
1039	 0.549613112943408 
1040	 0.541920829042574 
1041	 0.533814757515165 
1042	 0.525961504092964 
1043	 0.505051457405576 
1044	 0.501235180754341 
1045	 0.520232319536947 
1046	 0.537106416095583 
1047	 0.534646422352848 
1048	 0.509591564996594 
1049	 0.510995415548371 
1050	 0.520001538936484 
1051	 0.515515942850325 
1052	 0.529850778849899 
1053	 0.543522096020336 
1054	 0.520450613683218 
1055	 0.510523122255323 
1056	 0.516371609601792 
1057	 0.519494729549705 
1058	 0.531617034456828 
1059	 0.54445338760255 
1060	 0.516191378548676 
1061	 0.519279803611571 
1062	 0.566957651482343 
1063	 0.531898283621458 
1064	 0.479065721052701 
1065	 0.46249340384904 
1066	 0.486291405044963 
1067	 0.513023884696222 
1068	 0.508188209826761 
1069	 0.532370127128656 
1070	 0.562238358136362 
1071	 0.549807939204075 
1072	 0.521579621482447 
1073	 0.501732464693046 
1074	 0.510382216515704 
1075	 0.518723330919323 
