Wavelength	SHSI00388.asd
325	 6.27468685435422E-02 
326	 6.78886492883349E-02 
327	 7.64607079793605E-02 
328	 0.086386305556842 
329	 9.01102413273237E-02 
330	 8.58991044579797E-02 
331	 0.078421686780283 
332	 7.33633625974481E-02 
333	 7.51786205407057E-02 
334	 7.34494649349727E-02 
335	 6.92813666511465E-02 
336	 6.91384228210818E-02 
337	 7.13563363472938E-02 
338	 7.41280690900237E-02 
339	 7.21435527053583E-02 
340	 6.97591803292437E-02 
341	 7.04323588676447E-02 
342	 6.93297562662842E-02 
343	 6.77163149429606E-02 
344	 6.89224689519154E-02 
345	 7.26174684024066E-02 
346	 7.75780140295983E-02 
347	 0.080890021874167 
348	 7.99965703077836E-02 
349	 7.42680529229382E-02 
350	 7.13562456357564E-02 
351	 7.12984103983208E-02 
352	 7.24250128518335E-02 
353	 7.23398401747911E-02 
354	 7.15228933401547E-02 
355	 7.44295513486333E-02 
356	 7.72679912564445E-02 
357	 7.75532460165771E-02 
358	 7.46304034573284E-02 
359	 7.14953645488715E-02 
360	 7.25459503478803E-02 
361	 7.21987773219204E-02 
362	 7.02660525000854E-02 
363	 7.07482092491582E-02 
364	 7.16688498758145E-02 
365	 7.19275149147443E-02 
366	 7.19538096148455E-02 
367	 7.14194094408837E-02 
368	 0.06983335517339 
369	 7.04599786585771E-02 
370	 7.25736164770228E-02 
371	 7.10133645216855E-02 
372	 7.03749877856885E-02 
373	 7.25658026738748E-02 
374	 7.26160545314433E-02 
375	 7.11701224858111E-02 
376	 0.069854918918031 
377	 6.83301110816552E-02 
378	 6.73708758974711E-02 
379	 6.95567237032369E-02 
380	 7.06513569894086E-02 
381	 6.91263231494098E-02 
382	 7.03899521802429E-02 
383	 7.18620147313365E-02 
384	 6.95961879274226E-02 
385	 6.95770062605744E-02 
386	 7.18427031231375E-02 
387	 7.20911023030555E-02 
388	 7.13659570134434E-02 
389	 7.03605794767638E-02 
390	 7.03887284839128E-02 
391	 7.04002481153876E-02 
392	 6.90870525687882E-02 
393	 6.89141170775217E-02 
394	 0.069963991835582 
395	 7.12862077086993E-02 
396	 7.06386919031964E-02 
397	 6.77971410877375E-02 
398	 6.69554715193214E-02 
399	 6.69216754405804E-02 
400	 6.61089369121121E-02 
401	 6.65028405973652E-02 
402	 6.76930832722064E-02 
403	 6.80898828377238E-02 
404	 0.06775956284153 
405	 0.066990560046549 
406	 6.73435013985306E-02 
407	 6.84580157686253E-02 
408	 6.96832193850717E-02 
409	 6.97552049729123E-02 
410	 6.87966720338453E-02 
411	 6.79632716598563E-02 
412	 6.75071235503577E-02 
413	 6.76171812244237E-02 
414	 6.85276625208993E-02 
415	 6.92707834945355E-02 
416	 6.86483464139706E-02 
417	 6.83110058883496E-02 
418	 6.85654510409421E-02 
419	 6.91210265248534E-02 
420	 6.93244270840537E-02 
421	 6.89679519308484E-02 
422	 0.06941736873801 
423	 0.070012385623851 
424	 6.95946219496962E-02 
425	 6.92953330079284E-02 
426	 0.069395678865327 
427	 6.97950753918158E-02 
428	 7.01691042519061E-02 
429	 7.02845727603251E-02 
430	 7.01827484699876E-02 
431	 7.00684770863877E-02 
432	 7.02750307611744E-02 
433	 7.01920175123392E-02 
434	 6.98500628842321E-02 
435	 6.99172340753962E-02 
436	 7.01775263210585E-02 
437	 7.04355477967769E-02 
438	 7.03382403392711E-02 
439	 7.01145646508621E-02 
440	 7.02765828128752E-02 
441	 7.04800402787157E-02 
442	 7.06170938244968E-02 
443	 7.06937748301524E-02 
444	 7.07261791917884E-02 
445	 7.07579945381668E-02 
446	 7.11503797417567E-02 
447	 7.16340526604382E-02 
448	 7.14760707570951E-02 
449	 7.13718063644955E-02 
450	 7.15472328023056E-02 
451	 7.18507713160596E-02 
452	 7.21642991843754E-02 
453	 7.23713049668248E-02 
454	 0.072352461722852 
455	 7.22790506762369E-02 
456	 7.27373408404461E-02 
457	 7.28215724910174E-02 
458	 7.23853330647836E-02 
459	 7.29302864711714E-02 
460	 7.35974180427537E-02 
461	 7.32619001004599E-02 
462	 7.31324795984634E-02 
463	 7.32987971027306E-02 
464	 7.31029820632043E-02 
465	 7.31736687890266E-02 
466	 7.37062868031883E-02 
467	 7.36671399332048E-02 
468	 7.34041714867502E-02 
469	 7.35978034106153E-02 
470	 7.34538718043485E-02 
471	 7.30381702429543E-02 
472	 7.32894385927375E-02 
473	 7.35434894590104E-02 
474	 7.34416904607637E-02 
475	 7.37329547250419E-02 
476	 0.074274132544478 
477	 7.46967725943412E-02 
478	 7.45046294167242E-02 
479	 7.39070550266455E-02 
480	 7.44382973143728E-02 
481	 7.50059380400133E-02 
482	 7.47430887625946E-02 
483	 7.46141270442236E-02 
484	 7.47159154005666E-02 
485	 7.48929374493504E-02 
486	 7.50133890849106E-02 
487	 7.50589743895424E-02 
488	 7.53570689251517E-02 
489	 7.54004629345971E-02 
490	 7.47327964775691E-02 
491	 7.46666421197508E-02 
492	 7.51093519483753E-02 
493	 7.50682850450727E-02 
494	 7.50993769458172E-02 
495	 7.53838824140028E-02 
496	 0.075545031277714 
497	 7.57323466520872E-02 
498	 7.61820794264521E-02 
499	 7.62248067398871E-02 
500	 7.59452724180195E-02 
501	 7.62047221846372E-02 
502	 7.65152543365215E-02 
503	 7.66289772820509E-02 
504	 7.70707030065002E-02 
505	 7.76083133472206E-02 
506	 7.77813998141909E-02 
507	 7.77189559799305E-02 
508	 7.76191322060112E-02 
509	 7.80622823273587E-02 
510	 7.86860501549058E-02 
511	 7.91883696193437E-02 
512	 7.97274306451851E-02 
513	 8.02846853190803E-02 
514	 8.07878372957695E-02 
515	 8.12271766041826E-02 
516	 8.15994821082595E-02 
517	 8.19485181004561E-02 
518	 8.22189936277993E-02 
519	 8.23626557177468E-02 
520	 8.27398271568817E-02 
521	 8.33208481682002E-02 
522	 8.38400055820258E-02 
523	 8.43160657685247E-02 
524	 8.47573420583383E-02 
525	 8.52359867636517E-02 
526	 8.56362547411908E-02 
527	 0.085781448095912 
528	 8.59427906759725E-02 
529	 8.62465623665642E-02 
530	 8.68257724495899E-02 
531	 8.74889602067962E-02 
532	 8.80807869914644E-02 
533	 8.84233489871581E-02 
534	 8.86416769439425E-02 
535	 0.089040924741129 
536	 8.93705636931439E-02 
537	 8.95971189025088E-02 
538	 8.99449892706388E-02 
539	 9.02108145362527E-02 
540	 9.02191227051868E-02 
541	 9.05838816380996E-02 
542	 9.12240206384551E-02 
543	 9.16563077963802E-02 
544	 9.17640234978903E-02 
545	 9.16032709941409E-02 
546	 9.19007712049323E-02 
547	 9.23980952463696E-02 
548	 9.26669439624254E-02 
549	 9.30690177737136E-02 
550	 9.35037908641929E-02 
551	 9.33275864011074E-02 
552	 9.33058896444759E-02 
553	 9.38749549180656E-02 
554	 9.43239747624267E-02 
555	 9.45716098792045E-02 
556	 0.094675652945524 
557	 9.46350814506629E-02 
558	 9.45007949336085E-02 
559	 9.44214267293864E-02 
560	 0.094454589792215 
561	 9.46454882152646E-02 
562	 9.50479325403088E-02 
563	 9.54329265602881E-02 
564	 9.51954360887942E-02 
565	 9.50221798880801E-02 
566	 9.51437496597677E-02 
567	 9.50563090513668E-02 
568	 9.49292640608397E-02 
569	 9.50286325436662E-02 
570	 9.50977927741745E-02 
571	 9.50642267675853E-02 
572	 9.48900990747455E-02 
573	 9.48470144469275E-02 
574	 9.50535215712359E-02 
575	 9.50143637839075E-02 
576	 9.47977727518087E-02 
577	 9.46632414015406E-02 
578	 0.094447261615598 
579	 9.41654519955294E-02 
580	 9.40232837455739E-02 
581	 9.40642935539776E-02 
582	 9.42871264846969E-02 
583	 9.42743333861389E-02 
584	 9.40990711817488E-02 
585	 9.41963567489393E-02 
586	 9.41108541971303E-02 
587	 9.37868396956949E-02 
588	 9.40286176061398E-02 
589	 9.44886231449282E-02 
590	 9.46079186178295E-02 
591	 9.43672762158773E-02 
592	 9.38969545529497E-02 
593	 9.35958376856076E-02 
594	 9.34081958079093E-02 
595	 9.33226286973598E-02 
596	 9.34587925184896E-02 
597	 0.093611607070208 
598	 9.33860049369071E-02 
599	 9.34576720478433E-02 
600	 0.093891462263868 
601	 9.40512248535523E-02 
602	 9.39154986062872E-02 
603	 9.35226630773866E-02 
604	 9.32650582202733E-02 
605	 9.32420107332719E-02 
606	 9.35232997150915E-02 
607	 9.36497230967621E-02 
608	 9.34385168119116E-02 
609	 0.09314128228215 
610	 9.29162054731451E-02 
611	 9.29235152202021E-02 
612	 9.25966529012751E-02 
613	 9.20655804613765E-02 
614	 9.22619816288345E-02 
615	 9.23866554575345E-02 
616	 9.20181163312564E-02 
617	 9.20133933328251E-02 
618	 0.092109365762763 
619	 9.16115073627352E-02 
620	 9.16753849937417E-02 
621	 9.23204936026789E-02 
622	 9.20692451308244E-02 
623	 9.16167021651934E-02 
624	 9.16227805792767E-02 
625	 9.17158090868428E-02 
626	 9.17409670831767E-02 
627	 9.14501750572462E-02 
628	 9.12170192585765E-02 
629	 9.11995191802992E-02 
630	 9.12884665310576E-02 
631	 9.14640259006206E-02 
632	 9.17090746083505E-02 
633	 9.18068669328384E-02 
634	 9.16503209216319E-02 
635	 9.10225097557369E-02 
636	 9.07337541743815E-02 
637	 9.11856972761409E-02 
638	 9.13511665508175E-02 
639	 9.12229681730001E-02 
640	 9.10417775178736E-02 
641	 9.09115526056108E-02 
642	 9.08613066189791E-02 
643	 9.08460026087259E-02 
644	 9.05169910228958E-02 
645	 8.96564395565824E-02 
646	 0.089654031770708 
647	 0.090163395709317 
648	 8.95558582830047E-02 
649	 8.89656007534377E-02 
650	 8.88193445485463E-02 
651	 8.88413487723838E-02 
652	 0.088827582257373 
653	 8.85655870218418E-02 
654	 8.85631648801079E-02 
655	 8.87546186227956E-02 
656	 8.85559875195164E-02 
657	 8.78656326030967E-02 
658	 8.68136733659955E-02 
659	 8.63684020620968E-02 
660	 8.62627961397393E-02 
661	 8.59120204966719E-02 
662	 8.55180447735616E-02 
663	 8.50700278831357E-02 
664	 8.43138009548848E-02 
665	 8.37369795982932E-02 
666	 8.37083284925937E-02 
667	 0.083521513714395 
668	 8.30987784795771E-02 
669	 8.25435831069715E-02 
670	 8.21369887690364E-02 
671	 8.19808025468293E-02 
672	 8.18770394016484E-02 
673	 8.17938662625362E-02 
674	 8.17155143319497E-02 
675	 8.17427393594915E-02 
676	 8.19500859566006E-02 
677	 8.25260196321872E-02 
678	 0.082979790667361 
679	 8.30603282684625E-02 
680	 8.31308478986434E-02 
681	 8.32151095133618E-02 
682	 8.32469569950746E-02 
683	 8.38258848634501E-02 
684	 8.48735521175479E-02 
685	 8.53516187839913E-02 
686	 8.59823708627484E-02 
687	 8.73790730327607E-02 
688	 8.87152362461453E-02 
689	 8.98707269192679E-02 
690	 9.12262138236289E-02 
691	 9.26124595041218E-02 
692	 9.40160890587349E-02 
693	 9.54671460765603E-02 
694	 9.68854515434358E-02 
695	 0.098139915861722 
696	 9.94740194868715E-02 
697	 0.101024387645932 
698	 0.103186746438646 
699	 0.104812596211587 
700	 0.105511611725361 
701	 0.107012666720394 
702	 0.108803665092758 
703	 0.109929140896256 
704	 0.111051469932817 
705	 0.112255337885884 
706	 0.113257033919413 
707	 0.114101332217454 
708	 0.11484341884426 
709	 0.115755578104786 
710	 0.11664418917398 
711	 0.117015123640267 
712	 0.11805039472405 
713	 0.119666128570286 
714	 0.119824235110192 
715	 0.119544007925119 
716	 0.119860463189703 
717	 0.120707082215246 
718	 0.121848633606874 
719	 0.122285682967229 
720	 0.122711447499354 
721	 0.123282665047826 
722	 0.123553668131968 
723	 0.123802702651587 
724	 0.124322699037315 
725	 0.124505106642192 
726	 0.124401487728584 
727	 0.124631105800125 
728	 0.125080774468675 
729	 0.125645360303115 
730	 0.125966935339798 
731	 0.12616326310053 
732	 0.126463822527023 
733	 0.126651557944579 
734	 0.126760653715868 
735	 0.127059681181508 
736	 0.127279421825855 
737	 0.127293539274038 
738	 0.127766647078385 
739	 0.1283643976688 
740	 0.128271184474702 
741	 0.128419661913191 
742	 0.128985722166766 
743	 0.129504945764657 
744	 0.129607381294295 
745	 0.129067006871074 
746	 0.128855732664255 
747	 0.1290424729874 
748	 0.129346453028389 
749	 0.129594194677302 
750	 0.129693696226226 
751	 0.129665381193373 
752	 0.129738381222552 
753	 0.130135463170265 
754	 0.13053972887977 
755	 0.130713512087894 
756	 0.130170125036077 
757	 0.129762449264874 
758	 0.129854517808908 
759	 0.129902715361764 
760	 0.13010422289779 
761	 0.130917062564921 
762	 0.130695588993814 
763	 0.129919289665714 
764	 0.130528982495908 
765	 0.131327444936952 
766	 0.13178433354581 
767	 0.131848789394448 
768	 0.131764100445349 
769	 0.131779148544721 
770	 0.131936099208021 
771	 0.132111717749672 
772	 0.131772662613714 
773	 0.13154345948588 
774	 0.131796269081197 
775	 0.131816662687116 
776	 0.13181806585143 
777	 0.132405141810766 
778	 0.132472607073307 
779	 0.132010145807486 
780	 0.132483016660056 
781	 0.133026186754792 
782	 0.132936631681744 
783	 0.132614736992901 
784	 0.132488589533929 
785	 0.133371651958308 
786	 0.133813611481042 
787	 0.133484232264844 
788	 0.13338885414477 
789	 0.133528594842747 
790	 0.133838429753631 
791	 0.134030958383414 
792	 0.133998400928836 
793	 0.133605090031868 
794	 0.133405772352545 
795	 0.133601706544096 
796	 0.134059125334008 
797	 0.134144953821158 
798	 0.133342871810845 
799	 0.133520528355922 
800	 0.134441525570791 
801	 0.134428422642988 
802	 0.134412154250354 
803	 0.134628888355124 
804	 0.134473459836513 
805	 0.134184606068359 
806	 0.134057981371215 
807	 0.133854464791209 
808	 0.133774054652799 
809	 0.134510875164676 
810	 0.135350167624291 
811	 0.135780611004045 
812	 0.13486923916427 
813	 0.133954387757282 
814	 0.134855203812526 
815	 0.135029479880013 
816	 0.134434397156468 
817	 0.13512305828029 
818	 0.135567658388674 
819	 0.135328964598626 
820	 0.1359461490769 
821	 0.136655216694377 
822	 0.136454661723891 
823	 0.136496567757631 
824	 0.136780731210103 
825	 0.136626696004998 
826	 0.136061448317308 
827	 0.135275359894124 
828	 0.13544865119585 
829	 0.13592447016937 
830	 0.135782287912144 
831	 0.136112450763153 
832	 0.136752002235881 
833	 0.136490391616355 
834	 0.136797738166818 
835	 0.13791466203666 
836	 0.137443789555498 
837	 0.136372808387544 
838	 0.136056455135766 
839	 0.136792347556548 
840	 0.137944859610846 
841	 0.137496759740929 
842	 0.137076262325323 
843	 0.137251085988487 
844	 0.136908038943377 
845	 0.13676566031596 
846	 0.137628419167491 
847	 0.137258234747752 
848	 0.136059869879991 
849	 0.136680257546288 
850	 0.136742022746494 
851	 0.135706581575675 
852	 0.136357613208192 
853	 0.137429400711333 
854	 0.137368728024574 
855	 0.137229387169027 
856	 0.137194727938096 
857	 0.13716426104969 
858	 0.137428893467434 
859	 0.137957911145752 
860	 0.138162254611736 
861	 0.137894441373954 
862	 0.137142586694123 
863	 0.137266276442275 
864	 0.137834255358144 
865	 0.137157021005682 
866	 0.136784745388533 
867	 0.137109609986188 
868	 0.137316294713676 
869	 0.137420410486764 
870	 0.137504985341549 
871	 0.13802239632985 
872	 0.138804049979762 
873	 0.13942238635646 
874	 0.139638448135379 
875	 0.139500236760916 
876	 0.139615865696981 
877	 0.139688653868964 
878	 0.139516089227727 
879	 0.139206555636767 
880	 0.13914092770409 
881	 0.139888343929075 
882	 0.1402518783695 
883	 0.140089473221556 
884	 0.140208433588873 
885	 0.140272204907478 
886	 0.140078725714195 
887	 0.139553923990152 
888	 0.139084226979884 
889	 0.13917781641033 
890	 0.140013142456048 
891	 0.14093154877622 
892	 0.139718640650657 
893	 0.138799453686608 
894	 0.139237983995312 
895	 0.139789010727536 
896	 0.139986579759917 
897	 0.139469471868688 
898	 0.139721311676352 
899	 0.140389869592197 
900	 0.139700717802293 
901	 0.139726118038986 
902	 0.140770901705467 
903	 0.141093106941021 
904	 0.140715630654744 
905	 0.139827823447448 
906	 0.139499269950365 
907	 0.139960656784692 
908	 0.141321319164593 
909	 0.141318219542568 
910	 0.140173938558602 
911	 0.141483787223605 
912	 0.14327449219875 
913	 0.144189225111145 
914	 0.143856230570089 
915	 0.142633831688483 
916	 0.141097201561296 
917	 0.140445997273912 
918	 0.140435882816954 
919	 0.139309118287168 
920	 0.139918666654186 
921	 0.142428039243325 
922	 0.142719034109242 
923	 0.140973305037852 
924	 0.138036062961603 
925	 0.140355306160921 
926	 0.144220603716146 
927	 0.13892176298641 
928	 0.135679623987874 
929	 0.137730458586584 
930	 0.139318844920213 
931	 0.140203218717545 
932	 0.140054196787562 
933	 0.14029288765975 
934	 0.13937836547925 
935	 0.135134532163959 
936	 0.133616271162593 
937	 0.135699595591434 
938	 0.139095511525217 
939	 0.144524734942395 
940	 0.149286198668475 
941	 0.143047130186451 
942	 0.138475931056328 
943	 0.143805330474104 
944	 0.140115583923075 
945	 0.133873124223098 
946	 0.139196832395366 
947	 0.144464442987655 
948	 0.145628944289283 
949	 0.139747456137395 
950	 0.135986338902829 
951	 0.138404506500289 
952	 0.145325820298021 
953	 0.147922015944884 
954	 0.139557743156085 
955	 0.13678277991069 
956	 0.138800495962882 
957	 0.138863104826578 
958	 0.141436502121054 
959	 0.146066581705553 
960	 0.149498284099767 
961	 0.147808749196039 
962	 0.141006535391272 
963	 0.139086303934212 
964	 0.140857606583835 
965	 0.143820453944803 
966	 0.141599243128088 
967	 0.13723648274531 
968	 0.138758933023101 
969	 0.142528718135936 
970	 0.145367665797495 
971	 0.140523503918288 
972	 0.135926919824901 
973	 0.136212561699484 
974	 0.138271784580737 
975	 0.141105699224332 
976	 0.143618432697895 
977	 0.142303895089841 
978	 0.13935427561007 
979	 0.140943770854586 
980	 0.141847046578251 
981	 0.141107240161642 
982	 0.141082390632974 
983	 0.141126808820459 
984	 0.141347422039628 
985	 0.144677914466597 
986	 0.147673600110849 
987	 0.146695675518088 
988	 0.143937098052279 
989	 0.142043254484655 
990	 0.1454388597248 
991	 0.145927499640236 
992	 0.14324666089938 
993	 0.145920549372702 
994	 0.147022039463854 
995	 0.143807275670233 
996	 0.1423029528591 
997	 0.142243641316779 
998	 0.142809028365236 
999	 0.143701231924113 
1000	 0.14291049837599 
1001	 0.1372421894672 
1002	 0.135238045572977 
1003	 0.137944728553111 
1004	 0.140139759985892 
1005	 0.143631452569484 
1006	 0.147310069254659 
1007	 0.143197380907863 
1008	 0.138675443114383 
1009	 0.139366252573679 
1010	 0.138790040846608 
1011	 0.137169355058652 
1012	 0.13606766226872 
1013	 0.140731212575456 
1014	 0.147109077888697 
1015	 0.14249926118573 
1016	 0.141753976662882 
1017	 0.147073829211311 
1018	 0.147478934005087 
1019	 0.148394043080832 
1020	 0.150587939844046 
1021	 0.139094312771699 
1022	 0.128531383537064 
1023	 0.134329810474957 
1024	 0.145332023028671 
1025	 0.152550495523828 
1026	 0.145052564793938 
1027	 0.146341356591157 
1028	 0.154285114581876 
1029	 0.144339248277858 
1030	 0.136140022980057 
1031	 0.134997762955614 
1032	 0.128334593471912 
1033	 0.126771882068631 
1034	 0.13616734832162 
1035	 0.148154116460644 
1036	 0.15804624560442 
1037	 0.161474686170372 
1038	 0.152429523473126 
1039	 0.137675072290519 
1040	 0.131266078260084 
1041	 0.134989772502328 
1042	 0.145235640004494 
1043	 0.150613004642553 
1044	 0.154806060544473 
1045	 0.157279332011921 
1046	 0.152998796887829 
1047	 0.149167477929577 
1048	 0.149576897198015 
1049	 0.147113172024266 
1050	 0.140041590218709 
1051	 0.129078873827465 
1052	 0.138583308285743 
1053	 0.157379401164403 
1054	 0.164058182480775 
1055	 0.164321627301827 
1056	 0.161032752040013 
1057	 0.159335296598784 
1058	 0.154531278019555 
1059	 0.144458893164623 
1060	 0.123279428388109 
1061	 0.122260785972896 
1062	 0.146234868472859 
1063	 0.143367613112552 
1064	 0.141014247255469 
1065	 0.157578077604349 
1066	 0.162223712126259 
1067	 0.150981676220539 
1068	 0.124854730954477 
1069	 0.114964795987045 
1070	 0.125148393908849 
1071	 0.144626297560904 
1072	 0.145045659608024 
1073	 0.132270012424461 
1074	 0.138557997036475 
1075	 0.146911150057525 
