Wavelength	SHSI00300.asd
325	 8.58435578720001E-02 
326	 8.45989869467934E-02 
327	 7.97872519191354E-02 
328	 0.084893492129694 
329	 8.28920693683909E-02 
330	 7.16744746163114E-02 
331	 7.35562614972001E-02 
332	 8.16819928184181E-02 
333	 8.79002776174377E-02 
334	 8.74206455631001E-02 
335	 8.20459995521969E-02 
336	 7.76150518043293E-02 
337	 7.45536026946269E-02 
338	 7.38021964381105E-02 
339	 7.78845712056667E-02 
340	 8.09674449394818E-02 
341	 7.88007359256662E-02 
342	 7.83286165296786E-02 
343	 0.078765359195076 
344	 7.62822832067025E-02 
345	 0.076515011790869 
346	 7.91194822606332E-02 
347	 7.66521698866927E-02 
348	 7.58999655976369E-02 
349	 8.05553888275843E-02 
350	 8.08369547439664E-02 
351	 7.83656754441401E-02 
352	 7.75762753107138E-02 
353	 7.67341073840674E-02 
354	 7.62186050274463E-02 
355	 7.87504080634837E-02 
356	 8.00504375271138E-02 
357	 7.81831808014814E-02 
358	 7.91857917651413E-02 
359	 8.13796297754175E-02 
360	 0.081302633890737 
361	 0.080042276894559 
362	 7.87251856991252E-02 
363	 8.02624853193807E-02 
364	 8.08294254519656E-02 
365	 7.89160644880166E-02 
366	 7.90316254134543E-02 
367	 7.98158528285355E-02 
368	 7.89015367203978E-02 
369	 7.87110861567069E-02 
370	 7.91625027176474E-02 
371	 0.078048563385067 
372	 0.077507207830117 
373	 7.84014263891353E-02 
374	 7.83190197890601E-02 
375	 7.76800495480906E-02 
376	 7.74110966256434E-02 
377	 7.69385871268364E-02 
378	 7.63201141440291E-02 
379	 7.60276086058191E-02 
380	 7.62831967706953E-02 
381	 7.69146102136399E-02 
382	 7.60828358493742E-02 
383	 7.52438948203154E-02 
384	 7.64529593714335E-02 
385	 7.60215788753908E-02 
386	 7.44536236764688E-02 
387	 7.62680941704402E-02 
388	 7.70196733797906E-02 
389	 7.50665796415353E-02 
390	 7.33559754126705E-02 
391	 7.30881190468932E-02 
392	 7.51771157786156E-02 
393	 7.55452790593112E-02 
394	 7.46068817810559E-02 
395	 7.64943219642565E-02 
396	 7.68393873105773E-02 
397	 7.46311742934021E-02 
398	 0.075024246221665 
399	 7.61367659292867E-02 
400	 7.56851431986917E-02 
401	 7.50997224252088E-02 
402	 0.074879319437567 
403	 7.56531292955466E-02 
404	 7.62784223991729E-02 
405	 7.62622058541007E-02 
406	 7.57144981639745E-02 
407	 0.075273342859867 
408	 7.56709736363598E-02 
409	 7.56043419045101E-02 
410	 7.50891459118553E-02 
411	 7.49521887411992E-02 
412	 0.075297818354249 
413	 7.60195700031181E-02 
414	 7.61741070073343E-02 
415	 7.59142737386339E-02 
416	 7.55677339422972E-02 
417	 7.53541026374056E-02 
418	 7.53356155014374E-02 
419	 7.54235761207023E-02 
420	 7.57204732107868E-02 
421	 7.62044079868024E-02 
422	 7.64142216496802E-02 
423	 7.63860991235858E-02 
424	 0.076252011218414 
425	 0.076287827028077 
426	 0.076513039427434 
427	 7.67164620238903E-02 
428	 7.67257973861818E-02 
429	 7.64992017679337E-02 
430	 7.66841081561852E-02 
431	 7.69793280561094E-02 
432	 7.67389972842908E-02 
433	 7.66082375175816E-02 
434	 7.66985365815869E-02 
435	 7.67492334899161E-02 
436	 7.67108767881919E-02 
437	 7.66091786850139E-02 
438	 7.69958478478324E-02 
439	 7.75218121316287E-02 
440	 7.74207693113178E-02 
441	 7.72824657921184E-02 
442	 7.72431377304086E-02 
443	 7.69864300736218E-02 
444	 7.71603425870392E-02 
445	 7.81614726884228E-02 
446	 7.83691121998597E-02 
447	 7.79467978547208E-02 
448	 7.78187394627249E-02 
449	 7.80715214308722E-02 
450	 7.86143487825918E-02 
451	 7.86615742269999E-02 
452	 7.85937351837884E-02 
453	 7.88146873970482E-02 
454	 7.88688122326161E-02 
455	 7.88548490103971E-02 
456	 7.93262690908567E-02 
457	 0.079526494457614 
458	 0.079224718744222 
459	 7.90353842508982E-02 
460	 7.91052430314346E-02 
461	 7.95217072702062E-02 
462	 7.95846336792259E-02 
463	 7.93489190084595E-02 
464	 7.94896057002613E-02 
465	 7.98906358707377E-02 
466	 8.03772499153213E-02 
467	 8.01503438192046E-02 
468	 7.96562769293358E-02 
469	 0.079665437517847 
470	 8.02138307074006E-02 
471	 8.09283137063623E-02 
472	 8.05017276499608E-02 
473	 7.98828948189472E-02 
474	 7.97472952499564E-02 
475	 8.02027572720802E-02 
476	 0.080878205547925 
477	 8.11271098669437E-02 
478	 8.10947539493127E-02 
479	 8.09197011827628E-02 
480	 8.10265567288386E-02 
481	 8.11550841373443E-02 
482	 8.11117131715216E-02 
483	 8.12691277709648E-02 
484	 8.16067095433079E-02 
485	 8.19710371132571E-02 
486	 8.20531982210342E-02 
487	 8.18345577333925E-02 
488	 8.19511326057494E-02 
489	 0.082134940880003 
490	 8.20850618142587E-02 
491	 8.22171436249698E-02 
492	 8.24710603843757E-02 
493	 8.24711540647383E-02 
494	 8.24712114575332E-02 
495	 8.25972946263771E-02 
496	 8.29398901844953E-02 
497	 8.31721846419013E-02 
498	 8.28719945457096E-02 
499	 8.30184398636889E-02 
500	 8.36658797966483E-02 
501	 0.08415420369273 
502	 8.43947518472005E-02 
503	 8.43603008508108E-02 
504	 0.084344379462358 
505	 8.44967969792179E-02 
506	 8.49714907603101E-02 
507	 8.55876133896143E-02 
508	 0.08615106511873 
509	 8.61898998709979E-02 
510	 8.61741407447974E-02 
511	 8.64723582623184E-02 
512	 0.086704532959738 
513	 8.68569382937909E-02 
514	 8.70133797538826E-02 
515	 0.08733616590384 
516	 8.77970430624968E-02 
517	 8.78355611435565E-02 
518	 0.087968124234644 
519	 8.87434598329324E-02 
520	 8.90243587344335E-02 
521	 8.88609447916607E-02 
522	 8.89629628072155E-02 
523	 8.94581529075279E-02 
524	 9.02986898329031E-02 
525	 9.06496513848272E-02 
526	 9.06831475481488E-02 
527	 9.07740327030687E-02 
528	 9.08977306615967E-02 
529	 9.10756691188191E-02 
530	 9.12996530947256E-02 
531	 9.17158408179838E-02 
532	 9.23444192888713E-02 
533	 9.24104868990062E-02 
534	 0.092271781232323 
535	 0.092890821024365 
536	 0.093132357036024 
537	 9.28665054598409E-02 
538	 9.32214484651871E-02 
539	 9.37835503207298E-02 
540	 9.41033765611277E-02 
541	 9.43673892247859E-02 
542	 0.094588518594185 
543	 9.47489697067673E-02 
544	 9.47974393020949E-02 
545	 9.47703353362051E-02 
546	 9.49653931077923E-02 
547	 9.53144839036117E-02 
548	 9.56889674591129E-02 
549	 9.59992685031319E-02 
550	 9.61994041248647E-02 
551	 9.62506131687815E-02 
552	 9.63182309841721E-02 
553	 9.65036778315557E-02 
554	 9.66920681264999E-02 
555	 9.68302103423539E-02 
556	 0.096832141978804 
557	 9.70258329921088E-02 
558	 9.74595850515462E-02 
559	 9.78472571334225E-02 
560	 9.80332066431413E-02 
561	 0.097912149491022 
562	 9.78251984384953E-02 
563	 9.78901008411274E-02 
564	 9.82309543960892E-02 
565	 9.84766163681288E-02 
566	 9.84887185754718E-02 
567	 9.85359727564719E-02 
568	 9.85696414052623E-02 
569	 9.84990838897409E-02 
570	 9.85995885360229E-02 
571	 9.88372672881478E-02 
572	 9.88578486536909E-02 
573	 9.88577122613165E-02 
574	 9.89398632804687E-02 
575	 9.89286772010662E-02 
576	 9.88278145524237E-02 
577	 9.86671118449314E-02 
578	 9.87202908186648E-02 
579	 0.098980705241423 
580	 9.90030976230671E-02 
581	 9.89293171611999E-02 
582	 9.88988627802525E-02 
583	 9.88127363895926E-02 
584	 0.098770855746579 
585	 9.90872772325977E-02 
586	 9.92894874023174E-02 
587	 9.92216990461427E-02 
588	 0.099277766887032 
589	 9.93090272078345E-02 
590	 9.90842762195138E-02 
591	 9.91767622680156E-02 
592	 0.099455845275658 
593	 9.90053087225171E-02 
594	 9.87278413767619E-02 
595	 9.90820829741122E-02 
596	 9.91408052288404E-02 
597	 0.099106360319741 
598	 0.09956636665838 
599	 9.98779625158336E-02 
600	 9.98808541787594E-02 
601	 9.98270170552938E-02 
602	 9.97395863800174E-02 
603	 0.099658831088874 
604	 9.99299537057956E-02 
605	 0.100321841088902 
606	 0.100124038068936 
607	 9.97700224888639E-02 
608	 9.94871572188391E-02 
609	 9.95382052148921E-02 
610	 9.96468876268446E-02 
611	 9.94373020633492E-02 
612	 9.94130235830291E-02 
613	 9.95400677401681E-02 
614	 9.92759165195293E-02 
615	 9.90726952185686E-02 
616	 9.91685965390385E-02 
617	 9.90561869163028E-02 
618	 9.89438948973765E-02 
619	 9.93330032499245E-02 
620	 0.099406173332375 
621	 9.90837777901683E-02 
622	 9.91725936771141E-02 
623	 9.93155029649979E-02 
624	 9.91908385661595E-02 
625	 0.099249683360087 
626	 0.099434818332525 
627	 9.93866889736453E-02 
628	 9.93260543463028E-02 
629	 9.93589400361515E-02 
630	 0.099577978398445 
631	 0.09978930301965 
632	 9.97478622920359E-02 
633	 9.95351151269576E-02 
634	 9.92676776428703E-02 
635	 9.92060777650907E-02 
636	 9.93026886082431E-02 
637	 9.94881631923119E-02 
638	 9.94276949004291E-02 
639	 9.93337271373865E-02 
640	 9.96985760645117E-02 
641	 9.96221737572203E-02 
642	 9.91368562066768E-02 
643	 9.97070179555272E-02 
644	 0.100192350712087 
645	 0.099609330549315 
646	 9.91743025013186E-02 
647	 9.90784848874281E-02 
648	 9.91949081549243E-02 
649	 9.93302957019409E-02 
650	 9.93439485905005E-02 
651	 9.90971137022345E-02 
652	 0.098740500503317 
653	 9.84638103468235E-02 
654	 9.83909114350313E-02 
655	 9.84457976165875E-02 
656	 9.82401273290449E-02 
657	 0.098032619645653 
658	 9.79319423334707E-02 
659	 9.75273502967907E-02 
660	 9.69069403927153E-02 
661	 9.62570700018507E-02 
662	 9.57957559030043E-02 
663	 9.55529949437012E-02 
664	 9.53425060646446E-02 
665	 9.49143059672414E-02 
666	 9.41254873038421E-02 
667	 9.38005540136569E-02 
668	 9.38508735775116E-02 
669	 9.37283730911767E-02 
670	 9.34006698589138E-02 
671	 9.29026959988459E-02 
672	 9.26219509089983E-02 
673	 9.25520683676551E-02 
674	 9.26384725317157E-02 
675	 9.28313822055078E-02 
676	 0.093043850460066 
677	 9.30923023774189E-02 
678	 9.31573535357927E-02 
679	 9.33393028757839E-02 
680	 9.35578331646577E-02 
681	 9.38961095682407E-02 
682	 9.45077084318612E-02 
683	 9.49128726000257E-02 
684	 9.51575021458845E-02 
685	 9.60505717883796E-02 
686	 9.70402710416318E-02 
687	 9.76625954828517E-02 
688	 9.87638505850051E-02 
689	 0.100070406442976 
690	 0.100853451695865 
691	 0.101890888488758 
692	 0.103263791771433 
693	 0.104013475529904 
694	 0.104609785072264 
695	 0.105550916072768 
696	 0.106306868829024 
697	 0.107014716097548 
698	 0.10842205767865 
699	 0.109548777656444 
700	 0.109963621027396 
701	 0.110387470319612 
702	 0.110963132299636 
703	 0.111762685462603 
704	 0.112606594819117 
705	 0.113283533568646 
706	 0.113240409764339 
707	 0.113257704748199 
708	 0.113815985452946 
709	 0.11431290668144 
710	 0.114731063270702 
711	 0.11521813264352 
712	 0.115537037470682 
713	 0.115685238765863 
714	 0.116039558284461 
715	 0.116215515403631 
716	 0.115910345461947 
717	 0.116495324671218 
718	 0.117746615869132 
719	 0.11780224317036 
720	 0.117464681552823 
721	 0.117211984594509 
722	 0.117521454664711 
723	 0.117928617441561 
724	 0.117880961638193 
725	 0.117755769989564 
726	 0.117828656066335 
727	 0.118690181565363 
728	 0.119205481495564 
729	 0.118919193912627 
730	 0.119092509479915 
731	 0.119498240723375 
732	 0.119631727143568 
733	 0.119607478659831 
734	 0.119485131814746 
735	 0.119282881519315 
736	 0.119491812265985 
737	 0.120327402803906 
738	 0.120598237034182 
739	 0.120478548906352 
740	 0.12062257966244 
741	 0.120839876535155 
742	 0.12107709238659 
743	 0.121336590984034 
744	 0.121366113493919 
745	 0.12100456768335 
746	 0.120918119502607 
747	 0.121154561842268 
748	 0.121544252056514 
749	 0.1218384665297 
750	 0.121933303752268 
751	 0.121972358998556 
752	 0.121971820706183 
753	 0.121936116102094 
754	 0.121708712747259 
755	 0.121494864599087 
756	 0.122009863409613 
757	 0.122224884770891 
758	 0.121760151692903 
759	 0.121772538221459 
760	 0.122346367408653 
761	 0.122770866431891 
762	 0.122965950831106 
763	 0.122996957701479 
764	 0.12301966256945 
765	 0.123224682769902 
766	 0.123559569960441 
767	 0.123459503601692 
768	 0.123261880932819 
769	 0.123386095217303 
770	 0.12360008641262 
771	 0.123825010059491 
772	 0.123973721873559 
773	 0.124107633293929 
774	 0.124282580164933 
775	 0.124646877462368 
776	 0.12494538938866 
777	 0.124676157007383 
778	 0.124654411057011 
779	 0.124912398679827 
780	 0.124391686003167 
781	 0.124090866993725 
782	 0.124739581243519 
783	 0.125087163271199 
784	 0.125113883277058 
785	 0.125256519177291 
786	 0.125246555518305 
787	 0.125095074387085 
788	 0.125189229208819 
789	 0.1254392414302 
790	 0.125731921544685 
791	 0.126010735672841 
792	 0.126202210273865 
793	 0.126158370298638 
794	 0.126274040041034 
795	 0.126544875602116 
796	 0.126092904367715 
797	 0.125802408835498 
798	 0.126501939375744 
799	 0.126171573401045 
800	 0.125207738263445 
801	 0.125772884305305 
802	 0.126394501817662 
803	 0.126533653268028 
804	 0.126551936591642 
805	 0.126568656425058 
806	 0.126695460039611 
807	 0.127021611308897 
808	 0.12738413676295 
809	 0.127272309613048 
810	 0.127152129600299 
811	 0.127169184092609 
812	 0.12681883421534 
813	 0.12653407303947 
814	 0.126925335542572 
815	 0.127480867447534 
816	 0.127856362138241 
817	 0.127412147455832 
818	 0.127401835268045 
819	 0.128137745231886 
820	 0.127918730814819 
821	 0.127666422780538 
822	 0.128571605324252 
823	 0.129038534859263 
824	 0.12885014883837 
825	 0.128400427298783 
826	 0.128602884236105 
827	 0.129528126388745 
828	 0.128721980728214 
829	 0.12774075277303 
830	 0.128691849544232 
831	 0.129438312911907 
832	 0.129617920434523 
833	 0.129664194971588 
834	 0.129639655546681 
835	 0.129559709239744 
836	 0.129118728768435 
837	 0.128962572387971 
838	 0.129774723676975 
839	 0.129618108031078 
840	 0.128730453448457 
841	 0.128995051327029 
842	 0.129470175364389 
843	 0.129720424598889 
844	 0.129587383144947 
845	 0.129470297537935 
846	 0.12980262199622 
847	 0.129625500187894 
848	 0.129084616583634 
849	 0.129150478945536 
850	 0.12939979636214 
851	 0.129616945746529 
852	 0.129507040635503 
853	 0.129521588860965 
854	 0.130116041327546 
855	 0.130349551004358 
856	 0.130122283975261 
857	 0.129650448526602 
858	 0.129352735712032 
859	 0.129376619633929 
860	 0.129401943317189 
861	 0.129835035097919 
862	 0.130951108871204 
863	 0.130926613180409 
864	 0.130128156249701 
865	 0.130250358103246 
866	 0.130501736574202 
867	 0.13057336030914 
868	 0.130088213828554 
869	 0.130159223650599 
870	 0.131498202884397 
871	 0.131782668176978 
872	 0.131299226232723 
873	 0.131349324967119 
874	 0.13102004138761 
875	 0.130486168158295 
876	 0.131544419540629 
877	 0.13208581822515 
878	 0.130822061717857 
879	 0.130325407916041 
880	 0.130680939303341 
881	 0.131428465988376 
882	 0.131274166617321 
883	 0.130555957370458 
884	 0.132046861262272 
885	 0.132767404418484 
886	 0.131356675920189 
887	 0.130789279326334 
888	 0.131347382518043 
889	 0.132885116069027 
890	 0.133249755243003 
891	 0.132602472178283 
892	 0.133272146101253 
893	 0.134222144974151 
894	 0.134778350756701 
895	 0.133717754767526 
896	 0.132856482573201 
897	 0.134322225273104 
898	 0.134988520544058 
899	 0.134546577181148 
900	 0.134076138499058 
901	 0.133175567475904 
902	 0.132205197217554 
903	 0.133028208056849 
904	 0.133847825878273 
905	 0.133404572207909 
906	 0.134307853164539 
907	 0.135067906618968 
908	 0.132340877654855 
909	 0.132293353219802 
910	 0.134905976015849 
911	 0.132453375662186 
912	 0.1316198996253 
913	 0.135263274923431 
914	 0.134848210111212 
915	 0.133136907169121 
916	 0.134442143254883 
917	 0.135243680496551 
918	 0.135012152999695 
919	 0.134169882435358 
920	 0.133968364232671 
921	 0.134585186741651 
922	 0.134171748010441 
923	 0.133753200973021 
924	 0.134268331848227 
925	 0.134808835044753 
926	 0.134648923680119 
927	 0.132544288932501 
928	 0.130818002959812 
929	 0.130672122795692 
930	 0.132959788622695 
931	 0.134981186542724 
932	 0.134301763493829 
933	 0.131801393726741 
934	 0.129045450567657 
935	 0.12832782741786 
936	 0.128849357736969 
937	 0.13100129147461 
938	 0.13649135753413 
939	 0.140406986628625 
940	 0.140687894411336 
941	 0.135744110692248 
942	 0.133529646136597 
943	 0.138402892186165 
944	 0.134023738188501 
945	 0.128874229976683 
946	 0.139676033120189 
947	 0.141717502607017 
948	 0.133723139384411 
949	 0.132653747902713 
950	 0.132017520742663 
951	 0.130442248675081 
952	 0.135400758008068 
953	 0.138439601632958 
954	 0.132625162787342 
955	 0.129225461322835 
956	 0.129251771528467 
957	 0.130828735125639 
958	 0.132905870207972 
959	 0.133852066114093 
960	 0.130153531267801 
961	 0.127390248042381 
962	 0.128363740987013 
963	 0.131881934251553 
964	 0.133847295993416 
965	 0.130989223286094 
966	 0.130630092522905 
967	 0.132905646840306 
968	 0.135761918462512 
969	 0.135553787149524 
970	 0.132600890404286 
971	 0.132078936334077 
972	 0.133277387689757 
973	 0.134938649795802 
974	 0.131644986457308 
975	 0.128754423800567 
976	 0.132356570720466 
977	 0.135063359942857 
978	 0.135713927065927 
979	 0.134979839974757 
980	 0.13660447525836 
981	 0.139606952199327 
982	 0.13572091715486 
983	 0.133139462441848 
984	 0.136278594599435 
985	 0.141555876907828 
986	 0.143603811295552 
987	 0.137891358424443 
988	 0.133697004403019 
989	 0.13410973540989 
990	 0.141825940823615 
991	 0.141662274097869 
992	 0.133303977187366 
993	 0.13294549683482 
994	 0.13510617992149 
995	 0.136894107767313 
996	 0.139033747896689 
997	 0.137286469791487 
998	 0.129036171506761 
999	 0.130922612686511 
1000	 0.138160187888718 
1001	 0.137394476127487 
1002	 0.135852435113231 
1003	 0.135334751968876 
1004	 0.13557411637497 
1005	 0.13702035306055 
1006	 0.139005383634919 
1007	 0.137621953477093 
1008	 0.134892721584593 
1009	 0.133164685192065 
1010	 0.13637030963336 
1011	 0.139957443992898 
1012	 0.137192670340052 
1013	 0.136599970788408 
1014	 0.137592858147625 
1015	 0.133839245686939 
1016	 0.132750388452325 
1017	 0.136658464779391 
1018	 0.145212241692602 
1019	 0.14748450368576 
1020	 0.139033472991821 
1021	 0.132282507644731 
1022	 0.130574239755539 
1023	 0.135324018222139 
1024	 0.135019525032841 
1025	 0.131353905539819 
1026	 0.130557886333659 
1027	 0.13265281203838 
1028	 0.136306463934867 
1029	 0.137193065680071 
1030	 0.139807825972417 
1031	 0.14455346100329 
1032	 0.146325552801924 
1033	 0.147094924672432 
1034	 0.148474658346012 
1035	 0.152449303544868 
1036	 0.152110385205419 
1037	 0.141488650854219 
1038	 0.134883173459504 
1039	 0.136624971851587 
1040	 0.148709990786826 
1041	 0.148411095759379 
1042	 0.137814096417296 
1043	 0.143118471764509 
1044	 0.142576045847507 
1045	 0.131664507003042 
1046	 0.124003558653945 
1047	 0.124694047158769 
1048	 0.13505367670518 
1049	 0.146586515740667 
1050	 0.151780000759509 
1051	 0.145198603924137 
1052	 0.130646177504583 
1053	 0.120358541082082 
1054	 0.130864071951582 
1055	 0.122967821448206 
1056	 0.106321916339723 
1057	 0.12597333202091 
1058	 0.134518423448938 
1059	 0.127938980674231 
1060	 0.14623453731296 
1061	 0.161819349057683 
1062	 0.161724427433398 
1063	 0.15169848787104 
1064	 0.139111664254803 
1065	 0.131559661135855 
1066	 0.133570038086794 
1067	 0.131081187740713 
1068	 0.110862743207056 
1069	 0.110479998969007 
1070	 0.119700219407017 
1071	 0.113509005783643 
1072	 0.113467765423427 
1073	 0.12031774334666 
1074	 0.12191997688449 
1075	 0.118493774072706 
