Wavelength	SHSI00097.asd
325	 0.107938090829278 
326	 0.106971713159609 
327	 0.105042924889647 
328	 0.109047423291956 
329	 0.111563922812047 
330	 0.109633405956299 
331	 0.101658039533952 
332	 9.81057599068445E-02 
333	 0.107777540997898 
334	 0.109229759812189 
335	 0.104596589802052 
336	 0.107619171788547 
337	 0.111844481689407 
338	 0.113822340511381 
339	 0.106394451988971 
340	 0.101484208851727 
341	 0.107951135932508 
342	 0.10888885018143 
343	 0.105709993766628 
344	 0.105992819941205 
345	 0.106165863797771 
346	 0.106160435961678 
347	 0.109644633170568 
348	 0.110334990009161 
349	 0.105075698835647 
350	 0.104093966256672 
351	 0.106707929472072 
352	 0.109887735498022 
353	 0.110654631284088 
354	 0.109227962034799 
355	 0.109803076815342 
356	 0.110239330241221 
357	 0.109462385858531 
358	 0.109907894155901 
359	 0.110748629056197 
360	 0.110278484839369 
361	 0.111942374547417 
362	 0.114729643555308 
363	 0.112536946137977 
364	 0.110803820615693 
365	 0.112064686011474 
366	 0.112517132476063 
367	 0.111758895501342 
368	 0.109788873329774 
369	 0.109222113570256 
370	 0.110082206415625 
371	 0.110163412249317 
372	 0.11029804448539 
373	 0.110703573508298 
374	 0.110042827777936 
375	 0.108677466207722 
376	 0.107306831186818 
377	 0.10609114793065 
378	 0.105601330343269 
379	 0.107470670290637 
380	 0.108635837167454 
381	 0.107647484161234 
382	 0.106404279725425 
383	 0.105454322160465 
384	 0.105231078019906 
385	 0.104442464736275 
386	 0.10339668508966 
387	 0.104267790080038 
388	 0.103530862482001 
389	 0.100468864867086 
390	 0.100724627548378 
391	 0.102448149657741 
392	 0.10292656667976 
393	 0.102339598072807 
394	 0.101262326563902 
395	 0.101353159698452 
396	 0.10147580253545 
397	 0.101089565455986 
398	 0.100187665094962 
399	 9.90439518530758E-02 
400	 9.79258693951821E-02 
401	 9.76341709122946E-02 
402	 9.80401972317473E-02 
403	 9.86408718466778E-02 
404	 9.87426405653633E-02 
405	 9.81656206851038E-02 
406	 9.79506417688424E-02 
407	 9.76465516415795E-02 
408	 9.66073188606382E-02 
409	 9.55867068273359E-02 
410	 9.50395041346678E-02 
411	 9.58118974029294E-02 
412	 9.59922368057089E-02 
413	 9.49560612052057E-02 
414	 9.50835344205224E-02 
415	 9.55011165754348E-02 
416	 9.48140035056622E-02 
417	 9.41346876686286E-02 
418	 9.38087807638546E-02 
419	 9.40998721500153E-02 
420	 9.42521900692924E-02 
421	 9.38744443390872E-02 
422	 9.34021119449032E-02 
423	 9.30402478295057E-02 
424	 9.29872314216482E-02 
425	 9.32161223761096E-02 
426	 9.34480059032425E-02 
427	 0.092728525353611 
428	 9.21618354488276E-02 
429	 9.24078902045946E-02 
430	 9.25349695753166E-02 
431	 9.23969756605291E-02 
432	 0.091978310057048 
433	 9.16205802424194E-02 
434	 9.14014936124141E-02 
435	 9.11138940773618E-02 
436	 9.10470860830113E-02 
437	 9.13495596383947E-02 
438	 9.15658877992497E-02 
439	 9.16705571257083E-02 
440	 9.17644631022329E-02 
441	 9.17589566373345E-02 
442	 9.16375629392714E-02 
443	 9.13731717035244E-02 
444	 9.13302010535523E-02 
445	 9.17788559880429E-02 
446	 9.23702576553229E-02 
447	 9.29070924691695E-02 
448	 9.31235176180688E-02 
449	 9.32682717601018E-02 
450	 9.34400968913894E-02 
451	 9.36483880332725E-02 
452	 9.38871260012694E-02 
453	 9.41526501805109E-02 
454	 9.45272822771361E-02 
455	 9.49195697542995E-02 
456	 9.50467570213438E-02 
457	 9.51765000510489E-02 
458	 9.53583197746578E-02 
459	 9.51937876981146E-02 
460	 9.49904183459803E-02 
461	 9.51400892385207E-02 
462	 9.54273090734444E-02 
463	 0.09576168908 
464	 9.60058156318162E-02 
465	 9.63983813407116E-02 
466	 9.69867017007413E-02 
467	 9.71904680191365E-02 
468	 9.72882944024237E-02 
469	 9.77853758239088E-02 
470	 9.78323569847078E-02 
471	 9.75043753968452E-02 
472	 9.78019764323292E-02 
473	 9.83865910526087E-02 
474	 9.89567390218944E-02 
475	 9.89736822690005E-02 
476	 9.87383794271393E-02 
477	 9.88824853060399E-02 
478	 9.93999734402209E-02 
479	 0.100029528308555 
480	 0.099738467933629 
481	 9.92202038389965E-02 
482	 9.90876581791062E-02 
483	 9.93467918211499E-02 
484	 9.98640618633536E-02 
485	 0.100319676095235 
486	 0.10072460775264 
487	 0.100939025458882 
488	 0.100413921500736 
489	 9.98690583761065E-02 
490	 0.10004788771755 
491	 0.100573020924957 
492	 0.10114883187884 
493	 0.101224176576979 
494	 0.101229141777064 
495	 0.101426367551758 
496	 0.102177286646874 
497	 0.102962459739818 
498	 0.103085541863131 
499	 0.103432849594434 
500	 0.104116320869519 
501	 0.104728099708863 
502	 0.105291860354388 
503	 0.105825804217282 
504	 0.106423294124294 
505	 0.107080807513195 
506	 0.107749411543357 
507	 0.1087183673651 
508	 0.109947776784843 
509	 0.110988403264728 
510	 0.111781786759074 
511	 0.112327551007148 
512	 0.113037435437394 
513	 0.113926042895747 
514	 0.114852703619778 
515	 0.115672326423896 
516	 0.116420320977375 
517	 0.117655648531959 
518	 0.118886440281533 
519	 0.119558788627291 
520	 0.120273971525784 
521	 0.121142859489903 
522	 0.12211753374304 
523	 0.12310558913053 
524	 0.12407515251201 
525	 0.125075876885947 
526	 0.126183634845504 
527	 0.127485347405329 
528	 0.128774233367852 
529	 0.129869696740741 
530	 0.130415169156438 
531	 0.131053480630506 
532	 0.132184163123252 
533	 0.133166770202762 
534	 0.134101642156741 
535	 0.135392906318679 
536	 0.136497468892659 
537	 0.137360957361678 
538	 0.138600177935709 
539	 0.139805482687077 
540	 0.140574045770481 
541	 0.141430035551224 
542	 0.142429872103559 
543	 0.143470555087578 
544	 0.144343323923377 
545	 0.145062649558953 
546	 0.146325020753907 
547	 0.147642433856619 
548	 0.148302949781261 
549	 0.149212851887771 
550	 0.150383974538349 
551	 0.151066934407092 
552	 0.15168708231612 
553	 0.152519204829755 
554	 0.15347065546963 
555	 0.154433511177593 
556	 0.155255231355257 
557	 0.155817509505033 
558	 0.156192984867823 
559	 0.156895164810423 
560	 0.157673697725864 
561	 0.158279350195442 
562	 0.158845232719522 
563	 0.159396935490859 
564	 0.160010814553085 
565	 0.160224139794314 
566	 0.160009381480891 
567	 0.160435141694706 
568	 0.161163994573964 
569	 0.161636389778596 
570	 0.161441195532697 
571	 0.160878105656941 
572	 0.16134464829583 
573	 0.161829676315589 
574	 0.161761053358358 
575	 0.161870736150802 
576	 0.162037756117364 
577	 0.161846322655269 
578	 0.161897898318777 
579	 0.162293185266939 
580	 0.162612646571401 
581	 0.162712634483275 
582	 0.162523059461955 
583	 0.1626373504283 
584	 0.162998711690822 
585	 0.163181025660966 
586	 0.163237622463417 
587	 0.163211311415766 
588	 0.163341915931648 
589	 0.163492092249121 
590	 0.163451385533114 
591	 0.163466992686973 
592	 0.16361812713084 
593	 0.16395387047974 
594	 0.164264192467598 
595	 0.164432801350016 
596	 0.164632938973845 
597	 0.164862779086149 
598	 0.165091125705412 
599	 0.165209717225313 
600	 0.165175096512923 
601	 0.164970621922556 
602	 0.164787349066858 
603	 0.164784198677814 
604	 0.16479279291436 
605	 0.164646332649781 
606	 0.16400984033245 
607	 0.163292215108637 
608	 0.1627208521498 
609	 0.162490783044552 
610	 0.162331550598059 
611	 0.161880820048859 
612	 0.161178781248214 
613	 0.160347332354459 
614	 0.159737291540081 
615	 0.159216121041506 
616	 0.158720184562802 
617	 0.158374601406861 
618	 0.158096372946977 
619	 0.157725597061218 
620	 0.157253600866529 
621	 0.156723686555724 
622	 0.156292489968332 
623	 0.156137334954786 
624	 0.156383220168843 
625	 0.156568440108103 
626	 0.156576748147874 
627	 0.156412064826864 
628	 0.156096277425695 
629	 0.155688517453264 
630	 0.155330404280346 
631	 0.155284829932166 
632	 0.155832740877673 
633	 0.15607734574363 
634	 0.155904976206831 
635	 0.155699357203303 
636	 0.155795865129663 
637	 0.156304308007913 
638	 0.156290346045234 
639	 0.156033960741443 
640	 0.156255223757911 
641	 0.156512469042335 
642	 0.156693883850697 
643	 0.15692305915428 
644	 0.157109119994829 
645	 0.157168457728429 
646	 0.157126385873505 
647	 0.156968273797185 
648	 0.156661795159 
649	 0.156217914028166 
650	 0.155679375813908 
651	 0.155205139505826 
652	 0.15470205497519 
653	 0.154030472625184 
654	 0.15270303517423 
655	 0.150876262894644 
656	 0.149873007286194 
657	 0.148525357458968 
658	 0.146305363642553 
659	 0.144245811859197 
660	 0.14229253778414 
661	 0.140203523750566 
662	 0.13797206642159 
663	 0.135600537657783 
664	 0.133087638779862 
665	 0.130742216464742 
666	 0.128813116238173 
667	 0.127053769586724 
668	 0.125414959364799 
669	 0.123831219077097 
670	 0.122670090415614 
671	 0.121966852093719 
672	 0.121089603716401 
673	 0.120279096679437 
674	 0.119863092580098 
675	 0.119915137972481 
676	 0.120274948465683 
677	 0.120398474179924 
678	 0.12067901404217 
679	 0.121384555912485 
680	 0.12276518364754 
681	 0.124521952735127 
682	 0.126149588685523 
683	 0.127836818148652 
684	 0.129791779213523 
685	 0.132657183368318 
686	 0.136334657894887 
687	 0.140658539149702 
688	 0.145015774980996 
689	 0.149247630813961 
690	 0.154300692071284 
691	 0.15933959544691 
692	 0.164311873443302 
693	 0.169712045496477 
694	 0.175293674150015 
695	 0.18052830475196 
696	 0.185647005901168 
697	 0.190681057976343 
698	 0.195896401145645 
699	 0.200852000827133 
700	 0.205298986359008 
701	 0.209792019454482 
702	 0.214282077694336 
703	 0.218650379036952 
704	 0.222683572372187 
705	 0.226306152298636 
706	 0.229204996451402 
707	 0.232151407390739 
708	 0.235584306210687 
709	 0.238658053473559 
710	 0.241306860390477 
711	 0.243640237223911 
712	 0.245952713750809 
713	 0.248288639614593 
714	 0.25037246611709 
715	 0.252330950019184 
716	 0.254392805348564 
717	 0.256529685963986 
718	 0.258609112524265 
719	 0.259900784094751 
720	 0.261181216054347 
721	 0.262706380284268 
722	 0.264441346025973 
723	 0.266283557059314 
724	 0.267978875266965 
725	 0.268997607269806 
726	 0.269502397467871 
727	 0.270618540492513 
728	 0.272038659784356 
729	 0.273502581495448 
730	 0.274300545301949 
731	 0.274831607801424 
732	 0.275758285535167 
733	 0.276338112878924 
734	 0.276579250165816 
735	 0.276949440086486 
736	 0.277521209484683 
737	 0.278307408867909 
738	 0.279024896775409 
739	 0.279773271716607 
740	 0.280866722665577 
741	 0.281457910883555 
742	 0.281478632625852 
743	 0.281771421494673 
744	 0.282480551486072 
745	 0.28362189537141 
746	 0.284065821195648 
747	 0.284052238624374 
748	 0.284703134709054 
749	 0.285127914342076 
750	 0.285189908383738 
751	 0.28587423986474 
752	 0.286639492806288 
753	 0.286874933412377 
754	 0.287467633536356 
755	 0.28834236808131 
756	 0.288915949246378 
757	 0.28862103534274 
758	 0.28746201846486 
759	 0.288419687205298 
760	 0.291769081069553 
761	 0.293474602044971 
762	 0.294143502548914 
763	 0.294439736726959 
764	 0.295122438342534 
765	 0.295273262653046 
766	 0.29478488955898 
767	 0.294467120293945 
768	 0.294376836294859 
769	 0.294535796781608 
770	 0.294602152795748 
771	 0.294633892152598 
772	 0.295158705793337 
773	 0.295788914655871 
774	 0.296257437430621 
775	 0.296678724595074 
776	 0.297162557540458 
777	 0.297914817144071 
778	 0.298314822746788 
779	 0.298358950224691 
780	 0.298919978853248 
781	 0.299449856996148 
782	 0.299521804641883 
783	 0.299601626358588 
784	 0.299730971573197 
785	 0.299780276740778 
786	 0.300207015162052 
787	 0.301036888222141 
788	 0.301631236118165 
789	 0.301930036500058 
790	 0.301939334897208 
791	 0.302094789578615 
792	 0.302438281601065 
793	 0.3029101796023 
794	 0.302829401830611 
795	 0.302292898692528 
796	 0.303214009925173 
797	 0.304152197463411 
798	 0.3036564708344 
799	 0.303894095522137 
800	 0.304708781621362 
801	 0.304471809074576 
802	 0.304394335377853 
803	 0.304894177502864 
804	 0.305546311462243 
805	 0.306025173110815 
806	 0.306066650845208 
807	 0.306731144182631 
808	 0.307825607801622 
809	 0.308150275301134 
810	 0.308379846470278 
811	 0.308787568146352 
812	 0.309177262093825 
813	 0.309683235884999 
814	 0.31047870828115 
815	 0.311249273094352 
816	 0.3119292884081 
817	 0.312647713917341 
818	 0.313345596525767 
819	 0.31397108916565 
820	 0.314423650007822 
821	 0.314758053259783 
822	 0.315027813491767 
823	 0.314916252058396 
824	 0.314793292769716 
825	 0.31583532673157 
826	 0.316969541050194 
827	 0.317660070408392 
828	 0.317589132304375 
829	 0.317117699414668 
830	 0.316774630224339 
831	 0.317384113141133 
832	 0.318569551318631 
833	 0.318735116764136 
834	 0.318785232708412 
835	 0.318999558328183 
836	 0.318748923234271 
837	 0.318286267036529 
838	 0.31795474121174 
839	 0.317972578627537 
840	 0.318264324473205 
841	 0.31846871230938 
842	 0.318638664695131 
843	 0.318754219920972 
844	 0.318700538903456 
845	 0.31859899343202 
846	 0.31856092283861 
847	 0.317539587660982 
848	 0.316258384381367 
849	 0.317520155013282 
850	 0.318080805714875 
851	 0.316941037675266 
852	 0.316805438993403 
853	 0.317088335015284 
854	 0.316951912379365 
855	 0.316882474939156 
856	 0.316828359988506 
857	 0.316418063165159 
858	 0.316278359566107 
859	 0.316463943212313 
860	 0.316029074156442 
861	 0.315727306899297 
862	 0.316251560059826 
863	 0.316338588010417 
864	 0.316129743376513 
865	 0.316489473805341 
866	 0.317132709758701 
867	 0.317890645805736 
868	 0.318481930029095 
869	 0.318862431633607 
870	 0.319046793901262 
871	 0.319286854520593 
872	 0.31992248516849 
873	 0.321492278415179 
874	 0.323086163986931 
875	 0.324288142716951 
876	 0.324738495601028 
877	 0.325524272119834 
878	 0.327237175762162 
879	 0.327918945242539 
880	 0.328272852413258 
881	 0.329851674292291 
882	 0.331262412906227 
883	 0.3321635712416 
884	 0.332543470411032 
885	 0.333969479315938 
886	 0.336770632059091 
887	 0.33653322415343 
888	 0.335579143754548 
889	 0.337559309164504 
890	 0.339745167528137 
891	 0.341006110157019 
892	 0.339537058800923 
893	 0.339701995878444 
894	 0.343142934427997 
895	 0.345464146374966 
896	 0.346189259058793 
897	 0.345317287817526 
898	 0.345410091979572 
899	 0.346818321065738 
900	 0.348755654991014 
901	 0.350119569004358 
902	 0.350708961968161 
903	 0.35192207045098 
904	 0.352545316957794 
905	 0.351741651313246 
906	 0.350923990062073 
907	 0.350938973717708 
908	 0.35287410627776 
909	 0.353635715852012 
910	 0.352765596157612 
911	 0.352345671385156 
912	 0.353118733778249 
913	 0.355126104805301 
914	 0.355530075739325 
915	 0.355054814333984 
916	 0.354997522885414 
917	 0.355445445142365 
918	 0.355855279738393 
919	 0.354433901057814 
920	 0.354311310958634 
921	 0.356021242733579 
922	 0.356318749294178 
923	 0.355705343661966 
924	 0.354819557046721 
925	 0.354366807117774 
926	 0.353871542508213 
927	 0.351866487916459 
928	 0.351500043309127 
929	 0.353466529502116 
930	 0.354748447725296 
931	 0.355330643065654 
932	 0.354985064759857 
933	 0.353486675834386 
934	 0.351455350146432 
935	 0.350046477297918 
936	 0.355362713735948 
937	 0.362735436661781 
938	 0.357204177536338 
939	 0.351266888782051 
940	 0.349781106965916 
941	 0.355355403639887 
942	 0.356031624273301 
943	 0.345239220236447 
944	 0.34551542580233 
945	 0.354843567205483 
946	 0.364865355893468 
947	 0.359023072247578 
948	 0.342420716663003 
949	 0.346785218485504 
950	 0.351677788278459 
951	 0.349438844263453 
952	 0.350983031902738 
953	 0.349218232987357 
954	 0.338619671826216 
955	 0.335282834145223 
956	 0.339447724018105 
957	 0.346653138441843 
958	 0.347022406825317 
959	 0.340325510867211 
960	 0.33463120154468 
961	 0.334840549736627 
962	 0.341163720015124 
963	 0.341113830588311 
964	 0.339387644838789 
965	 0.341300910932592 
966	 0.341894381301621 
967	 0.341865872070038 
968	 0.344103930712858 
969	 0.345615160174797 
970	 0.345552585028853 
971	 0.344610617890801 
972	 0.340942207518758 
973	 0.335559218275317 
974	 0.340607308064932 
975	 0.347247310099442 
976	 0.344838214106067 
977	 0.344789196882976 
978	 0.347127294340807 
979	 0.347290579103993 
980	 0.347641667722746 
981	 0.348574261622287 
982	 0.349599911784251 
983	 0.348091221764831 
984	 0.343908784494141 
985	 0.345140320620271 
986	 0.348479188376162 
987	 0.349448317111354 
988	 0.346633455892445 
989	 0.342982229945351 
990	 0.344796351475366 
991	 0.350025039328411 
992	 0.35575011015344 
993	 0.353777807202495 
994	 0.350943884670025 
995	 0.350494756511005 
996	 0.348746852295337 
997	 0.349001995507944 
998	 0.353907514577255 
999	 0.355206193322431 
1000	 0.354022013261019 
1001	 0.354798323592457 
1002	 0.355338422249773 
1003	 0.354695230876847 
1004	 0.350388476243341 
1005	 0.352786041929618 
1006	 0.362239887425449 
1007	 0.357321589007082 
1008	 0.350907447614138 
1009	 0.352885989967555 
1010	 0.349961157942125 
1011	 0.347798686796903 
1012	 0.355717872713715 
1013	 0.36172061785702 
1014	 0.361134011057081 
1015	 0.348717674374356 
1016	 0.345441669060234 
1017	 0.355478125013321 
1018	 0.363525835618659 
1019	 0.366372642306378 
1020	 0.363130869552759 
1021	 0.360352915126928 
1022	 0.360265326475295 
1023	 0.363628417065245 
1024	 0.359539684325297 
1025	 0.35226949545359 
1026	 0.351347736489076 
1027	 0.359279781515692 
1028	 0.369389530809173 
1029	 0.36040910941028 
1030	 0.354958761594163 
1031	 0.360345310552161 
1032	 0.371655993976577 
1033	 0.37204150622114 
1034	 0.355317846866992 
1035	 0.352816926938176 
1036	 0.360059601636817 
1037	 0.36764860545575 
1038	 0.367800576186308 
1039	 0.363648690295489 
1040	 0.363491533694255 
1041	 0.364663508026652 
1042	 0.367228611627104 
1043	 0.373611922887005 
1044	 0.37214243298939 
1045	 0.363181553808356 
1046	 0.367022086464192 
1047	 0.372357189792481 
1048	 0.37181199722737 
1049	 0.368125882094231 
1050	 0.364409184166566 
1051	 0.362909488398005 
1052	 0.357348292322036 
1053	 0.350750164008318 
1054	 0.349174633722065 
1055	 0.355708971649199 
1056	 0.36627761974621 
1057	 0.371482219436753 
1058	 0.368562434870313 
1059	 0.360947596961992 
1060	 0.363559696770931 
1061	 0.377014338081025 
1062	 0.391946809046492 
1063	 0.36343727565003 
1064	 0.335708413736706 
1065	 0.341644038290314 
1066	 0.347279252510032 
1067	 0.346652997734419 
1068	 0.337555719402516 
1069	 0.319866350959769 
1070	 0.314054960722916 
1071	 0.348512354430969 
1072	 0.356377167721339 
1073	 0.344191978103923 
1074	 0.374389652948088 
1075	 0.380280266884427 
