Wavelength	SHSI00302.asd
325	 8.41470962385526E-02 
326	 8.28511926141293E-02 
327	 0.089789625282287 
328	 8.72355126838652E-02 
329	 8.32708118654673E-02 
330	 8.12062584341124E-02 
331	 8.17774434677707E-02 
332	 8.34852531908953E-02 
333	 8.48360407905225E-02 
334	 8.56403330256366E-02 
335	 8.48865251721018E-02 
336	 7.97453625196396E-02 
337	 0.077980355868308 
338	 0.081329613559114 
339	 8.66563583949749E-02 
340	 8.67056635613741E-02 
341	 7.73426747907544E-02 
342	 7.61788601411815E-02 
343	 8.02496256837714E-02 
344	 7.86089461820513E-02 
345	 7.86631158401455E-02 
346	 8.10158668844533E-02 
347	 8.10802929112644E-02 
348	 0.080233208792812 
349	 7.95122954999817E-02 
350	 7.83582663319945E-02 
351	 7.80254593607461E-02 
352	 8.07035080790002E-02 
353	 7.97296294187003E-02 
354	 0.076135647260834 
355	 7.99422269978614E-02 
356	 8.31229627778054E-02 
357	 8.13071290156454E-02 
358	 8.04250240779425E-02 
359	 8.05892783680861E-02 
360	 8.09079025492292E-02 
361	 8.02966979841036E-02 
362	 7.89297536401039E-02 
363	 7.81516291588732E-02 
364	 0.078529153182776 
365	 8.00250685618004E-02 
366	 8.06609428603047E-02 
367	 8.04216032686165E-02 
368	 7.95816754858535E-02 
369	 7.91304645656568E-02 
370	 7.91679263487229E-02 
371	 0.078983830627966 
372	 7.92233481512405E-02 
373	 8.00789598239345E-02 
374	 8.05239832409029E-02 
375	 8.04599964369329E-02 
376	 7.99459055358156E-02 
377	 7.88989360261745E-02 
378	 7.78126699800035E-02 
379	 7.80449109399227E-02 
380	 7.91757440655501E-02 
381	 8.05674418582387E-02 
382	 8.01173576851746E-02 
383	 7.86063741798406E-02 
384	 7.73236430880502E-02 
385	 7.74247276944698E-02 
386	 7.84952754429567E-02 
387	 7.82746452342917E-02 
388	 7.78019545645931E-02 
389	 7.74594826683205E-02 
390	 7.64784670499684E-02 
391	 0.075850883248333 
392	 7.66967423829802E-02 
393	 7.62153713401015E-02 
394	 0.075026483450133 
395	 0.076788599547903 
396	 7.75413980917073E-02 
397	 7.60321785161866E-02 
398	 7.51295727363456E-02 
399	 7.54144999581323E-02 
400	 0.077048417528509 
401	 0.077102480169767 
402	 7.61195450538196E-02 
403	 7.68931888372249E-02 
404	 7.71704309593099E-02 
405	 7.63494469069762E-02 
406	 7.66098101506987E-02 
407	 7.72449008800431E-02 
408	 7.71743800903736E-02 
409	 0.077006712447402 
410	 7.68889834489768E-02 
411	 7.68861564342536E-02 
412	 7.67546704108324E-02 
413	 7.64517201651178E-02 
414	 7.64522146675954E-02 
415	 7.66415472583713E-02 
416	 7.68158802849194E-02 
417	 7.67487474318829E-02 
418	 0.076575417187342 
419	 7.69081019035291E-02 
420	 7.72392652581166E-02 
421	 7.72685907951427E-02 
422	 7.69742422836838E-02 
423	 7.66899738282305E-02 
424	 7.68860190002494E-02 
425	 7.70328244447727E-02 
426	 7.70823529411765E-02 
427	 7.73626264840681E-02 
428	 7.77007300631831E-02 
429	 7.79861665673521E-02 
430	 7.84028481169145E-02 
431	 7.86442174557218E-02 
432	 7.81792951817846E-02 
433	 7.77830208338961E-02 
434	 7.76956545261989E-02 
435	 7.79185618694863E-02 
436	 7.78912954247258E-02 
437	 7.73816344606533E-02 
438	 7.78560363527792E-02 
439	 7.87193029264245E-02 
440	 7.84987641087254E-02 
441	 7.84587136102464E-02 
442	 7.88301489905427E-02 
443	 7.89665875236533E-02 
444	 0.078919245139598 
445	 7.87800883020123E-02 
446	 7.88984042405322E-02 
447	 7.91794124629195E-02 
448	 7.92622156899026E-02 
449	 7.94347531526663E-02 
450	 7.97130492473225E-02 
451	 7.96900690467653E-02 
452	 7.97496187274011E-02 
453	 8.02450668346501E-02 
454	 0.080219478865797 
455	 7.98551445316514E-02 
456	 8.01589203936721E-02 
457	 8.05926993155679E-02 
458	 8.08849046095084E-02 
459	 8.08033427775075E-02 
460	 8.06605786612621E-02 
461	 8.08411014968869E-02 
462	 8.09575557982798E-02 
463	 8.09580681572185E-02 
464	 8.09451214986723E-02 
465	 8.10025866178244E-02 
466	 8.11715643777143E-02 
467	 0.081386768273491 
468	 8.15240849790294E-02 
469	 8.14230857076031E-02 
470	 8.13439602703438E-02 
471	 8.13619724156231E-02 
472	 8.14128529485724E-02 
473	 8.16447888420221E-02 
474	 8.21141318148833E-02 
475	 8.25292336850128E-02 
476	 8.27980798075277E-02 
477	 8.28703585396771E-02 
478	 8.25773762467463E-02 
479	 8.20940555858601E-02 
480	 8.22385237921846E-02 
481	 8.26047853365642E-02 
482	 8.28401890740337E-02 
483	 8.30395032108559E-02 
484	 8.31557744963573E-02 
485	 8.30301791131764E-02 
486	 8.31195165774121E-02 
487	 8.34944885955687E-02 
488	 8.35082235783464E-02 
489	 8.35185644801595E-02 
490	 0.083896861894887 
491	 0.083873101350524 
492	 8.35322376629938E-02 
493	 0.083442263460622 
494	 8.36408365704129E-02 
495	 8.40747664040073E-02 
496	 8.42170737339204E-02 
497	 8.42158951004421E-02 
498	 8.43315095196955E-02 
499	 8.45701363772804E-02 
500	 8.49360641132886E-02 
501	 8.54515652712608E-02 
502	 8.57717617023734E-02 
503	 8.57233326229096E-02 
504	 8.57103656369658E-02 
505	 8.58784909958224E-02 
506	 8.63586210353392E-02 
507	 0.086942971437167 
508	 8.74234730695394E-02 
509	 0.087285148773078 
510	 8.71928881568361E-02 
511	 8.76445342555306E-02 
512	 8.78510239775185E-02 
513	 8.79370980674533E-02 
514	 8.85451092756155E-02 
515	 8.89209777883794E-02 
516	 8.88816724340359E-02 
517	 8.89950660527995E-02 
518	 8.93706467572347E-02 
519	 9.00374203672756E-02 
520	 9.01846017295108E-02 
521	 9.00120092854243E-02 
522	 9.05270298601634E-02 
523	 9.10656144207578E-02 
524	 9.13627142654648E-02 
525	 9.17682192443049E-02 
526	 9.21648416507592E-02 
527	 9.23441936026388E-02 
528	 9.24134760252705E-02 
529	 9.24686717678175E-02 
530	 9.26782215486616E-02 
531	 9.30799522655533E-02 
532	 9.36474475573085E-02 
533	 9.38941314492863E-02 
534	 9.39855698108062E-02 
535	 9.44085595956701E-02 
536	 9.46964631547541E-02 
537	 0.094760520395584 
538	 9.48807461013148E-02 
539	 9.50864434482191E-02 
540	 9.53830094739761E-02 
541	 9.55911704850582E-02 
542	 9.57543296040119E-02 
543	 9.61282261681496E-02 
544	 9.63349745148769E-02 
545	 9.62888409427708E-02 
546	 9.64985502837907E-02 
547	 9.68383277067358E-02 
548	 9.70803863540282E-02 
549	 9.74199986901335E-02 
550	 9.78210783340003E-02 
551	 9.80616741814353E-02 
552	 9.81007384439808E-02 
553	 9.79780721676253E-02 
554	 0.098263832939126 
555	 0.098702963049846 
556	 0.098665128750047 
557	 9.86843863806761E-02 
558	 9.88802068718119E-02 
559	 9.89888934875012E-02 
560	 0.099065231123487 
561	 9.91708314824762E-02 
562	 9.93054727044611E-02 
563	 9.94909038275647E-02 
564	 9.98106577170306E-02 
565	 0.100011560793608 
566	 9.99746863222897E-02 
567	 0.099719095879984 
568	 9.95035278491233E-02 
569	 9.96437570564962E-02 
570	 9.99174371208387E-02 
571	 0.100201220528322 
572	 0.100325183770506 
573	 0.100355260579172 
574	 0.100327607478048 
575	 0.100161539628319 
576	 0.100023294482145 
577	 0.100222409296625 
578	 0.100432880241412 
579	 0.100543650484663 
580	 0.100606919110347 
581	 0.100579029025612 
582	 0.100435841664413 
583	 0.100346531534036 
584	 0.100359333125773 
585	 0.100499269182492 
586	 0.100695911568953 
587	 0.100858785090652 
588	 0.10068657718923 
589	 0.100443405737346 
590	 0.10051062712653 
591	 0.100776943080216 
592	 0.101044379898243 
593	 0.100783550208956 
594	 0.100582876526857 
595	 0.10077560127646 
596	 0.101030119964005 
597	 0.101221552409442 
598	 0.10121596856623 
599	 0.101206126675916 
600	 0.101250581117826 
601	 0.10132390761904 
602	 0.101320818184197 
603	 0.101166269869954 
604	 0.101118801018368 
605	 0.101142778022363 
606	 0.101000979508211 
607	 0.100933933610777 
608	 0.101046693094334 
609	 0.101385151480781 
610	 0.101541587022274 
611	 0.101022090977351 
612	 0.10104747090122 
613	 0.101491323880619 
614	 0.100835299902459 
615	 0.100266993096836 
616	 0.100453871584335 
617	 0.10044452752114 
618	 0.100402251678415 
619	 0.100875264705835 
620	 0.100798274447357 
621	 0.100170410911921 
622	 0.100466408643548 
623	 0.100862521089685 
624	 0.100618048532301 
625	 0.100683878028344 
626	 0.100966317255092 
627	 0.10074691730217 
628	 0.100655695109565 
629	 0.100881913273836 
630	 0.10097289972288 
631	 0.100967908075591 
632	 0.100965415707084 
633	 0.10077517080807 
634	 0.100559866109487 
635	 0.101017977655185 
636	 0.101238214955757 
637	 0.100791444105327 
638	 0.100956073854691 
639	 0.101379659688596 
640	 0.101146131218045 
641	 0.100777987140193 
642	 0.100505895462458 
643	 0.100595885821623 
644	 0.100679188956794 
645	 0.1004522425396 
646	 0.100504437573388 
647	 0.100723606766421 
648	 0.100502620893411 
649	 0.100410488918558 
650	 0.100628819136294 
651	 0.100867293828719 
652	 0.100857238722089 
653	 0.100324974673736 
654	 0.100140741891583 
655	 0.100308691148756 
656	 0.100067683735998 
657	 0.099594402512569 
658	 9.90477337026689E-02 
659	 9.85483974504704E-02 
660	 9.81934018106066E-02 
661	 9.81234467614688E-02 
662	 0.097945683260329 
663	 9.75179518561764E-02 
664	 9.68232860776947E-02 
665	 9.61253384383177E-02 
666	 9.56687756245037E-02 
667	 0.095642048518811 
668	 9.57512959308777E-02 
669	 9.51907168652754E-02 
670	 9.47629778930477E-02 
671	 9.46940857669061E-02 
672	 9.44407114121302E-02 
673	 9.42667159725437E-02 
674	 9.44990626640135E-02 
675	 9.44128171508087E-02 
676	 9.41028870489863E-02 
677	 9.43899480568849E-02 
678	 0.09468721011721 
679	 9.47228201034582E-02 
680	 0.094916421719664 
681	 0.09534543972075 
682	 9.60697300603856E-02 
683	 9.64489129340431E-02 
684	 9.65701334419987E-02 
685	 9.76370136494123E-02 
686	 9.87594540476388E-02 
687	 9.92063923378898E-02 
688	 0.10051604489844 
689	 0.102219971614024 
690	 0.102960210931349 
691	 0.103687789600348 
692	 0.104667591915875 
693	 0.105541473279979 
694	 0.106487168006573 
695	 0.107638217485986 
696	 0.108282633342707 
697	 0.1086669803254 
698	 0.109897374192866 
699	 0.111015986715022 
700	 0.111619023288887 
701	 0.112466431431792 
702	 0.113175434000612 
703	 0.113123551968949 
704	 0.113718832354057 
705	 0.114887891643683 
706	 0.115119259356025 
707	 0.11513997386113 
708	 0.115424047352849 
709	 0.115697963434741 
710	 0.116097544991843 
711	 0.116969685601293 
712	 0.117394680869431 
713	 0.117279754634441 
714	 0.117678075557217 
715	 0.118023228670066 
716	 0.117805367514254 
717	 0.118034426198172 
718	 0.118723123986213 
719	 0.119066307412234 
720	 0.119253781913385 
721	 0.11936247574145 
722	 0.119483728422873 
723	 0.119582489782268 
724	 0.119598174803725 
725	 0.119586438111485 
726	 0.119653832307603 
727	 0.120069668818058 
728	 0.120446626218115 
729	 0.120616714968279 
730	 0.120975138851667 
731	 0.121258009285059 
732	 0.121066388421454 
733	 0.120916395101692 
734	 0.120932352211097 
735	 0.121040377189294 
736	 0.121285800662486 
737	 0.121660422497574 
738	 0.121901710404864 
739	 0.121984395033532 
740	 0.121913477185639 
741	 0.122149073229745 
742	 0.122648808452871 
743	 0.122577021803621 
744	 0.122365066975957 
745	 0.12239315722137 
746	 0.122347346207906 
747	 0.122348424003723 
748	 0.122825104752679 
749	 0.123163403875869 
750	 0.12322885884499 
751	 0.123673117148165 
752	 0.124073651502303 
753	 0.123956255179747 
754	 0.123710315299728 
755	 0.123543714191519 
756	 0.123829260699033 
757	 0.123853788083253 
758	 0.123365560708889 
759	 0.123352749255185 
760	 0.123937448651278 
761	 0.124545963105754 
762	 0.124617009183174 
763	 0.124393375659263 
764	 0.124763781041446 
765	 0.124916574083472 
766	 0.124696450345513 
767	 0.124827350516364 
768	 0.125146392871739 
769	 0.125431563473731 
770	 0.125615058338235 
771	 0.125664417729146 
772	 0.125545454126127 
773	 0.12556157409486 
774	 0.125892449502663 
775	 0.12626138492295 
776	 0.126358386589829 
777	 0.125678975688118 
778	 0.125484742194226 
779	 0.125997029599993 
780	 0.126349685910529 
781	 0.126411529665443 
782	 0.126148004789966 
783	 0.126190001679864 
784	 0.126439625333767 
785	 0.12642352923505 
786	 0.126618623765241 
787	 0.127029073407032 
788	 0.126935509006619 
789	 0.126712763956788 
790	 0.126751917476858 
791	 0.127010250592219 
792	 0.1273468535825 
793	 0.127451260464826 
794	 0.127447114503423 
795	 0.127407784074431 
796	 0.127437745280959 
797	 0.127702866744918 
798	 0.128296296194216 
799	 0.128112980981785 
800	 0.127458635529914 
801	 0.127787389325296 
802	 0.128020867055246 
803	 0.127850170358923 
804	 0.127941557473745 
805	 0.128209412523096 
806	 0.128502350149054 
807	 0.128707347893308 
808	 0.128754512443218 
809	 0.12850153202568 
810	 0.128433213966792 
811	 0.128697103096621 
812	 0.128655802096488 
813	 0.128540452957261 
814	 0.128718956426984 
815	 0.12890597345011 
816	 0.129022994599151 
817	 0.129079296862072 
818	 0.129049941825103 
819	 0.128984157848825 
820	 0.12914917741894 
821	 0.129432244893142 
822	 0.129676436965581 
823	 0.13004208680458 
824	 0.130386305710049 
825	 0.130282618059059 
826	 0.130064963566455 
827	 0.129970251727301 
828	 0.130466511584437 
829	 0.131012077553355 
830	 0.130917989306407 
831	 0.131280466922399 
832	 0.131961209139719 
833	 0.131941787382282 
834	 0.131548959906043 
835	 0.131039845539898 
836	 0.13102046504933 
837	 0.131138901515511 
838	 0.130944867834244 
839	 0.130830628496031 
840	 0.130931856092568 
841	 0.131443490370237 
842	 0.131777816681931 
843	 0.13164447343538 
844	 0.131049233616226 
845	 0.130626909389565 
846	 0.131050351728855 
847	 0.131581227928058 
848	 0.131856780715921 
849	 0.131346588624308 
850	 0.13080319159019 
851	 0.130647702252241 
852	 0.131172311481418 
853	 0.131698764222798 
854	 0.131518983747823 
855	 0.131645777847768 
856	 0.132002380526679 
857	 0.131902732839581 
858	 0.13172078408902 
859	 0.131615981585095 
860	 0.131745358922429 
861	 0.131792867172156 
862	 0.131500354382245 
863	 0.131668112532101 
864	 0.132200876764557 
865	 0.13253397116485 
866	 0.132739955673906 
867	 0.132737474315721 
868	 0.132107253010474 
869	 0.131844023384408 
870	 0.132650931997543 
871	 0.133057951865076 
872	 0.133089487576634 
873	 0.133272336908209 
874	 0.133363899400351 
875	 0.133279616198012 
876	 0.132903845387426 
877	 0.132670812009782 
878	 0.132844257581108 
879	 0.132746750147051 
880	 0.132881965833402 
881	 0.134236427256355 
882	 0.13379759985102 
883	 0.132094789852092 
884	 0.134188048231201 
885	 0.135401515694747 
886	 0.133585811186438 
887	 0.133513902175413 
888	 0.134288955674745 
889	 0.134044924386898 
890	 0.133531580914732 
891	 0.133335890160669 
892	 0.134977525009404 
893	 0.135786197109341 
894	 0.134686696782427 
895	 0.133825450856764 
896	 0.133768894883997 
897	 0.134886326504776 
898	 0.135800473310196 
899	 0.136043993905698 
900	 0.135386507085627 
901	 0.135065091885304 
902	 0.135123828120478 
903	 0.133368213830966 
904	 0.132548689216764 
905	 0.134593870620323 
906	 0.136628014616611 
907	 0.136994675417732 
908	 0.133561230225728 
909	 0.133016580891451 
910	 0.135912176224498 
911	 0.135992853635697 
912	 0.135484999248299 
913	 0.135591944421302 
914	 0.135167279846902 
915	 0.135278496382372 
916	 0.137190184019318 
917	 0.137918233519115 
918	 0.137425908431875 
919	 0.137597981478223 
920	 0.136649240819122 
921	 0.134833099732152 
922	 0.136418016196043 
923	 0.138261638083774 
924	 0.137452773022701 
925	 0.136345559328226 
926	 0.135160402543669 
927	 0.133488087978103 
928	 0.132423010906411 
929	 0.132710587233898 
930	 0.135496380979775 
931	 0.137622174175901 
932	 0.136391874937309 
933	 0.133867695918651 
934	 0.131059132609324 
935	 0.129354473011091 
936	 0.133445283871966 
937	 0.140268766444395 
938	 0.139502039067515 
939	 0.137578286863929 
940	 0.136937587185043 
941	 0.139005133881042 
942	 0.139094354308164 
943	 0.134677740633929 
944	 0.135034579254664 
945	 0.138916529714974 
946	 0.142190873071538 
947	 0.144719922859908 
948	 0.144004699716015 
949	 0.132187021863213 
950	 0.125979836814445 
951	 0.131976991946512 
952	 0.141847590822332 
953	 0.144973458893307 
954	 0.134655899778775 
955	 0.13542150202586 
956	 0.141009387477683 
957	 0.132253239866058 
958	 0.132726169312359 
959	 0.14166013722708 
960	 0.136301192217312 
961	 0.131718429548468 
962	 0.13406055000485 
963	 0.133236038550842 
964	 0.132838256932707 
965	 0.136657432915332 
966	 0.139439660961955 
967	 0.139892691727005 
968	 0.136920763554311 
969	 0.13945268719936 
970	 0.146071840468705 
971	 0.142358021524326 
972	 0.136529813943369 
973	 0.133646554206255 
974	 0.133006555741438 
975	 0.133578967157338 
976	 0.134138704891472 
977	 0.133752474764001 
978	 0.133737981214052 
979	 0.137278357748268 
980	 0.141527460998339 
981	 0.144458664270694 
982	 0.14324829197896 
983	 0.139825902601122 
984	 0.136285227459619 
985	 0.136608386692162 
986	 0.138835437135605 
987	 0.140337992216878 
988	 0.139685082319746 
989	 0.138525901632648 
990	 0.140854190817779 
991	 0.14207686956001 
992	 0.14141202580063 
993	 0.141105355124123 
994	 0.140370827841533 
995	 0.139358441500078 
996	 0.141167525274487 
997	 0.142786340139355 
998	 0.14127428238067 
999	 0.140287160698503 
1000	 0.138586889742027 
1001	 0.132859385002507 
1002	 0.133963330007521 
1003	 0.14150952863413 
1004	 0.145352044669571 
1005	 0.144462713298295 
1006	 0.139498125543518 
1007	 0.137273840863135 
1008	 0.137965847848844 
1009	 0.141072535338419 
1010	 0.144759784937717 
1011	 0.146319244178392 
1012	 0.142811938604038 
1013	 0.141257819132227 
1014	 0.139804881412765 
1015	 0.128919657942182 
1016	 0.127192996808058 
1017	 0.136836022166233 
1018	 0.139693016144677 
1019	 0.142418008337173 
1020	 0.146768861111238 
1021	 0.140675882648113 
1022	 0.134138144619311 
1023	 0.137700100157976 
1024	 0.13862504315234 
1025	 0.13719895407624 
1026	 0.137321969940543 
1027	 0.136952210550341 
1028	 0.136301431462433 
1029	 0.136408121497859 
1030	 0.142152997048847 
1031	 0.151522470207648 
1032	 0.147683471256294 
1033	 0.14486074902019 
1034	 0.151648603118955 
1035	 0.160780186276709 
1036	 0.163931051324936 
1037	 0.154835416827048 
1038	 0.148056459743747 
1039	 0.144611155770629 
1040	 0.141256574910841 
1041	 0.143774973260097 
1042	 0.150262296093176 
1043	 0.15184250911456 
1044	 0.147153239832825 
1045	 0.137705679812979 
1046	 0.134698283163158 
1047	 0.133250649826598 
1048	 0.131617787492017 
1049	 0.140349330232033 
1050	 0.146914323382061 
1051	 0.139897650158843 
1052	 0.131482339699068 
1053	 0.125370692727411 
1054	 0.124359620095124 
1055	 0.1337352883329 
1056	 0.144989821151461 
1057	 0.134960504251901 
1058	 0.139228072188085 
1059	 0.154569849101768 
1060	 0.125772238702179 
1061	 0.119446227727016 
1062	 0.154537916526341 
1063	 0.159052391404565 
1064	 0.153314796890635 
1065	 0.153135572640541 
1066	 0.136039725101285 
1067	 0.123403418674962 
1068	 0.139810070167381 
1069	 0.139106768423158 
1070	 0.131162702642398 
1071	 0.142862732881693 
1072	 0.127363733317343 
1073	 9.49270707585306E-02 
1074	 0.101649240888205 
1075	 0.138959421551557 
