Wavelength	SHSI00241.asd
325	 0.127831700780972 
326	 0.120050696506392 
327	 0.106395468627316 
328	 0.123893308889013 
329	 0.13145297124185 
330	 0.117803220865674 
331	 0.110466064711778 
332	 0.111954191818773 
333	 0.121749281359081 
334	 0.126458708696946 
335	 0.125022208540917 
336	 0.12131109459997 
337	 0.119148037890794 
338	 0.119104255878314 
339	 0.11564361091151 
340	 0.116278555469238 
341	 0.125725593936048 
342	 0.126551384615918 
343	 0.122764617027567 
344	 0.127234831629842 
345	 0.128868009245984 
346	 0.1266583031225 
347	 0.128031209645088 
348	 0.129760249527784 
349	 0.129706271416123 
350	 0.129912328719538 
351	 0.130791737655099 
352	 0.132752562634113 
353	 0.132253719279603 
354	 0.129819795543946 
355	 0.130461324660929 
356	 0.132702457357518 
357	 0.13522673605645 
358	 0.135787379408269 
359	 0.135485846740953 
360	 0.136407797058485 
361	 0.137411617559161 
362	 0.138081771511435 
363	 0.138220889418311 
364	 0.137223174753357 
365	 0.135359206445335 
366	 0.135992282976873 
367	 0.138348771124326 
368	 0.140920396876313 
369	 0.141509906421474 
370	 0.140511526842059 
371	 0.14081395957909 
372	 0.143855492203531 
373	 0.149019300449251 
374	 0.146798608564225 
375	 0.141678407710978 
376	 0.141077235138027 
377	 0.140093882554067 
378	 0.138794839889125 
379	 0.140887692753782 
380	 0.14246583850566 
381	 0.1419109521087 
382	 0.143395259724284 
383	 0.145027647842695 
384	 0.143885920096099 
385	 0.143271023234536 
386	 0.142998374375934 
387	 0.139974721810234 
388	 0.137422064945847 
389	 0.137015798319513 
390	 0.139212477745426 
391	 0.141967028380266 
392	 0.142883118715676 
393	 0.143153758044225 
394	 0.142675149627865 
395	 0.140617768340084 
396	 0.138237683338202 
397	 0.136322445978801 
398	 0.135723230464649 
399	 0.135172770470515 
400	 0.133430811030509 
401	 0.134331466561234 
402	 0.13726284068905 
403	 0.139211141263731 
404	 0.140377433341618 
405	 0.140950616079847 
406	 0.142005743973734 
407	 0.142679225675152 
408	 0.141841921193751 
409	 0.140527594078923 
410	 0.13951233929061 
411	 0.140103733712488 
412	 0.141016968014801 
413	 0.141392325451697 
414	 0.140023874778558 
415	 0.138886360161345 
416	 0.140594268151541 
417	 0.141639397842318 
418	 0.141540576404213 
419	 0.14156649304738 
420	 0.141678437854815 
421	 0.141839105874747 
422	 0.141691695133172 
423	 0.141641190238766 
424	 0.142326068383641 
425	 0.142687690495596 
426	 0.142696609395936 
427	 0.143375502815203 
428	 0.143792005545 
429	 0.143374719336793 
430	 0.14294581656083 
431	 0.142246399280461 
432	 0.140605160992107 
433	 0.140361567094531 
434	 0.141514655036537 
435	 0.141619130101638 
436	 0.142045622843801 
437	 0.14354812981672 
438	 0.144090682655635 
439	 0.143945535499058 
440	 0.144149166077943 
441	 0.14435566714177 
442	 0.144548430810467 
443	 0.14488815633532 
444	 0.145479176781396 
445	 0.146329401400885 
446	 0.146542442808334 
447	 0.146474810384598 
448	 0.147240963212423 
449	 0.14808974046329 
450	 0.148802286606364 
451	 0.149563007904274 
452	 0.150412345590432 
453	 0.151365009998247 
454	 0.1520588139397 
455	 0.152580433866114 
456	 0.153501343743396 
457	 0.153742484837842 
458	 0.153131597501544 
459	 0.153347994205874 
460	 0.154139829844619 
461	 0.155008540941463 
462	 0.155016196584151 
463	 0.154584317243753 
464	 0.155786771544654 
465	 0.156831054815348 
466	 0.156933916123901 
467	 0.157764918190348 
468	 0.158446898318446 
469	 0.157473731218884 
470	 0.157036950872266 
471	 0.157598794759292 
472	 0.158500295681023 
473	 0.15948838104651 
474	 0.160301240106619 
475	 0.160443232216006 
476	 0.160260076977518 
477	 0.160447517547416 
478	 0.160757714259856 
479	 0.161185006675757 
480	 0.161955508542695 
481	 0.162607334810402 
482	 0.162820448880466 
483	 0.16341696187336 
484	 0.164298326847854 
485	 0.16497859727869 
486	 0.164965598054119 
487	 0.164215414549548 
488	 0.163676691724396 
489	 0.163204861339284 
490	 0.162646526571929 
491	 0.163536830713386 
492	 0.165214891681523 
493	 0.165128378163656 
494	 0.165178668248312 
495	 0.166082123922539 
496	 0.166877153031099 
497	 0.167652764415376 
498	 0.168635895541287 
499	 0.169426846639905 
500	 0.169952943433842 
501	 0.170322468406197 
502	 0.170793096732395 
503	 0.171467097514006 
504	 0.171786766037477 
505	 0.172015954280004 
506	 0.172648515206446 
507	 0.173996535178969 
508	 0.17581669195951 
509	 0.176702882241345 
510	 0.177717899076712 
511	 0.179632360866021 
512	 0.180865019172974 
513	 0.18161247658368 
514	 0.182981148767671 
515	 0.184054666572059 
516	 0.184705027616107 
517	 0.18613702126787 
518	 0.187302237480334 
519	 0.187071432860394 
520	 0.187086983383397 
521	 0.187772806331794 
522	 0.18918210448001 
523	 0.190999334392785 
524	 0.192975274573637 
525	 0.194719249635307 
526	 0.196044275457055 
527	 0.196765985829124 
528	 0.197327939918227 
529	 0.198016272986619 
530	 0.199203716429762 
531	 0.200753832993557 
532	 0.202461835431102 
533	 0.203418026505897 
534	 0.203885101379637 
535	 0.204619825168338 
536	 0.205578580120929 
537	 0.206821034374532 
538	 0.208534299401164 
539	 0.210074065465872 
540	 0.210823789101355 
541	 0.211191552443424 
542	 0.211523997564238 
543	 0.212400864122469 
544	 0.213602878158707 
545	 0.214951879146012 
546	 0.215990438914748 
547	 0.216785887293846 
548	 0.217492478605932 
549	 0.218021333988391 
550	 0.21850982072974 
551	 0.219424064454145 
552	 0.220342461179226 
553	 0.221068514699988 
554	 0.222396653339836 
555	 0.223891367308193 
556	 0.224555948830776 
557	 0.225353665724073 
558	 0.226346688741865 
559	 0.2263589428686 
560	 0.22638229999853 
561	 0.227333995667418 
562	 0.228411901903839 
563	 0.229365852780034 
564	 0.230017377477598 
565	 0.230397194306604 
566	 0.230569427190337 
567	 0.230815646469984 
568	 0.231189585820613 
569	 0.231714948912201 
570	 0.232154719961003 
571	 0.232466768593692 
572	 0.232782153555159 
573	 0.232973905997555 
574	 0.233039279969606 
575	 0.233543130559808 
576	 0.234299441144494 
577	 0.234816566001479 
578	 0.235432199927134 
579	 0.236112919878604 
580	 0.236297341773279 
581	 0.236548704050015 
582	 0.237333868704973 
583	 0.237806346907714 
584	 0.238012488418129 
585	 0.238440276369241 
586	 0.239074829452098 
587	 0.239837327685645 
588	 0.240215930087708 
589	 0.240294400607913 
590	 0.24025410984243 
591	 0.240349914369616 
592	 0.240631464497825 
593	 0.240998684894157 
594	 0.241298988847387 
595	 0.241473804578822 
596	 0.241845790808269 
597	 0.242408038996408 
598	 0.243114813648677 
599	 0.243376759893554 
600	 0.243117176033528 
601	 0.242887554060152 
602	 0.242907240224932 
603	 0.243316203206663 
604	 0.243560801758824 
605	 0.243758749347064 
606	 0.244627396384108 
607	 0.244886616206625 
608	 0.244167160310233 
609	 0.243755893180908 
610	 0.243538660073674 
611	 0.243217981473032 
612	 0.242892002039331 
613	 0.242495601236021 
614	 0.24168399448543 
615	 0.241268382719379 
616	 0.241613923633157 
617	 0.241304971203434 
618	 0.240606795094689 
619	 0.24027004353994 
620	 0.240547811861887 
621	 0.241247397218565 
622	 0.2411577710209 
623	 0.240756196130696 
624	 0.24053945901118 
625	 0.240728433766564 
626	 0.241134146395964 
627	 0.241064562847504 
628	 0.241378877552728 
629	 0.24224790320996 
630	 0.242611193234423 
631	 0.242540133152674 
632	 0.242256765069838 
633	 0.242107846013847 
634	 0.242223617524208 
635	 0.242612818150389 
636	 0.243122004590386 
637	 0.243627741101458 
638	 0.244036884621675 
639	 0.244383004748288 
640	 0.244732796152032 
641	 0.245371165596506 
642	 0.24614948367321 
643	 0.246078383942045 
644	 0.245834304873244 
645	 0.246051048768753 
646	 0.246581750959162 
647	 0.24722728504321 
648	 0.247658435836815 
649	 0.24740758080176 
650	 0.246398565646086 
651	 0.245388361965002 
652	 0.244733808074692 
653	 0.244740355956561 
654	 0.244848407156271 
655	 0.244420675195575 
656	 0.242001461975837 
657	 0.239367471843 
658	 0.237639973273162 
659	 0.235594761981041 
660	 0.233399080726261 
661	 0.23157005531852 
662	 0.229848092739664 
663	 0.228058859701825 
664	 0.22584933359311 
665	 0.223499579648238 
666	 0.22127056602695 
667	 0.2192887164939 
668	 0.217570045725872 
669	 0.216048941988955 
670	 0.214582484935795 
671	 0.213235804052075 
672	 0.212764661522047 
673	 0.212383225685509 
674	 0.211164240126366 
675	 0.210690265872444 
676	 0.211170171661975 
677	 0.212124883422077 
678	 0.212961231681618 
679	 0.213459409794624 
680	 0.214702000994518 
681	 0.21654911436947 
682	 0.218559926444228 
683	 0.221131522232171 
684	 0.224264132272521 
685	 0.2277151883793 
686	 0.231744808186693 
687	 0.236497082998151 
688	 0.241620182990343 
689	 0.246494601278294 
690	 0.251033744667978 
691	 0.256276783450845 
692	 0.262534525827779 
693	 0.269013408401561 
694	 0.275336898813982 
695	 0.280897299798126 
696	 0.286106274600885 
697	 0.291254394413179 
698	 0.29714692174386 
699	 0.302422755975856 
700	 0.306529528057965 
701	 0.311326632085834 
702	 0.316123486403866 
703	 0.319746868348235 
704	 0.323373985883333 
705	 0.327206573213044 
706	 0.330714644754028 
707	 0.334000436249868 
708	 0.337078047358345 
709	 0.339664824199161 
710	 0.341945093645896 
711	 0.34423561444947 
712	 0.347084252739987 
713	 0.350271438640765 
714	 0.352043623562393 
715	 0.353492434155082 
716	 0.355798717672791 
717	 0.358575955735092 
718	 0.361562979170434 
719	 0.363775789714432 
720	 0.365271509687867 
721	 0.366254523722851 
722	 0.367554805016975 
723	 0.369129421855811 
724	 0.370779676856611 
725	 0.372261053898399 
726	 0.373512114527809 
727	 0.374982612149216 
728	 0.376196216551835 
729	 0.377077330816637 
730	 0.378864048411541 
731	 0.380746667443796 
732	 0.381470224978781 
733	 0.382033970031795 
734	 0.382812198805566 
735	 0.384208080207273 
736	 0.385292464052251 
737	 0.385544648454859 
738	 0.386655289266566 
739	 0.388090570512209 
740	 0.38837948470188 
741	 0.388950719090085 
742	 0.390056387962786 
743	 0.39081401234239 
744	 0.391513602104455 
745	 0.392389082849284 
746	 0.392773570129689 
747	 0.393094758531045 
748	 0.394718517681004 
749	 0.395905459885178 
750	 0.396245541058024 
751	 0.397280456318834 
752	 0.398511327687857 
753	 0.399287118096643 
754	 0.399360887659573 
755	 0.399252704887941 
756	 0.400962585637817 
757	 0.400422428498262 
758	 0.396448636932109 
759	 0.396544677974435 
760	 0.402324663068222 
761	 0.409934202731476 
762	 0.412475058131243 
763	 0.410831919851726 
764	 0.411934852936582 
765	 0.413056660657304 
766	 0.413146806571513 
767	 0.411895684379201 
768	 0.410704375014753 
769	 0.411173718733197 
770	 0.411763862798485 
771	 0.412205263632853 
772	 0.412828078616896 
773	 0.413931587413683 
774	 0.415548762861249 
775	 0.416215771432241 
776	 0.416167215669495 
777	 0.416208468554443 
778	 0.416529505305278 
779	 0.417260135010301 
780	 0.418413195632779 
781	 0.419688788151258 
782	 0.420779179169189 
783	 0.421157121673704 
784	 0.421246417156051 
785	 0.422144184225751 
786	 0.422816085896759 
787	 0.423006480738483 
788	 0.423092721044948 
789	 0.423648577501751 
790	 0.4250972676781 
791	 0.426026300688856 
792	 0.426509833333684 
793	 0.427459160743471 
794	 0.428278124682143 
795	 0.428774167982153 
796	 0.429061996371804 
797	 0.4292244150003 
798	 0.429376391848854 
799	 0.430033446425915 
800	 0.431155075274776 
801	 0.432395108184786 
802	 0.43327490334948 
803	 0.433688789886197 
804	 0.434569848395526 
805	 0.435034387606684 
806	 0.434184726437175 
807	 0.434551433150707 
808	 0.436050548124404 
809	 0.43694382875472 
810	 0.437317697242662 
811	 0.4372682710994 
812	 0.437591177980048 
813	 0.438191774592932 
814	 0.438884337544073 
815	 0.441363536493615 
816	 0.445018930064837 
817	 0.446863827547706 
818	 0.447337141085795 
819	 0.446832485212741 
820	 0.446044167131335 
821	 0.44629115476352 
822	 0.448961088415437 
823	 0.451720647844217 
824	 0.453085747167161 
825	 0.450955402169013 
826	 0.449443962658777 
827	 0.450190277696062 
828	 0.451297633795114 
829	 0.452373058474458 
830	 0.453137178279959 
831	 0.454177299337634 
832	 0.455305922427372 
833	 0.455690082978689 
834	 0.455839197233632 
835	 0.456032049543132 
836	 0.45651747963447 
837	 0.456774207334776 
838	 0.45625679907254 
839	 0.456870671551401 
840	 0.458240663917096 
841	 0.458092830313624 
842	 0.458068389334424 
843	 0.458659166306937 
844	 0.458580168079603 
845	 0.458007180344777 
846	 0.457281480734328 
847	 0.456827721827869 
848	 0.456900185588853 
849	 0.457984750454243 
850	 0.458440145595833 
851	 0.457931454460532 
852	 0.458917664660439 
853	 0.460696758066801 
854	 0.462236620168348 
855	 0.462962070390162 
856	 0.46274154876586 
857	 0.461541901777678 
858	 0.460867677615106 
859	 0.461251458794723 
860	 0.462232167166333 
861	 0.4626236048206 
862	 0.461467049616217 
863	 0.46110156749603 
864	 0.461702976146375 
865	 0.462417280934759 
866	 0.46459218036604 
867	 0.467680584730921 
868	 0.4674393444622 
869	 0.466692617689525 
870	 0.467747392758761 
871	 0.468006893010468 
872	 0.468058296947585 
873	 0.469761572271741 
874	 0.471109911822734 
875	 0.471746158429058 
876	 0.472957153440426 
877	 0.473916747743728 
878	 0.474288970465082 
879	 0.47633173382693 
880	 0.478917455732663 
881	 0.479772494162014 
882	 0.480249592740574 
883	 0.480890279570415 
884	 0.482326312408968 
885	 0.483524647628799 
886	 0.483844007760348 
887	 0.483259399382593 
888	 0.482933891414172 
889	 0.484314112173108 
890	 0.48449095603301 
891	 0.48361378252191 
892	 0.484289083774011 
893	 0.485635043001462 
894	 0.487288527196538 
895	 0.489293059290951 
896	 0.491253245805014 
897	 0.492832465983498 
898	 0.4967485116733 
899	 0.501839418997123 
900	 0.504080447627878 
901	 0.504123356879017 
902	 0.50253706556626 
903	 0.500795497527742 
904	 0.498866959602258 
905	 0.497210558855697 
906	 0.500400012009273 
907	 0.505790902160434 
908	 0.507587410428089 
909	 0.505997246844361 
910	 0.502770443935722 
911	 0.50481811825685 
912	 0.506005367299397 
913	 0.503900817752681 
914	 0.507481183487652 
915	 0.512575617184746 
916	 0.513078947499949 
917	 0.512491398258496 
918	 0.510882996322635 
919	 0.505860589793464 
920	 0.504629526912753 
921	 0.507585306409376 
922	 0.502507592708772 
923	 0.496957504614085 
924	 0.497729208011414 
925	 0.498297022801817 
926	 0.49721803376574 
927	 0.493595277690285 
928	 0.492438932290209 
929	 0.495943531252654 
930	 0.504032542592332 
931	 0.510175216638303 
932	 0.509974735835505 
933	 0.52161759248123 
934	 0.534851415721824 
935	 0.531430215810922 
936	 0.527319582949403 
937	 0.522557012432044 
938	 0.505160485265583 
939	 0.4957106914658 
940	 0.499694713863494 
941	 0.511350437444879 
942	 0.51900368875633 
943	 0.515062336387265 
944	 0.511990483133737 
945	 0.511600684676829 
946	 0.513728617392865 
947	 0.517179728048721 
948	 0.518944865646552 
949	 0.510949357030971 
950	 0.506796250112429 
951	 0.510504694985873 
952	 0.508559521899668 
953	 0.505604332235929 
954	 0.506469311793117 
955	 0.509211214649073 
956	 0.512594830888429 
957	 0.515258632826618 
958	 0.514369702954124 
959	 0.51083608739739 
960	 0.509370428752024 
961	 0.512369393164649 
962	 0.518240726987226 
963	 0.512988072105406 
964	 0.506229316734009 
965	 0.507793886851545 
966	 0.51184425104979 
967	 0.512922297287264 
968	 0.502052053646104 
969	 0.500597158833395 
970	 0.508844630794048 
971	 0.503397912809426 
972	 0.502512236530703 
973	 0.5137312039401 
974	 0.517358443825452 
975	 0.515287722546264 
976	 0.512299239014638 
977	 0.514871067341488 
978	 0.519108832456209 
979	 0.513863752900512 
980	 0.508853407234492 
981	 0.508307895707595 
982	 0.516034450121017 
983	 0.519400028310592 
984	 0.513356028388851 
985	 0.51361211612592 
986	 0.514059673473009 
987	 0.507601105373736 
988	 0.509385663453798 
989	 0.515431682240624 
990	 0.512240675639439 
991	 0.513720124632291 
992	 0.519691794568313 
993	 0.514853855373061 
994	 0.511827753058105 
995	 0.515522144903979 
996	 0.514582889688914 
997	 0.511742508221053 
998	 0.510769071743907 
999	 0.51383645763649 
1000	 0.518432972813351 
1001	 0.51978619856713 
1002	 0.522784506951024 
1003	 0.526921324230778 
1004	 0.527318472146272 
1005	 0.524616719164488 
1006	 0.520397727254373 
1007	 0.520823501476389 
1008	 0.52072044795877 
1009	 0.516472326027545 
1010	 0.514384506452878 
1011	 0.514320213834278 
1012	 0.515127272185973 
1013	 0.521862152496276 
1014	 0.530254403812895 
1015	 0.527494228666625 
1016	 0.52193708030897 
1017	 0.517057198611015 
1018	 0.51414699260837 
1019	 0.51932813933933 
1020	 0.532127704749833 
1021	 0.529571897925277 
1022	 0.518765547463929 
1023	 0.510415412675148 
1024	 0.516504767833656 
1025	 0.525929037509432 
1026	 0.517371032982334 
1027	 0.516193013929135 
1028	 0.524271727140701 
1029	 0.52717332380988 
1030	 0.528422872035957 
1031	 0.530386691261491 
1032	 0.540225429705157 
1033	 0.544996152201546 
1034	 0.537485374267826 
1035	 0.526904898017206 
1036	 0.525262513775945 
1037	 0.542282447390828 
1038	 0.548819107724502 
1039	 0.53847788554532 
1040	 0.511494366086203 
1041	 0.523008194104941 
1042	 0.557867546589291 
1043	 0.527863960374765 
1044	 0.519661987854527 
1045	 0.547395230521428 
1046	 0.528751358402539 
1047	 0.524753587081622 
1048	 0.559358721606353 
1049	 0.5307155567161 
1050	 0.495629327679441 
1051	 0.514845754041639 
1052	 0.513376833732974 
1053	 0.500250153180845 
1054	 0.50638204577054 
1055	 0.507205157760587 
1056	 0.503265093099706 
1057	 0.506835736452432 
1058	 0.520866839698922 
1059	 0.537274177505439 
1060	 0.525851565951313 
1061	 0.52034231661914 
1062	 0.531371563704589 
1063	 0.524378217766937 
1064	 0.499597761223653 
1065	 0.465269492966065 
1066	 0.475867548343103 
1067	 0.499683289449487 
1068	 0.499091967474548 
1069	 0.503361615992601 
1070	 0.51795240105483 
1071	 0.546845381987583 
1072	 0.529328256631304 
1073	 0.48411552437017 
1074	 0.478956858900972 
1075	 0.47194678756179 
