Wavelength	SHSI00191.asd
325	 8.39485635890156E-02 
326	 7.61437413158418E-02 
327	 6.66782060872455E-02 
328	 6.82165270510965E-02 
329	 6.70362777438437E-02 
330	 5.98494063032912E-02 
331	 5.80577930225753E-02 
332	 5.93817465008824E-02 
333	 6.08275368290671E-02 
334	 6.20693436946747E-02 
335	 6.22010410202362E-02 
336	 5.93481507302407E-02 
337	 0.058209325323133 
338	 5.97088017781768E-02 
339	 6.07746536533329E-02 
340	 6.10687230534728E-02 
341	 6.06309221456844E-02 
342	 6.11243154094017E-02 
343	 6.26765677472073E-02 
344	 6.49695869942311E-02 
345	 6.76687655853208E-02 
346	 6.96869418254737E-02 
347	 6.75102720814653E-02 
348	 0.065682697835304 
349	 6.68731472920636E-02 
350	 6.60050094930733E-02 
351	 6.47160651903517E-02 
352	 6.67248168985766E-02 
353	 6.55194591487894E-02 
354	 6.20951781738199E-02 
355	 6.63507443272804E-02 
356	 6.98503486303114E-02 
357	 6.80272627622385E-02 
358	 6.94698655742242E-02 
359	 7.09206912681431E-02 
360	 6.60647965482136E-02 
361	 6.42781639474908E-02 
362	 6.61566434850655E-02 
363	 0.065517369020263 
364	 6.49410002923931E-02 
365	 6.56276949936947E-02 
366	 6.60001192054271E-02 
367	 6.63856575097026E-02 
368	 6.74003265946601E-02 
369	 0.069843299418823 
370	 7.20954699717987E-02 
371	 6.74505384229273E-02 
372	 0.066607413164605 
373	 0.073663969000345 
374	 7.32848618862365E-02 
375	 6.89203298980784E-02 
376	 6.75270154588219E-02 
377	 6.55077803375104E-02 
378	 6.37736355112924E-02 
379	 6.75935611733455E-02 
380	 7.01932781239078E-02 
381	 6.86556938408539E-02 
382	 6.96379029529714E-02 
383	 7.09530076875956E-02 
384	 0.068963856177633 
385	 6.73199973397877E-02 
386	 6.65609772130902E-02 
387	 6.54707814574287E-02 
388	 0.063796388481416 
389	 0.062129995822328 
390	 6.46479171734065E-02 
391	 0.068222502839262 
392	 6.87980927025155E-02 
393	 6.71205313574368E-02 
394	 6.45236805675412E-02 
395	 6.43692081293731E-02 
396	 6.44284722855341E-02 
397	 0.063564145138387 
398	 6.07495723757464E-02 
399	 5.89957220053057E-02 
400	 6.10790991286658E-02 
401	 6.17004659589416E-02 
402	 6.11829031578746E-02 
403	 6.31579469050401E-02 
404	 6.43154049498815E-02 
405	 6.36816353737083E-02 
406	 6.44925817597736E-02 
407	 6.53885198999549E-02 
408	 6.44177165322678E-02 
409	 6.39272732128183E-02 
410	 6.40495567419448E-02 
411	 0.063511815518926 
412	 6.33187066608838E-02 
413	 6.37802807956952E-02 
414	 0.063611906133221 
415	 6.36146538366007E-02 
416	 6.49644008016575E-02 
417	 6.49061863217551E-02 
418	 6.37932082880195E-02 
419	 6.49005102357259E-02 
420	 6.56927004861623E-02 
421	 6.49783507830873E-02 
422	 6.46796723930557E-02 
423	 6.47240238748582E-02 
424	 6.46889979626978E-02 
425	 6.42513453315321E-02 
426	 0.063794841474999 
427	 6.51113712835245E-02 
428	 6.60957973164953E-02 
429	 6.54854274203206E-02 
430	 6.52670728372459E-02 
431	 6.51788374780504E-02 
432	 6.43273490780853E-02 
433	 0.064083155097185 
434	 6.44729021907882E-02 
435	 6.40965052956452E-02 
436	 0.064330324818889 
437	 6.58357706376467E-02 
438	 6.56806923024073E-02 
439	 6.47212329072547E-02 
440	 6.53165790581871E-02 
441	 6.57894038344345E-02 
442	 6.57494507807745E-02 
443	 6.56612954200283E-02 
444	 6.56977026709829E-02 
445	 6.59617657169868E-02 
446	 6.61177249635455E-02 
447	 6.60561506419438E-02 
448	 0.065614328841659 
449	 6.55137778618077E-02 
450	 6.59059811578293E-02 
451	 6.61223850181489E-02 
452	 0.06627273080842 
453	 6.65140288406369E-02 
454	 6.70362744449568E-02 
455	 6.76063671323033E-02 
456	 6.75885183237814E-02 
457	 6.70865710835637E-02 
458	 6.63282902076181E-02 
459	 6.62568413699597E-02 
460	 0.066651688648515 
461	 6.71294764528864E-02 
462	 6.71336606558243E-02 
463	 6.68838675367397E-02 
464	 6.76151404152489E-02 
465	 6.79208356751875E-02 
466	 6.72532600348712E-02 
467	 6.73077589453517E-02 
468	 6.76845285784321E-02 
469	 6.75272021242338E-02 
470	 6.73231652734815E-02 
471	 6.72201782187905E-02 
472	 6.72025033837931E-02 
473	 0.067659475805385 
474	 6.86241219127884E-02 
475	 6.83498366268464E-02 
476	 6.73520185838363E-02 
477	 6.69025624663997E-02 
478	 0.067019322193755 
479	 6.75585591535885E-02 
480	 6.77683329546944E-02 
481	 6.77949631262964E-02 
482	 6.78054877984815E-02 
483	 6.80822293584475E-02 
484	 6.86131390536463E-02 
485	 6.93446729310501E-02 
486	 6.93619515934769E-02 
487	 0.068497582378291 
488	 6.79474661221633E-02 
489	 6.75047873881362E-02 
490	 6.69226205651662E-02 
491	 6.74166066806653E-02 
492	 0.068420613318169 
493	 6.78235131760101E-02 
494	 0.067175136765919 
495	 6.72081536549185E-02 
496	 6.79403570444502E-02 
497	 6.88224991239964E-02 
498	 6.91543555121748E-02 
499	 6.91274322254788E-02 
500	 6.89267936172171E-02 
501	 6.90453872312655E-02 
502	 6.90701672444936E-02 
503	 6.88082070900793E-02 
504	 6.88156302442267E-02 
505	 6.88836833141067E-02 
506	 0.068527432258166 
507	 6.84672339762156E-02 
508	 6.88612511019612E-02 
509	 6.94074301079426E-02 
510	 7.01058852300398E-02 
511	 7.08899278044581E-02 
512	 7.09830041885671E-02 
513	 7.06901965080984E-02 
514	 7.09867256991394E-02 
515	 7.15002862724046E-02 
516	 7.20292298678058E-02 
517	 7.21919416429986E-02 
518	 7.20996654974738E-02 
519	 7.19331560678616E-02 
520	 7.20772874582468E-02 
521	 0.072396318613901 
522	 7.22341977875683E-02 
523	 7.23204974821222E-02 
524	 7.29225505375476E-02 
525	 7.34659297745381E-02 
526	 7.37405098226107E-02 
527	 7.35462125847104E-02 
528	 7.35009626826663E-02 
529	 7.37333593389439E-02 
530	 7.39907920481541E-02 
531	 7.44570295395883E-02 
532	 7.51528349929453E-02 
533	 7.51257045489319E-02 
534	 7.47051211918046E-02 
535	 7.47827018941864E-02 
536	 0.07505196342772 
537	 7.54024711363677E-02 
538	 7.57147359091418E-02 
539	 7.59082536720548E-02 
540	 7.59363601446538E-02 
541	 7.62395331785605E-02 
542	 7.66788298307911E-02 
543	 0.076626763549433 
544	 7.66765785301882E-02 
545	 7.70334221762494E-02 
546	 7.72671474510438E-02 
547	 7.75553091284981E-02 
548	 7.81756877532107E-02 
549	 7.83620912126018E-02 
550	 0.078054014907868 
551	 7.77060695154019E-02 
552	 7.75259143051019E-02 
553	 7.76707256110832E-02 
554	 7.81650654186248E-02 
555	 7.86666026665218E-02 
556	 7.85506502608401E-02 
557	 7.85244544247796E-02 
558	 0.078762691246456 
559	 7.89584888290046E-02 
560	 7.89983821720819E-02 
561	 0.078817195418831 
562	 7.87908044655244E-02 
563	 7.89848733821652E-02 
564	 7.94267339554304E-02 
565	 7.95488221214555E-02 
566	 7.92251470437793E-02 
567	 7.93467365399784E-02 
568	 7.96558913717997E-02 
569	 7.97211426023373E-02 
570	 7.95985383956909E-02 
571	 7.93862657816016E-02 
572	 7.93685423516854E-02 
573	 7.94406802857808E-02 
574	 7.95375983451507E-02 
575	 7.96911341935509E-02 
576	 7.97830072736197E-02 
577	 7.95755166109407E-02 
578	 7.96896943690029E-02 
579	 8.01123670034968E-02 
580	 0.079843832555462 
581	 7.95440038568258E-02 
582	 7.98079379740337E-02 
583	 0.080170356205538 
584	 8.04328183050082E-02 
585	 0.080289530935836 
586	 8.02942240200224E-02 
587	 8.05826134596028E-02 
588	 8.04591294700872E-02 
589	 8.01492706460221E-02 
590	 8.00377281748915E-02 
591	 8.00823767988656E-02 
592	 8.02423104636049E-02 
593	 8.04399716041823E-02 
594	 8.04534315451564E-02 
595	 8.02241482725439E-02 
596	 8.03971308775641E-02 
597	 8.08909201511103E-02 
598	 8.14594582735564E-02 
599	 8.14223257789854E-02 
600	 8.08040496664574E-02 
601	 8.07662000163574E-02 
602	 8.09540316544602E-02 
603	 8.10119253108153E-02 
604	 8.10279151392887E-02 
605	 8.10001399149317E-02 
606	 8.08855938047242E-02 
607	 8.08662181990831E-02 
608	 8.10152511046086E-02 
609	 8.12603408464599E-02 
610	 8.14127823861638E-02 
611	 8.12573372743496E-02 
612	 8.15819646226616E-02 
613	 8.21717008011066E-02 
614	 8.16398863255985E-02 
615	 8.11198964665597E-02 
616	 8.12354450455049E-02 
617	 8.09166609252157E-02 
618	 8.05390917458054E-02 
619	 8.09800532777052E-02 
620	 0.081465706149077 
621	 0.081726124912853 
622	 8.17577296721047E-02 
623	 8.15828833948849E-02 
624	 8.12560538170751E-02 
625	 8.11472647837226E-02 
626	 8.12920468206418E-02 
627	 8.15415028331047E-02 
628	 8.19509799273061E-02 
629	 8.24697576419464E-02 
630	 8.29105391038751E-02 
631	 0.082834548905712 
632	 8.17643089417043E-02 
633	 8.14036644320486E-02 
634	 8.19302348273429E-02 
635	 8.24712655056308E-02 
636	 8.26372240283263E-02 
637	 8.22645468672632E-02 
638	 8.23097442728641E-02 
639	 8.24942160844302E-02 
640	 0.082057501973227 
641	 8.19639772593168E-02 
642	 8.22897163108331E-02 
643	 8.19787989067332E-02 
644	 8.16562403330897E-02 
645	 0.081864993852032 
646	 8.18767186262025E-02 
647	 8.17394198856056E-02 
648	 8.19824558122581E-02 
649	 8.20203330152384E-02 
650	 8.17069808517546E-02 
651	 8.15961709436303E-02 
652	 8.16849838432742E-02 
653	 8.19092237097361E-02 
654	 8.23132161612073E-02 
655	 8.26225974292492E-02 
656	 8.18836274813558E-02 
657	 8.10224105356673E-02 
658	 8.06807914117856E-02 
659	 8.08060846193263E-02 
660	 8.10004427654682E-02 
661	 8.06684711890154E-02 
662	 8.01937433914568E-02 
663	 7.97956241687706E-02 
664	 7.98703132158853E-02 
665	 8.00509642140762E-02 
666	 0.080018697695187 
667	 0.079955099642476 
668	 7.98442490265564E-02 
669	 7.95276895316664E-02 
670	 7.94420570064995E-02 
671	 7.97338028575903E-02 
672	 0.080252781907851 
673	 8.03984142570624E-02 
674	 7.95571126602511E-02 
675	 7.95664147349976E-02 
676	 8.03320722992854E-02 
677	 0.080168354278952 
678	 8.00752490704382E-02 
679	 8.05015665602671E-02 
680	 8.06303602290094E-02 
681	 8.06714865806734E-02 
682	 8.10837350642559E-02 
683	 8.18901275746198E-02 
684	 8.29147901931149E-02 
685	 8.34543866962993E-02 
686	 8.41041563750745E-02 
687	 8.53439591516797E-02 
688	 8.63134848431711E-02 
689	 8.69605198242281E-02 
690	 8.77381512640715E-02 
691	 8.86527000895303E-02 
692	 8.97494934339195E-02 
693	 9.10906361073106E-02 
694	 9.22919903219744E-02 
695	 0.092935720219236 
696	 9.37390392095491E-02 
697	 9.49131567335534E-02 
698	 9.67710464300657E-02 
699	 0.098055536268767 
700	 9.83491076646386E-02 
701	 9.96145989953414E-02 
702	 0.101342678418396 
703	 0.102541329718612 
704	 0.103557075445381 
705	 0.104379267142345 
706	 0.104597566664641 
707	 0.105197290342589 
708	 0.106707751157434 
709	 0.107803972768592 
710	 0.108588594546533 
711	 0.109631332692654 
712	 0.110474809163925 
713	 0.111038379837536 
714	 0.111618951421013 
715	 0.112076069080896 
716	 0.112340371272122 
717	 0.113342529215692 
718	 0.114831017144256 
719	 0.11511588417699 
720	 0.115202927807945 
721	 0.11550400561314 
722	 0.115933581878925 
723	 0.116475453818275 
724	 0.117089346486047 
725	 0.11763109433177 
726	 0.11814287005865 
727	 0.119092913603208 
728	 0.119595784581595 
729	 0.119420791741753 
730	 0.120419600403455 
731	 0.12140835590328 
732	 0.120510613071773 
733	 0.120855905484099 
734	 0.122555534846561 
735	 0.123590373262859 
736	 0.12379021897513 
737	 0.12320419580735 
738	 0.123746198069718 
739	 0.124845365047325 
740	 0.12488935088056 
741	 0.124982929050749 
742	 0.125391365093544 
743	 0.125861164515823 
744	 0.12606472813089 
745	 0.125789200731661 
746	 0.12579985943512 
747	 0.126183339738701 
748	 0.126799797259897 
749	 0.12744926250533 
750	 0.127996891904976 
751	 0.128334126008307 
752	 0.128640798269024 
753	 0.129098126150215 
754	 0.129165842295364 
755	 0.129027436170747 
756	 0.129651344692974 
757	 0.12943386962282 
758	 0.127928276904015 
759	 0.128236342472092 
760	 0.130781790510998 
761	 0.133095271747557 
762	 0.134274786829326 
763	 0.134621798077493 
764	 0.135654964535043 
765	 0.136243937508142 
766	 0.136086376753603 
767	 0.135639290990065 
768	 0.135315541642047 
769	 0.135555418604152 
770	 0.135396962312275 
771	 0.13498746087555 
772	 0.135728707490683 
773	 0.136574495705804 
774	 0.136842921324091 
775	 0.137120572620078 
776	 0.137503786301741 
777	 0.1380405421063 
778	 0.138422904112653 
779	 0.138618462496011 
780	 0.138915213925105 
781	 0.139364937436945 
782	 0.13994444473363 
783	 0.139934635849405 
784	 0.139887380266032 
785	 0.141282028557126 
786	 0.142147427318633 
787	 0.141991382150564 
788	 0.141944584911601 
789	 0.141947772969487 
790	 0.141942070440728 
791	 0.142414506301101 
792	 0.143215564216587 
793	 0.14378736483143 
794	 0.144293935362457 
795	 0.144740497922402 
796	 0.144985136394147 
797	 0.145128365936269 
798	 0.145294944487061 
799	 0.145673500286934 
800	 0.146256725910093 
801	 0.146952144120507 
802	 0.147353877226499 
803	 0.147430200784644 
804	 0.148171612225282 
805	 0.148615018338089 
806	 0.147752990557406 
807	 0.147772354754279 
808	 0.148630347794124 
809	 0.148868517659021 
810	 0.148936334430358 
811	 0.148956585850082 
812	 0.148651291847181 
813	 0.148496458912766 
814	 0.149146695043955 
815	 0.150527387688764 
816	 0.152269464811999 
817	 0.153470225360129 
818	 0.154039607630583 
819	 0.153933546990118 
820	 0.153017987821174 
821	 0.152550205306592 
822	 0.153948954557564 
823	 0.155775405708629 
824	 0.156889078554119 
825	 0.155254855546784 
826	 0.154527311996063 
827	 0.155921800087362 
828	 0.156492068968906 
829	 0.156292590390086 
830	 0.155789666205588 
831	 0.156600569553736 
832	 0.158485738004222 
833	 0.159824767718493 
834	 0.160189781755593 
835	 0.159608617784708 
836	 0.159589337761382 
837	 0.160153065142331 
838	 0.161119334362393 
839	 0.161406374267556 
840	 0.161205703838648 
841	 0.161811139907986 
842	 0.162391414406823 
843	 0.162650184037821 
844	 0.163067952685812 
845	 0.163241135039559 
846	 0.16273199112124 
847	 0.162659308881608 
848	 0.162917198704121 
849	 0.16244739028641 
850	 0.16197087219451 
851	 0.162079759512 
852	 0.164117240359633 
853	 0.166594974928388 
854	 0.167783186466184 
855	 0.168163237338818 
856	 0.167694234941271 
857	 0.165674644699233 
858	 0.165992373511905 
859	 0.168908113100099 
860	 0.168242720343809 
861	 0.166487076626541 
862	 0.166392857426723 
863	 0.167840517072685 
864	 0.169667222694768 
865	 0.169063929652532 
866	 0.169033219758941 
867	 0.170378288595976 
868	 0.171735634486591 
869	 0.172498909460038 
870	 0.172221566594681 
871	 0.170833893600322 
872	 0.169555876598762 
873	 0.170648252342375 
874	 0.171435212127234 
875	 0.17164001938522 
876	 0.173881917497361 
877	 0.175374629777947 
878	 0.174506645838147 
879	 0.175291797827733 
880	 0.17685973311906 
881	 0.176909703000346 
882	 0.176664176818155 
883	 0.176638914840241 
884	 0.177412335376849 
885	 0.178454802209938 
886	 0.179430398487727 
887	 0.180658677321681 
888	 0.180859462355156 
889	 0.17844985657243 
890	 0.177358276182476 
891	 0.177686895092245 
892	 0.176365731040209 
893	 0.175644568663918 
894	 0.176647766802922 
895	 0.179039044375537 
896	 0.182296352165538 
897	 0.185471697777972 
898	 0.183879198119997 
899	 0.180389011571033 
900	 0.184917536323477 
901	 0.187967034450509 
902	 0.186869732931483 
903	 0.185204137899606 
904	 0.183683358973653 
905	 0.182989974265346 
906	 0.184423831652504 
907	 0.186801516078758 
908	 0.187742696779113 
909	 0.186849403284062 
910	 0.185194676622981 
911	 0.187377414304009 
912	 0.189769953820222 
913	 0.190293464884693 
914	 0.190494090464961 
915	 0.190587613966098 
916	 0.190662313551985 
917	 0.19040775055876 
918	 0.189908600824246 
919	 0.189452851800338 
920	 0.189465718797772 
921	 0.189744928023873 
922	 0.188452457071158 
923	 0.187217721078663 
924	 0.187261263018102 
925	 0.184751275002421 
926	 0.180724132727046 
927	 0.178636360765877 
928	 0.181317178213325 
929	 0.187848969617111 
930	 0.187221743224154 
931	 0.184177828376314 
932	 0.184227320752576 
933	 0.197252178232131 
934	 0.209116859847864 
935	 0.198168243178252 
936	 0.191692447555803 
937	 0.193974995963622 
938	 0.196867307012205 
939	 0.196240457191556 
940	 0.192442259147355 
941	 0.194396583126373 
942	 0.196314669713877 
943	 0.194148518837533 
944	 0.193279355991101 
945	 0.193260244703851 
946	 0.192161097414725 
947	 0.196116009695931 
948	 0.201964580833092 
949	 0.195864449368223 
950	 0.184703765301812 
951	 0.174638374759428 
952	 0.180970380214064 
953	 0.188736509274154 
954	 0.18525891479643 
955	 0.192188018342733 
956	 0.203178114633048 
957	 0.201264749927487 
958	 0.200622845210553 
959	 0.202348747703189 
960	 0.196367689018222 
961	 0.195455395784218 
962	 0.203120888681407 
963	 0.203384310244767 
964	 0.199338135488281 
965	 0.195400238889681 
966	 0.195745551906783 
967	 0.197612256120618 
968	 0.193835217624784 
969	 0.193029240171244 
970	 0.195428897873392 
971	 0.192830452517802 
972	 0.190350728906281 
973	 0.19118042361301 
974	 0.196526087470007 
975	 0.20080460293921 
976	 0.198430507176165 
977	 0.202382539575982 
978	 0.209373284087867 
979	 0.207596907422001 
980	 0.203939861880151 
981	 0.200997821600196 
982	 0.199406763216996 
983	 0.200426811147656 
984	 0.203636747136311 
985	 0.202703613048333 
986	 0.200138220728794 
987	 0.199500342273515 
988	 0.203135283430498 
989	 0.207240706248861 
990	 0.203247566354809 
991	 0.205719403207851 
992	 0.212842887518823 
993	 0.201619148754416 
994	 0.19605096441221 
995	 0.204636522002098 
996	 0.200514015603378 
997	 0.193526883470196 
998	 0.195157421782066 
999	 0.20090399928955 
1000	 0.206753719895027 
1001	 0.207679765392091 
1002	 0.205148231778134 
1003	 0.20169545536968 
1004	 0.203555450630057 
1005	 0.207782541744372 
1006	 0.210897814635363 
1007	 0.202159876644528 
1008	 0.198272889512362 
1009	 0.20957920215661 
1010	 0.204709775544845 
1011	 0.196791041691149 
1012	 0.209038295749558 
1013	 0.212125948882472 
1014	 0.208022764977622 
1015	 0.217668819270583 
1016	 0.216945425610371 
1017	 0.203303713391167 
1018	 0.195944961730875 
1019	 0.199092156110647 
1020	 0.211628543663563 
1021	 0.212580910189147 
1022	 0.20437400874855 
1023	 0.193848895297234 
1024	 0.203812419643253 
1025	 0.220714990029968 
1026	 0.216511111159696 
1027	 0.204721790732657 
1028	 0.194104538134479 
1029	 0.202279776881572 
1030	 0.195882517832669 
1031	 0.173955834785394 
1032	 0.189281253515809 
1033	 0.209730589807733 
1034	 0.211785632485608 
1035	 0.195395994389436 
1036	 0.182576137296167 
1037	 0.19621749178932 
1038	 0.208626572493439 
1039	 0.217481420419975 
1040	 0.227400832520467 
1041	 0.220624820731358 
1042	 0.20286668485683 
1043	 0.202352108836378 
1044	 0.205568479258431 
1045	 0.204993727030376 
1046	 0.187566206372344 
1047	 0.17698982788771 
1048	 0.183609958506224 
1049	 0.168216801759482 
1050	 0.163740524184016 
1051	 0.19915187093599 
1052	 0.204893964744011 
1053	 0.201065429741897 
1054	 0.230807416937018 
1055	 0.220472652666953 
1056	 0.184211503353669 
1057	 0.193179949087352 
1058	 0.210983407344098 
1059	 0.217642481811961 
1060	 0.178982306028971 
1061	 0.173396524255845 
1062	 0.220575033805836 
1063	 0.203448215892556 
1064	 0.170833057676277 
1065	 0.164256089034033 
1066	 0.189007822063181 
1067	 0.201783725093833 
1068	 0.16415530236422 
1069	 0.196338669932613 
1070	 0.233637715745622 
1071	 0.140784969665971 
1072	 0.12644026391633 
1073	 0.192400872871582 
1074	 0.211970897967386 
1075	 0.188514084288186 
