Wavelength	SHSI00340.asd
325	 6.34963749687796E-02 
326	 0.067837574975804 
327	 7.51103955546718E-02 
328	 7.98497854980697E-02 
329	 0.078597810140456 
330	 7.24935236710281E-02 
331	 7.34254313120231E-02 
332	 7.46982984497969E-02 
333	 6.96384846148308E-02 
334	 7.10984307173346E-02 
335	 7.48655358212664E-02 
336	 6.48728173969533E-02 
337	 6.34333589113566E-02 
338	 7.32181661245483E-02 
339	 7.38317992184061E-02 
340	 7.18561973580721E-02 
341	 7.30179518587334E-02 
342	 7.03939331572442E-02 
343	 6.67594387176631E-02 
344	 6.89135089588162E-02 
345	 7.09302863855131E-02 
346	 0.071454831373177 
347	 7.22755786455013E-02 
348	 7.19076499710159E-02 
349	 6.96526208237314E-02 
350	 6.80239723585646E-02 
351	 6.72204443181668E-02 
352	 6.69056357037136E-02 
353	 6.65964290064513E-02 
354	 6.68185208762112E-02 
355	 7.02897361223926E-02 
356	 7.22060363845023E-02 
357	 7.01947801773741E-02 
358	 6.93344744538315E-02 
359	 6.96016058490354E-02 
360	 7.00101832565806E-02 
361	 6.85725115890755E-02 
362	 6.60526281457515E-02 
363	 6.65281410359952E-02 
364	 6.72718111149587E-02 
365	 6.69867186288785E-02 
366	 6.76657882245539E-02 
367	 6.80388227628326E-02 
368	 6.62026772611946E-02 
369	 6.63991093022541E-02 
370	 6.82091819316106E-02 
371	 6.68104436297344E-02 
372	 6.55093789064738E-02 
373	 6.61578971540546E-02 
374	 6.85610351803525E-02 
375	 6.99923402040539E-02 
376	 6.69891603256146E-02 
377	 6.40796913355428E-02 
378	 6.27216591311447E-02 
379	 6.33459394628664E-02 
380	 6.50301681823035E-02 
381	 6.67638910018123E-02 
382	 0.066150468059351 
383	 6.44824508506228E-02 
384	 6.37772083035987E-02 
385	 6.53307420080242E-02 
386	 6.78143555312361E-02 
387	 6.61958416082357E-02 
388	 6.49531985383072E-02 
389	 6.58735012942591E-02 
390	 6.66554498981284E-02 
391	 6.67894300152305E-02 
392	 6.59623166908821E-02 
393	 6.44435281812016E-02 
394	 6.33575352233487E-02 
395	 6.59995220074879E-02 
396	 6.59286072362906E-02 
397	 0.061716047276868 
398	 0.061409831749784 
399	 6.21923930176437E-02 
400	 6.06294977272423E-02 
401	 6.03135965747121E-02 
402	 6.12707515011085E-02 
403	 6.22690544606181E-02 
404	 6.24469012642315E-02 
405	 6.16772149937386E-02 
406	 6.17461452831104E-02 
407	 6.22530407348934E-02 
408	 6.24960798924197E-02 
409	 6.20848826484868E-02 
410	 6.13444427550293E-02 
411	 0.061489663683406 
412	 6.14973362364122E-02 
413	 6.10538384954585E-02 
414	 0.061426922604169 
415	 6.20158555265693E-02 
416	 6.19262537763806E-02 
417	 6.16241976742403E-02 
418	 6.13335185275068E-02 
419	 6.13722186638093E-02 
420	 6.14873919250132E-02 
421	 6.16007781256232E-02 
422	 6.22924757630881E-02 
423	 6.28283309359963E-02 
424	 6.21003228801107E-02 
425	 6.14100029183474E-02 
426	 6.12253843566146E-02 
427	 6.18701824154032E-02 
428	 6.24773337556029E-02 
429	 6.24818642432323E-02 
430	 6.24377099598924E-02 
431	 6.21985531473546E-02 
432	 6.13963874167447E-02 
433	 0.060909081777405 
434	 6.09763613654919E-02 
435	 6.14621970779763E-02 
436	 6.19737407353139E-02 
437	 6.21819608925309E-02 
438	 6.15755439863822E-02 
439	 6.08551325171463E-02 
440	 6.14259188489847E-02 
441	 6.19222553071158E-02 
442	 6.19714518415129E-02 
443	 6.18790058600533E-02 
444	 6.18525534017724E-02 
445	 6.20622006735626E-02 
446	 6.25771166059725E-02 
447	 6.30843031566269E-02 
448	 6.28756032788897E-02 
449	 0.062681801624135 
450	 6.28036887933753E-02 
451	 6.33785160651739E-02 
452	 6.38674188195812E-02 
453	 6.37484160209984E-02 
454	 6.34467928889716E-02 
455	 6.32600006951473E-02 
456	 6.37641358161527E-02 
457	 6.40793319736805E-02 
458	 6.39243344406249E-02 
459	 6.40508842950229E-02 
460	 0.064211250873561 
461	 6.40512324607134E-02 
462	 6.38716517307895E-02 
463	 6.38075044418831E-02 
464	 6.40423957296772E-02 
465	 6.42743003282301E-02 
466	 0.064326818368782 
467	 6.42549065277705E-02 
468	 6.40649300707016E-02 
469	 6.37586920175224E-02 
470	 6.36020621838842E-02 
471	 6.37240503212776E-02 
472	 6.42692211036892E-02 
473	 6.48052276419417E-02 
474	 6.50326670235521E-02 
475	 6.50340656622157E-02 
476	 6.49542565916296E-02 
477	 6.50251441544377E-02 
478	 0.064992756955622 
479	 6.48504604618956E-02 
480	 6.48487723772392E-02 
481	 6.49674476403607E-02 
482	 6.51446316695711E-02 
483	 6.48574921280394E-02 
484	 6.44715397688722E-02 
485	 6.50851849721391E-02 
486	 6.56599663049669E-02 
487	 6.58116786687678E-02 
488	 0.06582709233137 
489	 6.55523645060754E-02 
490	 6.48860502341301E-02 
491	 6.49633714895064E-02 
492	 6.56382375552625E-02 
493	 6.59650283127915E-02 
494	 6.59156332018074E-02 
495	 6.56040943703396E-02 
496	 0.065986951747207 
497	 6.66054907690611E-02 
498	 6.67561412562745E-02 
499	 6.66084096639553E-02 
500	 6.64069478894915E-02 
501	 6.68255202248244E-02 
502	 6.73216394656428E-02 
503	 6.75666172033785E-02 
504	 6.78121620495055E-02 
505	 6.80588386665549E-02 
506	 6.82498771044454E-02 
507	 0.068597492165525 
508	 0.069092904207049 
509	 0.069425037930479 
510	 0.069796665245234 
511	 7.03463769737005E-02 
512	 7.06388801475879E-02 
513	 7.08571485852231E-02 
514	 7.16084690570551E-02 
515	 7.23048329600255E-02 
516	 7.27498023951568E-02 
517	 0.07314496631078 
518	 7.35514623772275E-02 
519	 7.40123850287829E-02 
520	 7.43592971799297E-02 
521	 7.47031840375228E-02 
522	 7.54258103477001E-02 
523	 7.62127992239511E-02 
524	 7.69062673328648E-02 
525	 7.75489139804511E-02 
526	 7.79959676107585E-02 
527	 7.80354517234978E-02 
528	 7.83001586227832E-02 
529	 7.88835532746157E-02 
530	 7.94757276160158E-02 
531	 8.00192406563726E-02 
532	 8.04765296092157E-02 
533	 8.08681139966801E-02 
534	 8.12594310326199E-02 
535	 8.17775914934436E-02 
536	 8.21982294918994E-02 
537	 8.25104695646989E-02 
538	 8.30512021998196E-02 
539	 0.083474710706506 
540	 8.34639432299937E-02 
541	 8.36756879665294E-02 
542	 8.41799938030089E-02 
543	 8.48475805789718E-02 
544	 8.52113925142549E-02 
545	 8.51850310102312E-02 
546	 8.56732784398554E-02 
547	 8.62105167002401E-02 
548	 8.60890315932902E-02 
549	 8.63266656583381E-02 
550	 8.69352804782133E-02 
551	 8.70358832549436E-02 
552	 8.72090116925817E-02 
553	 8.77538119030674E-02 
554	 0.087926048012362 
555	 8.79180743406223E-02 
556	 0.088293400261539 
557	 8.84568257066326E-02 
558	 8.83621064049816E-02 
559	 0.088644631776856 
560	 8.91545582141994E-02 
561	 8.96887034807364E-02 
562	 8.98129256292301E-02 
563	 8.95661011673497E-02 
564	 8.92167693247538E-02 
565	 8.91815902274727E-02 
566	 8.95165080274017E-02 
567	 8.92314170355597E-02 
568	 8.88502238364385E-02 
569	 0.089144856352511 
570	 8.90502036292203E-02 
571	 8.86252613942883E-02 
572	 8.90246197034848E-02 
573	 8.92593600837413E-02 
574	 8.88180361133035E-02 
575	 0.088816304416167 
576	 8.89889132600275E-02 
577	 8.85698374226976E-02 
578	 8.81763240479769E-02 
579	 8.80672772317056E-02 
580	 8.84659006184105E-02 
581	 8.87600142730593E-02 
582	 8.84452387749061E-02 
583	 0.08834173428663 
584	 8.84177560945551E-02 
585	 8.81855965234139E-02 
586	 8.79319880125817E-02 
587	 8.78162793074801E-02 
588	 8.80461921284338E-02 
589	 8.84211329202789E-02 
590	 8.86410507973954E-02 
591	 8.84418238740949E-02 
592	 8.79523839723994E-02 
593	 8.77472788743682E-02 
594	 0.087703886951738 
595	 8.77792902118503E-02 
596	 8.81838971761419E-02 
597	 8.85771004383973E-02 
598	 8.83305616560037E-02 
599	 8.82144864444334E-02 
600	 8.83283919348405E-02 
601	 8.79829250828209E-02 
602	 8.76007016781189E-02 
603	 8.75711539584303E-02 
604	 8.76648746897585E-02 
605	 8.78156888673382E-02 
606	 8.80501284852365E-02 
607	 8.78755120648206E-02 
608	 8.72319191672132E-02 
609	 0.087120806564875 
610	 8.72451807247912E-02 
611	 8.71124380339599E-02 
612	 8.64551135769748E-02 
613	 8.56383826801907E-02 
614	 8.61050385596035E-02 
615	 8.66198593096714E-02 
616	 8.64228363814323E-02 
617	 8.60003732056028E-02 
618	 0.085585433397563 
619	 8.54407035564354E-02 
620	 8.55321413403759E-02 
621	 8.57057663927342E-02 
622	 8.53456743830631E-02 
623	 0.084995173132253 
624	 8.51459537103826E-02 
625	 8.53431920025685E-02 
626	 8.55019834571003E-02 
627	 8.57241852785982E-02 
628	 8.54678909290608E-02 
629	 8.47471944180511E-02 
630	 8.50382607318544E-02 
631	 8.55993531795197E-02 
632	 8.53636028002916E-02 
633	 8.51459505927815E-02 
634	 8.49967989563204E-02 
635	 8.43815197534431E-02 
636	 8.40561702532318E-02 
637	 0.08440211229977 
638	 8.45831822257145E-02 
639	 8.45148240611436E-02 
640	 8.42591427808878E-02 
641	 8.40252154447803E-02 
642	 8.38708841315107E-02 
643	 8.36969904002362E-02 
644	 8.33460747925954E-02 
645	 0.082727706377581 
646	 8.25654406387217E-02 
647	 8.26924446232918E-02 
648	 8.22782794744826E-02 
649	 0.081983623625997 
650	 8.19790566284948E-02 
651	 8.16707258193027E-02 
652	 8.13115602341755E-02 
653	 8.12497181100839E-02 
654	 8.11948190343543E-02 
655	 8.10307943634773E-02 
656	 8.06765884209672E-02 
657	 8.01463421151751E-02 
658	 7.95311560345311E-02 
659	 7.91978810692128E-02 
660	 7.88094552238577E-02 
661	 7.77215914347378E-02 
662	 7.73114237516948E-02 
663	 7.75608333908966E-02 
664	 7.66539875433106E-02 
665	 7.53578920310576E-02 
666	 7.44118573918095E-02 
667	 7.41355597363218E-02 
668	 7.42112062680529E-02 
669	 7.37098620636122E-02 
670	 7.31700031395603E-02 
671	 0.072824175817164 
672	 7.28867646665091E-02 
673	 7.29809285590155E-02 
674	 7.26692228699668E-02 
675	 7.25174789892942E-02 
676	 7.25868413803782E-02 
677	 7.25836897841936E-02 
678	 7.29255619469898E-02 
679	 0.073723347876077 
680	 7.40788550098982E-02 
681	 7.42190838304558E-02 
682	 0.074658738170945 
683	 0.075556024135025 
684	 7.67556247887659E-02 
685	 7.74055682037894E-02 
686	 7.82802727122668E-02 
687	 8.00308398643835E-02 
688	 8.17139049662195E-02 
689	 8.31480903751133E-02 
690	 8.46751832527569E-02 
691	 0.086472544243715 
692	 8.86063896142125E-02 
693	 9.07996460323818E-02 
694	 9.30884492735421E-02 
695	 9.54200384051697E-02 
696	 9.74790532484561E-02 
697	 9.94717369628459E-02 
698	 0.102350273113137 
699	 0.104499830639112 
700	 0.105433728640051 
701	 0.10784111164665 
702	 0.110606969345559 
703	 0.111818208382486 
704	 0.113542736028371 
705	 0.115888771047761 
706	 0.117393050894027 
707	 0.118690164616114 
708	 0.120156559285792 
709	 0.121391563544498 
710	 0.122421273555507 
711	 0.123331046568303 
712	 0.124739423773519 
713	 0.126494908771713 
714	 0.127021272917579 
715	 0.127293511028867 
716	 0.128306694347848 
717	 0.129725453244083 
718	 0.13118423679829 
719	 0.131477352659852 
720	 0.131940470225906 
721	 0.132929544306437 
722	 0.133657678860212 
723	 0.134384474974215 
724	 0.135369461690503 
725	 0.135684970352136 
726	 0.135503977698179 
727	 0.136150229399937 
728	 0.136782596101432 
729	 0.137003147331576 
730	 0.137075370698901 
731	 0.137363534217039 
732	 0.138298684055648 
733	 0.139050421545659 
734	 0.139444578940445 
735	 0.139566719001859 
736	 0.139824648403212 
737	 0.140437390085143 
738	 0.140820542208426 
739	 0.140935063311006 
740	 0.14084979511625 
741	 0.140962860542405 
742	 0.141348362505442 
743	 0.141704600479875 
744	 0.141893815891842 
745	 0.141849243457199 
746	 0.142104949234469 
747	 0.142571218868538 
748	 0.142797603923357 
749	 0.143061799544916 
750	 0.143379807819113 
751	 0.143338907214194 
752	 0.143292863611115 
753	 0.143621799520863 
754	 0.143739675903279 
755	 0.143618419263138 
756	 0.143516554326801 
757	 0.14347544524828 
758	 0.143534250241015 
759	 0.143669423822148 
760	 0.144214987492279 
761	 0.145487664721805 
762	 0.145938159466189 
763	 0.145655807608642 
764	 0.145895647833111 
765	 0.146245786563838 
766	 0.146504467670211 
767	 0.146505962089423 
768	 0.146456069949718 
769	 0.146587373717981 
770	 0.146946693411188 
771	 0.147370873657651 
772	 0.14721016232486 
773	 0.147120414722157 
774	 0.147494940568463 
775	 0.147670904566829 
776	 0.147675089082815 
777	 0.147744200218625 
778	 0.147585485316668 
779	 0.147314808403113 
780	 0.147672658853368 
781	 0.148378202812875 
782	 0.14909806929715 
783	 0.149001690117663 
784	 0.148529394534795 
785	 0.148927921152552 
786	 0.149229739747032 
787	 0.149227367650763 
788	 0.149482093805637 
789	 0.149800639479701 
790	 0.149978063990474 
791	 0.150089245869272 
792	 0.150145576646383 
793	 0.150132669414081 
794	 0.150213950865998 
795	 0.150378234800208 
796	 0.150262948152769 
797	 0.149940195258495 
798	 0.14956342415038 
799	 0.150145327346729 
800	 0.151209540137801 
801	 0.150847955779212 
802	 0.150935558535672 
803	 0.151871566091279 
804	 0.151603320970874 
805	 0.151090146146954 
806	 0.151468002219397 
807	 0.151254769602328 
808	 0.150690318018611 
809	 0.151336206753745 
810	 0.151944955945512 
811	 0.151977294312707 
812	 0.151688711541467 
813	 0.15161533990123 
814	 0.152398667912694 
815	 0.152445639595286 
816	 0.151849611941035 
817	 0.152238667884048 
818	 0.152945322129262 
819	 0.153599398990351 
820	 0.153909505670215 
821	 0.154252418845296 
822	 0.155068866893662 
823	 0.155228910620005 
824	 0.154894498725807 
825	 0.155370068505805 
826	 0.155390693772007 
827	 0.154693340493977 
828	 0.155170184754117 
829	 0.155759495191937 
830	 0.155008968409825 
831	 0.154527037082434 
832	 0.154676194534982 
833	 0.15547587326123 
834	 0.155842785280904 
835	 0.15547461392554 
836	 0.155803963115281 
837	 0.156190390178317 
838	 0.155820739156069 
839	 0.156201043263629 
840	 0.156993244857566 
841	 0.15629984272768 
842	 0.155689623458804 
843	 0.155818015648241 
844	 0.156115501722736 
845	 0.156800764677276 
846	 0.158059548019494 
847	 0.157361817561731 
848	 0.155494742699316 
849	 0.156327515863698 
850	 0.156938897395712 
851	 0.156360769910865 
852	 0.156191684377101 
853	 0.156532688246629 
854	 0.157280884541809 
855	 0.157062058370935 
856	 0.156416322740069 
857	 0.157569823681169 
858	 0.15776104588167 
859	 0.156579061037478 
860	 0.156995247494623 
861	 0.157772967705941 
862	 0.157638260660991 
863	 0.157794131028023 
864	 0.158209729289404 
865	 0.158358842646862 
866	 0.158145087597815 
867	 0.157782680664759 
868	 0.158502600925696 
869	 0.158946956345058 
870	 0.15812853912473 
871	 0.158019155531449 
872	 0.158416604797676 
873	 0.158273349596624 
874	 0.158749868281034 
875	 0.159889662135308 
876	 0.160582610030038 
877	 0.160557912982257 
878	 0.159798196300596 
879	 0.15965860180403 
880	 0.16002777517442 
881	 0.160357586221783 
882	 0.161171685533379 
883	 0.162166585367405 
884	 0.161946984526555 
885	 0.161525269661654 
886	 0.161545983297452 
887	 0.16213505121982 
888	 0.162509337035872 
889	 0.161663346733652 
890	 0.161950068750972 
891	 0.163126132158205 
892	 0.162528857356885 
893	 0.162097868153284 
894	 0.16267604080951 
895	 0.163578398380671 
896	 0.16394058774113 
897	 0.162962817985058 
898	 0.163555079278 
899	 0.165146974864965 
900	 0.16468467238252 
901	 0.164543966136195 
902	 0.165244584320856 
903	 0.165601994506961 
904	 0.16523851004078 
905	 0.164102837827105 
906	 0.164215957724 
907	 0.16533969175007 
908	 0.16652156738921 
909	 0.166446086575436 
910	 0.165554811411003 
911	 0.167393755649925 
912	 0.168579119046262 
913	 0.1673551396004 
914	 0.166090029690598 
915	 0.165827873167625 
916	 0.167369566983992 
917	 0.168159760885761 
918	 0.167791297963902 
919	 0.166609473095193 
920	 0.166762648907027 
921	 0.168335463918528 
922	 0.167328655058291 
923	 0.165739331793901 
924	 0.165656012178095 
925	 0.168298663548822 
926	 0.171186368925938 
927	 0.168478608569245 
928	 0.165358700178287 
929	 0.164157656637885 
930	 0.166321919935458 
931	 0.167506050809509 
932	 0.164253268488921 
933	 0.161308824222586 
934	 0.1594395826925 
935	 0.158626021522883 
936	 0.16097423760789 
937	 0.16492151618638 
938	 0.16524169336749 
939	 0.168872753638894 
940	 0.174406746268944 
941	 0.167120267689657 
942	 0.160459310228086 
943	 0.164290560647418 
944	 0.167966471338992 
945	 0.168469434394262 
946	 0.163290668891068 
947	 0.167451233341446 
948	 0.177090383378553 
949	 0.165839125239415 
950	 0.162411447208755 
951	 0.174674680026826 
952	 0.174718505740755 
953	 0.17022093778168 
954	 0.169775016427464 
955	 0.169548331733649 
956	 0.167565965569739 
957	 0.160869189343867 
958	 0.160034124528921 
959	 0.165475764988326 
960	 0.168828030663228 
961	 0.171182752919125 
962	 0.172404151765272 
963	 0.169827490931749 
964	 0.167777847066989 
965	 0.170144296479318 
966	 0.169124706405137 
967	 0.166275008325414 
968	 0.167249293667941 
969	 0.167764145595407 
970	 0.166793663422609 
971	 0.164484766086451 
972	 0.165477612297008 
973	 0.17101511526135 
974	 0.171201781451368 
975	 0.168994318203284 
976	 0.168668527283461 
977	 0.16591967189177 
978	 0.16355469241733 
979	 0.169330269255296 
980	 0.170704994800814 
981	 0.166767890870423 
982	 0.169550342862595 
983	 0.169607282526647 
984	 0.163886825442546 
985	 0.167082869592405 
986	 0.173441118525708 
987	 0.175522585260874 
988	 0.173858105747182 
989	 0.171127408653416 
990	 0.172894867612481 
991	 0.170577047047532 
992	 0.165442017897781 
993	 0.171356449224902 
994	 0.175187464165152 
995	 0.170985084421055 
996	 0.166787735178936 
997	 0.164773138432593 
998	 0.166190449897636 
999	 0.168064636547815 
1000	 0.169747990248825 
1001	 0.171203153971494 
1002	 0.171589736772533 
1003	 0.170890558533163 
1004	 0.169583893924383 
1005	 0.170047599199328 
1006	 0.172726997724764 
1007	 0.174365894415496 
1008	 0.175173297593354 
1009	 0.175220578602171 
1010	 0.173121956302036 
1011	 0.168927153314606 
1012	 0.163304147984144 
1013	 0.166380032936451 
1014	 0.174819175580938 
1015	 0.174803592309372 
1016	 0.175593557271193 
1017	 0.178169304645021 
1018	 0.174404690547749 
1019	 0.1755226154518 
1020	 0.184196179418443 
1021	 0.175378532749057 
1022	 0.165808746700231 
1023	 0.17283117987179 
1024	 0.172409382498994 
1025	 0.168544676254886 
1026	 0.173893877587553 
1027	 0.184359973034678 
1028	 0.192489837070206 
1029	 0.179967720384124 
1030	 0.164711854594137 
1031	 0.155740833708153 
1032	 0.155434184019161 
1033	 0.164108547015052 
1034	 0.177897217182409 
1035	 0.172000894091717 
1036	 0.165308121120844 
1037	 0.178276665657967 
1038	 0.184830284623518 
1039	 0.18313043841836 
1040	 0.177892460162063 
1041	 0.167835314070935 
1042	 0.15956005543002 
1043	 0.172462128651431 
1044	 0.178054299731566 
1045	 0.170343143961325 
1046	 0.17389462647802 
1047	 0.175175090014121 
1048	 0.166551818894082 
1049	 0.156377800368713 
1050	 0.146843007676102 
1051	 0.140868534642398 
1052	 0.15894717204067 
1053	 0.179856182423066 
1054	 0.171422275693372 
1055	 0.164516173358617 
1056	 0.166147692369425 
1057	 0.177130228495622 
1058	 0.170429203298635 
1059	 0.149555260240021 
1060	 0.162851105784816 
1061	 0.168603628416648 
1062	 0.155670953265658 
1063	 0.170370085830469 
1064	 0.183531515953253 
1065	 0.173840118411714 
1066	 0.166886717718511 
1067	 0.167290725429389 
1068	 0.174867678284738 
1069	 0.16110663945212 
1070	 0.144942887713069 
1071	 0.16609704892834 
1072	 0.189035044213263 
1073	 0.195688782520263 
1074	 0.150843327468389 
1075	 0.150412826801771 
