Wavelength	SHSI00113.asd
325	 0.032323170292985 
326	 3.67328318767762E-02 
327	 4.47911995875547E-02 
328	 4.38772684639615E-02 
329	 4.23897766493953E-02 
330	 4.24962102871321E-02 
331	 3.76444650182426E-02 
332	 3.54750229871541E-02 
333	 4.28335915197979E-02 
334	 0.047509168296472 
335	 0.047347542080255 
336	 4.19419334820703E-02 
337	 4.01047300045707E-02 
338	 4.25381926296115E-02 
339	 3.68061024928542E-02 
340	 3.41854775668023E-02 
341	 4.29053556938789E-02 
342	 4.36707185402233E-02 
343	 3.93812594094682E-02 
344	 4.11036326855391E-02 
345	 4.45411498831842E-02 
346	 4.69888927253933E-02 
347	 4.28042249253407E-02 
348	 3.67399362294178E-02 
349	 0.032687861069492 
350	 3.46080815889162E-02 
351	 3.86533383173063E-02 
352	 3.81775050683173E-02 
353	 3.89908836784651E-02 
354	 4.11411606859028E-02 
355	 3.97960503270188E-02 
356	 3.82423936080213E-02 
357	 3.84515527981892E-02 
358	 3.89110369534919E-02 
359	 3.88174524562692E-02 
360	 3.72309493647341E-02 
361	 3.70874136990538E-02 
362	 3.81850531386889E-02 
363	 3.71100915479265E-02 
364	 3.69271338721504E-02 
365	 3.88063434806721E-02 
366	 3.90964156110459E-02 
367	 3.81586835808842E-02 
368	 3.69816171681845E-02 
369	 3.55123727606727E-02 
370	 3.43497949571038E-02 
371	 3.51834663294609E-02 
372	 3.62118074517557E-02 
373	 0.036466636431005 
374	 3.70329068919193E-02 
375	 3.65346890219162E-02 
376	 3.30685616787382E-02 
377	 3.22794289396555E-02 
378	 3.43650318220201E-02 
379	 3.50876370494284E-02 
380	 3.52265521079141E-02 
381	 3.48915331848076E-02 
382	 3.26079322357667E-02 
383	 3.07946471634758E-02 
384	 3.26592696931096E-02 
385	 3.23751188254067E-02 
386	 3.04347661957394E-02 
387	 3.32396957794308E-02 
388	 3.44717685457323E-02 
389	 0.031975421410246 
390	 3.17460104941385E-02 
391	 3.23401310093755E-02 
392	 3.15164175525006E-02 
393	 0.03176316390524 
394	 3.28392125232264E-02 
395	 0.032558982717519 
396	 3.26144419945144E-02 
397	 3.34610784921289E-02 
398	 3.33773159127295E-02 
399	 3.31755423928397E-02 
400	 3.37881025919319E-02 
401	 3.38329408053636E-02 
402	 3.31407755276794E-02 
403	 3.16365026408724E-02 
404	 0.03124620056004 
405	 0.032429643932908 
406	 3.28194153663774E-02 
407	 3.23467674480033E-02 
408	 3.12355606034701E-02 
409	 3.13667489619964E-02 
410	 3.24016648134394E-02 
411	 3.20180953458983E-02 
412	 3.16480430116155E-02 
413	 3.18520458797183E-02 
414	 3.15768658099467E-02 
415	 3.12430492899099E-02 
416	 3.14909338926593E-02 
417	 3.24470709964043E-02 
418	 3.34598075502875E-02 
419	 3.24966568147599E-02 
420	 3.13874694667492E-02 
421	 0.031135418963841 
422	 3.10806647003913E-02 
423	 3.10605916156257E-02 
424	 3.09223754557074E-02 
425	 3.14036588105762E-02 
426	 3.22821653619007E-02 
427	 3.21456741793827E-02 
428	 3.17435429840246E-02 
429	 3.15950957639756E-02 
430	 0.031605807326287 
431	 3.17459057684482E-02 
432	 3.19820542897401E-02 
433	 3.19350267983758E-02 
434	 3.16578487860019E-02 
435	 3.17850253917587E-02 
436	 3.18162530605373E-02 
437	 3.14323077644667E-02 
438	 3.08640095711211E-02 
439	 3.05434562164842E-02 
440	 0.03119503240052 
441	 3.18463082075641E-02 
442	 3.21016329156308E-02 
443	 0.031808640049694 
444	 3.13164924712522E-02 
445	 0.030992171022795 
446	 3.16062337019824E-02 
447	 3.25644508228442E-02 
448	 3.22729399716787E-02 
449	 3.20122908800937E-02 
450	 3.21078764236238E-02 
451	 3.19537743257059E-02 
452	 3.16449615773773E-02 
453	 0.031326698990227 
454	 0.03130168770966 
455	 3.16475206658329E-02 
456	 3.25087711087829E-02 
457	 3.27444319085161E-02 
458	 3.20330755759355E-02 
459	 3.16847379952411E-02 
460	 3.16963378726254E-02 
461	 3.19156982120072E-02 
462	 3.23193132845065E-02 
463	 3.26241397571281E-02 
464	 3.20532554799085E-02 
465	 0.031532336762624 
466	 3.15441014489442E-02 
467	 3.16545753829646E-02 
468	 3.18800989292801E-02 
469	 0.032320499260308 
470	 3.19680858286689E-02 
471	 3.11997021086844E-02 
472	 3.23909353971936E-02 
473	 0.033260832800932 
474	 0.032461578310383 
475	 3.18008613971849E-02 
476	 0.031464560690157 
477	 3.12330206131798E-02 
478	 3.21843310542237E-02 
479	 3.38445765329741E-02 
480	 0.033098186927151 
481	 3.19555544459001E-02 
482	 3.21086738028961E-02 
483	 3.27369995366662E-02 
484	 3.33803498266915E-02 
485	 3.32625865842857E-02 
486	 3.30932531662225E-02 
487	 3.31031938368842E-02 
488	 3.30165128008164E-02 
489	 3.29659120890266E-02 
490	 3.30918725071022E-02 
491	 3.32584602974169E-02 
492	 3.33868131350429E-02 
493	 3.34394080359802E-02 
494	 3.29889936729146E-02 
495	 3.21402888445003E-02 
496	 3.27504845127923E-02 
497	 3.36641303428254E-02 
498	 3.31879565440118E-02 
499	 3.27376620980602E-02 
500	 3.26536984359801E-02 
501	 3.28658883807695E-02 
502	 3.29637933053986E-02 
503	 0.032750980754249 
504	 3.28306347140552E-02 
505	 3.31436561411167E-02 
506	 0.033460498106718 
507	 0.033746291908745 
508	 3.39845389986327E-02 
509	 3.42665801545429E-02 
510	 3.43445641146662E-02 
511	 3.40594184132623E-02 
512	 3.39308329528117E-02 
513	 3.40017399264922E-02 
514	 3.41380829297612E-02 
515	 3.42961093681436E-02 
516	 3.45176227471684E-02 
517	 3.52982770921013E-02 
518	 3.56314729159935E-02 
519	 3.44976011153957E-02 
520	 0.033924113314961 
521	 3.42147979117753E-02 
522	 0.034962783027192 
523	 3.54836083707741E-02 
524	 3.55377143179292E-02 
525	 3.61564554550209E-02 
526	 0.036632362539296 
527	 3.58221282944281E-02 
528	 3.54000142783641E-02 
529	 3.57078463873848E-02 
530	 3.62686364313726E-02 
531	 0.036628720502705 
532	 3.65376361228713E-02 
533	 3.66905935605932E-02 
534	 3.70678272174503E-02 
535	 3.74835405621639E-02 
536	 0.0373396143828 
537	 3.66984231453202E-02 
538	 3.68695722486193E-02 
539	 0.037111415363612 
540	 3.67017737705972E-02 
541	 3.69085515512369E-02 
542	 3.75437929101052E-02 
543	 3.74482403715469E-02 
544	 3.73267065205459E-02 
545	 3.75004735482602E-02 
546	 3.80623039721486E-02 
547	 3.86124457723415E-02 
548	 3.86320728447406E-02 
549	 3.81704884303011E-02 
550	 3.75560345426402E-02 
551	 3.78014269250539E-02 
552	 3.80949996985227E-02 
553	 0.037957587544514 
554	 0.037958668749288 
555	 3.81842289617384E-02 
556	 0.03866713659805 
557	 0.039035699586615 
558	 3.91786939387024E-02 
559	 3.93173291369625E-02 
560	 3.93154776102089E-02 
561	 0.039062715335258 
562	 3.88194260404005E-02 
563	 3.87347126754833E-02 
564	 0.039060892135087 
565	 3.93195699249944E-02 
566	 3.92673522476649E-02 
567	 0.038814789073214 
568	 3.84781068018138E-02 
569	 3.89087900290266E-02 
570	 3.93232839171226E-02 
571	 3.95015261859873E-02 
572	 0.039506323743731 
573	 3.92817092475977E-02 
574	 0.03888233685226 
575	 0.038917624762008 
576	 3.93595009091159E-02 
577	 4.00397797653124E-02 
578	 4.00654330796331E-02 
579	 3.94726251074694E-02 
580	 3.99628952915079E-02 
581	 4.01580452048021E-02 
582	 3.89622220879406E-02 
583	 3.91988650526755E-02 
584	 4.03483431321798E-02 
585	 3.97011639698717E-02 
586	 3.90755042021464E-02 
587	 3.92507034143625E-02 
588	 4.04558122282758E-02 
589	 4.13094505364148E-02 
590	 3.99982178039312E-02 
591	 3.95844894414674E-02 
592	 4.01881997544422E-02 
593	 3.94093766669159E-02 
594	 3.91026999813419E-02 
595	 4.01718885695659E-02 
596	 4.06280654348025E-02 
597	 4.05421752944208E-02 
598	 4.05002682699316E-02 
599	 4.08116861664979E-02 
600	 4.12844064623363E-02 
601	 4.04715470187407E-02 
602	 3.97735351660977E-02 
603	 4.04206133463195E-02 
604	 4.12362615898254E-02 
605	 4.18491160599902E-02 
606	 4.20034765343401E-02 
607	 4.16190705039732E-02 
608	 4.08881637627444E-02 
609	 4.11146632083321E-02 
610	 4.16897466869954E-02 
611	 4.16926514482365E-02 
612	 4.11772669295144E-02 
613	 4.05743913848518E-02 
614	 4.12862134971092E-02 
615	 0.042066773480853 
616	 4.21484362963478E-02 
617	 0.042026050996598 
618	 4.19674967321325E-02 
619	 4.23368166608479E-02 
620	 4.24981199822675E-02 
621	 4.23620645814031E-02 
622	 4.24419013496393E-02 
623	 4.26145818346173E-02 
624	 4.27138155936661E-02 
625	 4.21129896771053E-02 
626	 4.13971906868062E-02 
627	 4.24371000247845E-02 
628	 4.32060280212567E-02 
629	 4.29782642946458E-02 
630	 4.27832134188426E-02 
631	 4.28683962973451E-02 
632	 4.34117732131104E-02 
633	 4.34188959235254E-02 
634	 4.29586212325989E-02 
635	 4.30813851018953E-02 
636	 4.33093375330794E-02 
637	 4.34052378013267E-02 
638	 4.38880749369635E-02 
639	 4.43303154624146E-02 
640	 0.043868533103644 
641	 4.33587305920919E-02 
642	 0.043224619085325 
643	 4.40697701362499E-02 
644	 4.44030868778255E-02 
645	 4.30744872534298E-02 
646	 4.32587313740797E-02 
647	 4.45598650758323E-02 
648	 4.43057527054828E-02 
649	 4.37544850631148E-02 
650	 4.35410792642217E-02 
651	 0.04453682018858 
652	 4.53505418454614E-02 
653	 4.42864760171996E-02 
654	 4.37786254284847E-02 
655	 4.40899223219558E-02 
656	 4.39584924704094E-02 
657	 4.36047604892446E-02 
658	 4.32384977081546E-02 
659	 4.32759704243003E-02 
660	 4.35100333306456E-02 
661	 4.35525150481089E-02 
662	 0.043437459591376 
663	 4.33763949569342E-02 
664	 4.43075628112959E-02 
665	 4.49466405491147E-02 
666	 0.044292020999707 
667	 4.40026355488145E-02 
668	 4.41273760947452E-02 
669	 4.40429095455809E-02 
670	 4.37854952897704E-02 
671	 0.043496878549657 
672	 4.39496081823073E-02 
673	 4.46350016167357E-02 
674	 0.044912224196852 
675	 4.53761449352446E-02 
676	 0.045801337804904 
677	 4.50335641471799E-02 
678	 4.46836609846867E-02 
679	 4.54819669904299E-02 
680	 4.57575445927829E-02 
681	 4.58137154716343E-02 
682	 0.046449081093968 
683	 4.71545036281943E-02 
684	 4.77272024290003E-02 
685	 4.80283020390195E-02 
686	 4.80480844340487E-02 
687	 0.047901971788158 
688	 4.92427367477824E-02 
689	 0.051245662993757 
690	 5.17086643176967E-02 
691	 5.21737029470681E-02 
692	 0.052966198520689 
693	 5.30269263993349E-02 
694	 5.35476419891695E-02 
695	 5.56663449418551E-02 
696	 5.65682455016608E-02 
697	 0.056497511226954 
698	 5.77448254805902E-02 
699	 5.87680072373382E-02 
700	 5.90480899163673E-02 
701	 6.03158076188494E-02 
702	 6.17264499749651E-02 
703	 6.19065564825754E-02 
704	 6.23502563775045E-02 
705	 6.33372217488649E-02 
706	 6.45581963172486E-02 
707	 6.52548533999711E-02 
708	 0.065099128198318 
709	 6.58149411740908E-02 
710	 6.71344895503047E-02 
711	 6.81609560259592E-02 
712	 6.85681654911674E-02 
713	 6.84334305931166E-02 
714	 6.86723170106649E-02 
715	 6.93615655157846E-02 
716	 7.05459157216169E-02 
717	 7.10449317292915E-02 
718	 7.11657988983303E-02 
719	 7.29141228296872E-02 
720	 7.41251289928972E-02 
721	 7.41350256855748E-02 
722	 7.39927449232002E-02 
723	 7.42010977094753E-02 
724	 7.52634108156739E-02 
725	 7.58473878122029E-02 
726	 7.60821412120948E-02 
727	 7.77554031748369E-02 
728	 7.86358316343688E-02 
729	 7.78907963352479E-02 
730	 7.80628108694273E-02 
731	 7.88427326961316E-02 
732	 7.93838762499353E-02 
733	 7.98751368046224E-02 
734	 8.02748025288259E-02 
735	 8.01791858394488E-02 
736	 8.07782580325867E-02 
737	 8.25856847935982E-02 
738	 8.28189640281127E-02 
739	 8.21179208861898E-02 
740	 8.23613684607923E-02 
741	 8.30268247385593E-02 
742	 8.38837352304074E-02 
743	 0.084504952875553 
744	 8.50020366526741E-02 
745	 8.54787064087485E-02 
746	 8.57594839331922E-02 
747	 8.60094030783592E-02 
748	 8.66989652997231E-02 
749	 8.72532480081244E-02 
750	 8.75984820725232E-02 
751	 8.85830493907933E-02 
752	 8.94900525459722E-02 
753	 8.95398188588177E-02 
754	 8.95514127858463E-02 
755	 8.97745986152427E-02 
756	 9.04520416756137E-02 
757	 9.07286394388636E-02 
758	 9.04232381089549E-02 
759	 0.091883175156613 
760	 9.47484104312941E-02 
761	 9.36360161071301E-02 
762	 9.40175550036323E-02 
763	 9.58446053385488E-02 
764	 9.44554843393196E-02 
765	 9.45179107818368E-02 
766	 9.66711902883423E-02 
767	 9.62774876096051E-02 
768	 9.53586808761312E-02 
769	 9.64700205195796E-02 
770	 9.71278044270899E-02 
771	 9.71943029488954E-02 
772	 0.098475737189747 
773	 9.91767358256233E-02 
774	 9.83345999355905E-02 
775	 9.86235026549567E-02 
776	 9.97967626535034E-02 
777	 0.100737101314251 
778	 0.10115941576157 
779	 0.101200537115014 
780	 0.102049201213505 
781	 0.102878621578301 
782	 0.103076007401004 
783	 0.103727627005238 
784	 0.104553921268777 
785	 0.104538984041258 
786	 0.104931705179812 
787	 0.105958433080271 
788	 0.106598150964685 
789	 0.106736575321527 
790	 0.106407465727773 
791	 0.106931833596389 
792	 0.107891691192233 
793	 0.10756076930045 
794	 0.107605500896466 
795	 0.108605885396698 
796	 0.110378035658698 
797	 0.111508245216254 
798	 0.110743120800953 
799	 0.110724132768472 
800	 0.111555874947712 
801	 0.112014075007076 
802	 0.112212959407034 
803	 0.112397500749633 
804	 0.113879420567818 
805	 0.115528640005976 
806	 0.116057330094701 
807	 0.115939322743316 
808	 0.115859726337061 
809	 0.117509724834104 
810	 0.119073980933657 
811	 0.119653897274979 
812	 0.119292779208173 
813	 0.118727103249442 
814	 0.118977110537328 
815	 0.120296352737245 
816	 0.122028605436581 
817	 0.121825461796196 
818	 0.122152237431191 
819	 0.123739027000859 
820	 0.124151964846425 
821	 0.124661517955166 
822	 0.126857750442223 
823	 0.12746783120262 
824	 0.126476064217215 
825	 0.125972509518299 
826	 0.12600758700026 
827	 0.126771556778701 
828	 0.128932719054745 
829	 0.130217200498701 
830	 0.128012619247875 
831	 0.128288130680402 
832	 0.131013835000253 
833	 0.132290819705151 
834	 0.132639202189306 
835	 0.132404262567135 
836	 0.132741713183364 
837	 0.133527744438557 
838	 0.134486853186167 
839	 0.135907808107208 
840	 0.13731341845782 
841	 0.137319038758909 
842	 0.137047590661677 
843	 0.136980790127365 
844	 0.136729843377747 
845	 0.136753949288657 
846	 0.137580725832503 
847	 0.139147789396955 
848	 0.141197045911127 
849	 0.143278447511783 
850	 0.144501639446819 
851	 0.144433872795682 
852	 0.143307550076092 
853	 0.142314111338332 
854	 0.142676366403283 
855	 0.143945312281024 
856	 0.145453905898872 
857	 0.145830336025793 
858	 0.14644726487416 
859	 0.147734363257172 
860	 0.149520548568375 
861	 0.15036812209975 
862	 0.149098616508517 
863	 0.148627687165226 
864	 0.149129972983353 
865	 0.149418938613351 
866	 0.151150794560931 
867	 0.153826705967053 
868	 0.15276890975224 
869	 0.151713506819361 
870	 0.153657940861989 
871	 0.155286460763882 
872	 0.156047469552942 
873	 0.155800329543417 
874	 0.156692455029255 
875	 0.158717237200942 
876	 0.158851119849109 
877	 0.158827325262823 
878	 0.159924138752148 
879	 0.161813999296214 
880	 0.163248656792411 
881	 0.162300207441014 
882	 0.16270832237133 
883	 0.164927587156613 
884	 0.166916250388779 
885	 0.167186039870408 
886	 0.165350344446411 
887	 0.165088728040057 
888	 0.166076298037864 
889	 0.167241115101804 
890	 0.168039875440504 
891	 0.168931992932531 
892	 0.172241222876547 
893	 0.174032860104603 
894	 0.172952837772029 
895	 0.174126375233568 
896	 0.174473887149761 
897	 0.170325031311654 
898	 0.171590376906979 
899	 0.17700105059298 
900	 0.178043721547367 
901	 0.177526224809044 
902	 0.176528291421423 
903	 0.175795686240561 
904	 0.17703199608655 
905	 0.180862864905286 
906	 0.180508886258144 
907	 0.178694228999324 
908	 0.18232299954456 
909	 0.181231371654017 
910	 0.175680791650772 
911	 0.178167304117023 
912	 0.181511805369944 
913	 0.181915228431331 
914	 0.184623678397459 
915	 0.187015535239817 
916	 0.185596532006803 
917	 0.182905373338233 
918	 0.181332896403503 
919	 0.185804365618231 
920	 0.188637382821542 
921	 0.187535161129722 
922	 0.185748140242945 
923	 0.185966551601667 
924	 0.19006239928579 
925	 0.190661161186783 
926	 0.189942478949684 
927	 0.196082294268484 
928	 0.198827140420116 
929	 0.195486854527091 
930	 0.193499267577628 
931	 0.193571391637078 
932	 0.196431324273518 
933	 0.200935770320446 
934	 0.201290687946031 
935	 0.190457880831 
936	 0.189890811989457 
937	 0.197171813042149 
938	 0.190953440033631 
939	 0.183633916804377 
940	 0.181346289251335 
941	 0.194548854614999 
942	 0.201005119854411 
943	 0.187504318715479 
944	 0.184021138319718 
945	 0.188418844399503 
946	 0.190740812284004 
947	 0.186021533321623 
948	 0.180829649497171 
949	 0.201386918270728 
950	 0.21810750172678 
951	 0.217110455764422 
952	 0.194171764527244 
953	 0.1771553335829 
954	 0.191211606606972 
955	 0.202934960096404 
956	 0.208242279884725 
957	 0.209731542236379 
958	 0.209747188681438 
959	 0.207990043608289 
960	 0.199553661428797 
961	 0.196369014658681 
962	 0.201349758596563 
963	 0.196135033656462 
964	 0.192114875428301 
965	 0.200377118920423 
966	 0.204741500596035 
967	 0.203768501716833 
968	 0.199582367702023 
969	 0.201530555753763 
970	 0.208519805575461 
971	 0.206561320442928 
972	 0.203027931953116 
973	 0.202018104607759 
974	 0.200687363736754 
975	 0.200853817724618 
976	 0.204476203861654 
977	 0.208178127607576 
978	 0.209924092083145 
979	 0.206903811018953 
980	 0.206536676577514 
981	 0.209430192524469 
982	 0.208292845150937 
983	 0.208358111590183 
984	 0.211714170644062 
985	 0.213380027843832 
986	 0.212227902209454 
987	 0.208324896062775 
988	 0.212300724074112 
989	 0.217062106202292 
990	 0.204403895769708 
991	 0.200414612717277 
992	 0.21014499737947 
993	 0.22396870086563 
994	 0.228145241422552 
995	 0.218019403144671 
996	 0.217005789408255 
997	 0.221037856243099 
998	 0.223979183593348 
999	 0.222690261647554 
1000	 0.21799111421856 
1001	 0.212267084681417 
1002	 0.214294115643384 
1003	 0.222210078382287 
1004	 0.221605076759728 
1005	 0.219906480830373 
1006	 0.220419844444601 
1007	 0.223649858572425 
1008	 0.22723471993917 
1009	 0.228775755067722 
1010	 0.226493434940547 
1011	 0.223303203035208 
1012	 0.223311118387198 
1013	 0.223996441848388 
1014	 0.223862441152059 
1015	 0.2202762205595 
1016	 0.218644253514409 
1017	 0.222742695225299 
1018	 0.241038598095819 
1019	 0.25018950967831 
1020	 0.237872929259071 
1021	 0.219254953356051 
1022	 0.215989276983199 
1023	 0.2416994634954 
1024	 0.241703057025418 
1025	 0.224272154594598 
1026	 0.220618313429147 
1027	 0.227079580105292 
1028	 0.238037987403333 
1029	 0.237969872451379 
1030	 0.239728868468146 
1031	 0.244457682357057 
1032	 0.238098361577421 
1033	 0.227667297078804 
1034	 0.221654671676963 
1035	 0.233815648723194 
1036	 0.247707696900609 
1037	 0.244346874682458 
1038	 0.230557915934303 
1039	 0.215211040113889 
1040	 0.209436372395423 
1041	 0.223761940328563 
1042	 0.243547834610634 
1043	 0.227543494921959 
1044	 0.208567700430615 
1045	 0.200595599189244 
1046	 0.210981870700315 
1047	 0.211694923883713 
1048	 0.191257411358193 
1049	 0.184654278276195 
1050	 0.200659895463058 
1051	 0.238189968043701 
1052	 0.240870740543118 
1053	 0.222549906193902 
1054	 0.222372367931341 
1055	 0.215788104217413 
1056	 0.201863745202445 
1057	 0.188140360229894 
1058	 0.198016418037714 
1059	 0.231020475765385 
1060	 0.264630438248795 
1061	 0.263184727067798 
1062	 0.222136375140949 
1063	 0.229686017705913 
1064	 0.230251390661194 
1065	 0.191889975245087 
1066	 0.205427939336924 
1067	 0.246945670375083 
1068	 0.268628398394119 
1069	 0.241397263656223 
1070	 0.187117314755784 
1071	 0.173160819963547 
1072	 0.155105242093803 
1073	 0.134294267971462 
1074	 0.160616645065051 
1075	 0.212845117076183 
