Wavelength	SHSI00320.asd
325	 3.84832328509324E-02 
326	 4.97252548019343E-02 
327	 6.27919453324128E-02 
328	 5.87178471757966E-02 
329	 5.18795320229236E-02 
330	 4.84438957981098E-02 
331	 0.047849067603428 
332	 5.00685057124055E-02 
333	 5.46969543895808E-02 
334	 5.36845373914806E-02 
335	 0.050643004268374 
336	 5.83510047838882E-02 
337	 6.05542389436774E-02 
338	 5.46789090835127E-02 
339	 5.23461486747554E-02 
340	 5.33121819494327E-02 
341	 5.63267393344968E-02 
342	 5.57206777925142E-02 
343	 5.29561161200238E-02 
344	 5.24088761291616E-02 
345	 5.23820408405769E-02 
346	 5.26966889139232E-02 
347	 5.42144582553471E-02 
348	 0.055883793448708 
349	 5.67360557148076E-02 
350	 5.50417095651552E-02 
351	 5.26246715853651E-02 
352	 5.24906941789332E-02 
353	 5.31676056144716E-02 
354	 5.39085653324191E-02 
355	 5.33829101417557E-02 
356	 5.29464311990218E-02 
357	 5.35018726992323E-02 
358	 5.52758535392421E-02 
359	 5.65570529747629E-02 
360	 5.48348375098311E-02 
361	 5.43344953815794E-02 
362	 5.51510608487039E-02 
363	 5.35145133597448E-02 
364	 5.32609276529741E-02 
365	 5.57146113675105E-02 
366	 5.54368897185526E-02 
367	 5.41423477764473E-02 
368	 5.48667672544397E-02 
369	 5.44885360485646E-02 
370	 5.30714757239443E-02 
371	 5.30932081378053E-02 
372	 5.39765008635556E-02 
373	 5.51665718408203E-02 
374	 5.52558919208448E-02 
375	 5.43618019641002E-02 
376	 5.29236357002582E-02 
377	 5.28483186771018E-02 
378	 5.38491379816481E-02 
379	 5.31801705426318E-02 
380	 5.31162967532357E-02 
381	 5.45670586917364E-02 
382	 5.58031162138855E-02 
383	 5.58452395973367E-02 
384	 5.37048068279019E-02 
385	 5.30626639850089E-02 
386	 5.38804523326742E-02 
387	 5.28935240514376E-02 
388	 0.051982404193431 
389	 5.19906064441365E-02 
390	 5.26428991623834E-02 
391	 5.35933456544627E-02 
392	 5.44692160021742E-02 
393	 5.37859533870336E-02 
394	 5.20776578657117E-02 
395	 5.15851452175862E-02 
396	 5.22543708273476E-02 
397	 5.34246252886665E-02 
398	 5.19573186732934E-02 
399	 5.00170447273336E-02 
400	 4.99191853002954E-02 
401	 5.08823353745553E-02 
402	 5.20667767780801E-02 
403	 5.19924955032674E-02 
404	 5.11720053993843E-02 
405	 5.01908653399492E-02 
406	 5.12892257637639E-02 
407	 5.25887342928249E-02 
408	 0.051606013624956 
409	 5.14220140158571E-02 
410	 5.20958858723415E-02 
411	 0.051782636458932 
412	 5.12419148089759E-02 
413	 5.09035476845363E-02 
414	 5.10435556510359E-02 
415	 5.14346463105009E-02 
416	 5.17486643447539E-02 
417	 5.19927297458654E-02 
418	 5.21187299639904E-02 
419	 5.21223963411131E-02 
420	 5.15732968905451E-02 
421	 5.05406156194353E-02 
422	 5.11091722526906E-02 
423	 0.052437204187081 
424	 5.30015607617846E-02 
425	 5.29116565043315E-02 
426	 5.24235016579358E-02 
427	 5.24016180597809E-02 
428	 5.27903183955413E-02 
429	 5.33954550694463E-02 
430	 5.30032457038986E-02 
431	 5.22539019729863E-02 
432	 5.24976837330023E-02 
433	 5.23584206477967E-02 
434	 0.051874730656672 
435	 5.25191451833626E-02 
436	 5.31163014473405E-02 
437	 5.29498409973272E-02 
438	 5.31768989739204E-02 
439	 5.35315314565582E-02 
440	 5.32140251450538E-02 
441	 5.29617900839871E-02 
442	 5.29954068933513E-02 
443	 5.32220720352644E-02 
444	 5.33778695459125E-02 
445	 5.32912429681728E-02 
446	 5.35252645381264E-02 
447	 0.053964873032834 
448	 5.41659866830808E-02 
449	 5.42405811665679E-02 
450	 5.42444978338145E-02 
451	 5.43467773017252E-02 
452	 5.43380885787837E-02 
453	 5.40397079041733E-02 
454	 5.42718138849934E-02 
455	 5.47940310134657E-02 
456	 5.44663268874722E-02 
457	 0.054194668351246 
458	 5.43839594462658E-02 
459	 5.51170979522031E-02 
460	 5.55766282039794E-02 
461	 5.48423205991665E-02 
462	 5.49432738672999E-02 
463	 5.58137943634349E-02 
464	 5.57647673595506E-02 
465	 5.54316351903815E-02 
466	 5.52021879257841E-02 
467	 0.055469710844262 
468	 0.055882691319587 
469	 5.58639243366208E-02 
470	 5.56197569111433E-02 
471	 5.53029488665803E-02 
472	 5.52085476748502E-02 
473	 5.53267773103924E-02 
474	 5.55955703091119E-02 
475	 5.55994174255325E-02 
476	 5.54300956900937E-02 
477	 5.53446101981798E-02 
478	 0.055374193918877 
479	 5.55861617709191E-02 
480	 5.62248627534688E-02 
481	 5.65826960235581E-02 
482	 5.61481845849522E-02 
483	 5.59358710821151E-02 
484	 5.60294551376278E-02 
485	 5.61880914671793E-02 
486	 5.62720929888652E-02 
487	 5.62328064634319E-02 
488	 5.62191348931227E-02 
489	 5.62529156879625E-02 
490	 5.63550604605389E-02 
491	 5.68553758126555E-02 
492	 5.73739224054466E-02 
493	 5.66812047956761E-02 
494	 5.62134217842132E-02 
495	 5.65967343137412E-02 
496	 5.73910968723923E-02 
497	 5.80557116574288E-02 
498	 0.057972797104872 
499	 0.057714605842264 
500	 5.75517965377961E-02 
501	 5.78229296289414E-02 
502	 5.81375940357923E-02 
503	 5.82578367399981E-02 
504	 5.83857032713387E-02 
505	 5.85102584979999E-02 
506	 5.85643630877953E-02 
507	 5.87110922138691E-02 
508	 5.90504497316913E-02 
509	 5.98255103057457E-02 
510	 6.03293295410932E-02 
511	 6.00719802525836E-02 
512	 6.01449169960662E-02 
513	 6.06882933866062E-02 
514	 6.16393484179519E-02 
515	 6.23023703791859E-02 
516	 0.06240903889121 
517	 6.22590606122146E-02 
518	 6.22502054953045E-02 
519	 6.27528950964768E-02 
520	 6.31321281193983E-02 
521	 6.33835434098343E-02 
522	 6.38977297741222E-02 
523	 6.43864516360529E-02 
524	 6.47249331537496E-02 
525	 6.50561168334626E-02 
526	 0.065245338939779 
527	 6.50718882783615E-02 
528	 6.53060752606357E-02 
529	 6.59761878275645E-02 
530	 6.64666431898604E-02 
531	 6.67947332615441E-02 
532	 6.69812190863079E-02 
533	 6.71111518879485E-02 
534	 6.72809355764606E-02 
535	 6.76416168310655E-02 
536	 6.79616545451822E-02 
537	 6.82024775371105E-02 
538	 0.068570413707585 
539	 6.89499825267307E-02 
540	 6.92103691530935E-02 
541	 6.92295758737535E-02 
542	 0.069183003864078 
543	 6.96180513908904E-02 
544	 6.98922839830598E-02 
545	 6.98295424225973E-02 
546	 7.01541096563388E-02 
547	 7.05432508434868E-02 
548	 7.04950561157278E-02 
549	 7.05900797292282E-02 
550	 7.09453814188507E-02 
551	 7.14714067158273E-02 
552	 7.18292618045379E-02 
553	 7.18405927148632E-02 
554	 7.20171954278361E-02 
555	 7.22902763216852E-02 
556	 7.23945247503419E-02 
557	 7.24512352612023E-02 
558	 7.24978390900478E-02 
559	 7.25378505532636E-02 
560	 7.25832175603111E-02 
561	 7.26403922373461E-02 
562	 0.072606560233998 
563	 7.26276481197049E-02 
564	 7.31681503659361E-02 
565	 7.35438148429058E-02 
566	 7.35040755942121E-02 
567	 7.35322405108361E-02 
568	 0.073411088824745 
569	 7.28186002667356E-02 
570	 7.27260567009373E-02 
571	 7.30834603106258E-02 
572	 7.27775985223133E-02 
573	 7.26680217651179E-02 
574	 7.31702806993779E-02 
575	 0.073164889732535 
576	 7.28174781316142E-02 
577	 7.27268952669137E-02 
578	 7.24682095911413E-02 
579	 7.20747825387485E-02 
580	 7.21743281220402E-02 
581	 7.24412488967421E-02 
582	 7.25561134814687E-02 
583	 7.24802022299413E-02 
584	 7.23930763734489E-02 
585	 7.28462980432158E-02 
586	 0.073013398766407 
587	 7.26589969507859E-02 
588	 7.25906967893534E-02 
589	 7.28055109576595E-02 
590	 7.31821354446596E-02 
591	 7.29730910914879E-02 
592	 7.22900301448133E-02 
593	 7.20707815131008E-02 
594	 7.20607483264976E-02 
595	 7.21041624513464E-02 
596	 7.20908377984923E-02 
597	 7.21261396837002E-02 
598	 7.24548764805913E-02 
599	 7.25571534115926E-02 
600	 7.23327331261233E-02 
601	 7.21144112539577E-02 
602	 7.20250541124072E-02 
603	 7.21364168956816E-02 
604	 7.20107727392392E-02 
605	 7.18350021104979E-02 
606	 7.23918059173724E-02 
607	 7.24739236901631E-02 
608	 7.17651741064847E-02 
609	 7.16050345799295E-02 
610	 7.16915597610832E-02 
611	 7.14912234711688E-02 
612	 7.12617192971837E-02 
613	 7.12002026847688E-02 
614	 7.18497019984051E-02 
615	 7.21124867306798E-02 
616	 7.14289074732937E-02 
617	 7.12309358269992E-02 
618	 7.13517278264783E-02 
619	 7.11433098479501E-02 
620	 7.09355581973905E-02 
621	 7.07657504646306E-02 
622	 7.03075552751416E-02 
623	 7.02625600381755E-02 
624	 7.11735437201114E-02 
625	 7.14436202797722E-02 
626	 7.11017927453223E-02 
627	 7.10630494853209E-02 
628	 7.10920289690603E-02 
629	 7.10782681719453E-02 
630	 7.07562397282256E-02 
631	 7.03758067449257E-02 
632	 7.02708566911713E-02 
633	 7.02939405808699E-02 
634	 7.03825966965274E-02 
635	 7.04545353531313E-02 
636	 7.05664063656969E-02 
637	 7.06643397912387E-02 
638	 7.00421393662867E-02 
639	 6.92768289887724E-02 
640	 6.95319487225348E-02 
641	 0.07000899252738 
642	 7.03088052131371E-02 
643	 6.99122403340342E-02 
644	 6.94301997642649E-02 
645	 6.94170871018306E-02 
646	 6.96630105176132E-02 
647	 6.99092250420037E-02 
648	 6.96356648100449E-02 
649	 6.90090397295766E-02 
650	 6.83187624688902E-02 
651	 6.87285031519737E-02 
652	 6.92548254049278E-02 
653	 6.86376426650782E-02 
654	 6.86176326978836E-02 
655	 6.91016504665012E-02 
656	 6.81821951365145E-02 
657	 6.74793194236028E-02 
658	 6.77595561340773E-02 
659	 6.68814068228092E-02 
660	 6.57149194290395E-02 
661	 6.60416538397412E-02 
662	 6.63343957041381E-02 
663	 6.61484358270954E-02 
664	 6.56594217956729E-02 
665	 6.49385693389964E-02 
666	 6.41177231944976E-02 
667	 6.40095852244724E-02 
668	 6.43066725029243E-02 
669	 6.38807285567214E-02 
670	 0.063583201514269 
671	 6.36062384761459E-02 
672	 6.32177857039874E-02 
673	 0.062944392837547 
674	 0.063420953200083 
675	 6.35054336190426E-02 
676	 0.063312497832468 
677	 6.41467972085683E-02 
678	 6.44311583051628E-02 
679	 6.35855336860428E-02 
680	 6.39835628752872E-02 
681	 6.50762547346672E-02 
682	 0.06555766657198 
683	 6.57864021425416E-02 
684	 6.59716852012573E-02 
685	 6.66348696531431E-02 
686	 6.75594241571445E-02 
687	 6.85236683609912E-02 
688	 6.93290064783268E-02 
689	 7.01428020618361E-02 
690	 0.071642432945893 
691	 7.28809864940347E-02 
692	 7.36486023032902E-02 
693	 7.42938231757045E-02 
694	 7.52245685091188E-02 
695	 7.67700630620176E-02 
696	 7.83269484160809E-02 
697	 7.96369991229333E-02 
698	 8.03985581687876E-02 
699	 8.13938951213457E-02 
700	 0.082888860992452 
701	 8.39608539945274E-02 
702	 8.47369313240494E-02 
703	 8.55497372878637E-02 
704	 8.61292129783304E-02 
705	 8.66494611248997E-02 
706	 8.78786061676132E-02 
707	 8.88940699540288E-02 
708	 8.92021820103271E-02 
709	 9.01000103117574E-02 
710	 9.12786825436635E-02 
711	 9.18724442364852E-02 
712	 9.21019724917129E-02 
713	 9.21664928313033E-02 
714	 9.27221319429947E-02 
715	 9.31593861009846E-02 
716	 0.09293874810145 
717	 9.31570462380797E-02 
718	 0.093825132625417 
719	 9.40206809992397E-02 
720	 9.42056188694749E-02 
721	 9.45390018903175E-02 
722	 9.50077302157124E-02 
723	 9.56235233523974E-02 
724	 9.63617064516507E-02 
725	 9.62897257439968E-02 
726	 9.56846483104024E-02 
727	 9.61358141405862E-02 
728	 9.65517025294011E-02 
729	 9.64874572532842E-02 
730	 9.68136867482052E-02 
731	 9.73812347568189E-02 
732	 9.78577192015849E-02 
733	 9.80579109348202E-02 
734	 9.81028508981101E-02 
735	 9.85895259818795E-02 
736	 9.89024057168198E-02 
737	 0.098679967224644 
738	 9.86719573214413E-02 
739	 9.89456586876192E-02 
740	 9.94447325386129E-02 
741	 9.95954129449583E-02 
742	 9.93371108787692E-02 
743	 0.099239358357649 
744	 9.94499622143119E-02 
745	 0.100036718611773 
746	 0.100484451634076 
747	 0.100645714753022 
748	 0.100411485964307 
749	 0.10023649750064 
750	 0.100332134921615 
751	 0.100702623244764 
752	 0.1010761737445 
753	 0.101172859524226 
754	 0.101257684066544 
755	 0.10125392585544 
756	 0.100777047305751 
757	 0.10025693480772 
758	 9.99402073665707E-02 
759	 0.100273217169216 
760	 0.101286635278385 
761	 0.10178486876303 
762	 0.101885077899592 
763	 0.10176772727739 
764	 0.101581940076723 
765	 0.101362788740139 
766	 0.10126871812588 
767	 0.102043835358076 
768	 0.102785873458667 
769	 0.102397384095473 
770	 0.102213907012974 
771	 0.102360790134924 
772	 0.101920335090463 
773	 0.10205605707424 
774	 0.10335344888493 
775	 0.103757711629474 
776	 0.103461614565491 
777	 0.103348264945426 
778	 0.103554755979444 
779	 0.103966388300792 
780	 0.103746364548016 
781	 0.103501697397922 
782	 0.103701547113584 
783	 0.103747392492475 
784	 0.103762958245226 
785	 0.104270675099696 
786	 0.104301461386101 
787	 0.103749141958128 
788	 0.103696378907435 
789	 0.104234706963714 
790	 0.105275009031929 
791	 0.105251019422263 
792	 0.104468353235415 
793	 0.104460041378776 
794	 0.104294416624799 
795	 0.103864310205045 
796	 0.10416990151943 
797	 0.104628655157589 
798	 0.104638061759062 
799	 0.105069057641393 
800	 0.105649608075455 
801	 0.105190929046909 
802	 0.104741618012027 
803	 0.104803495802191 
804	 0.105660310931009 
805	 0.106245103842928 
806	 0.105468297670431 
807	 0.105011652945359 
808	 0.105109772618841 
809	 0.10534838702912 
810	 0.105666543148131 
811	 0.10592237954658 
812	 0.105605350986049 
813	 0.105345231615283 
814	 0.106016942124024 
815	 0.106965200176423 
816	 0.107523738676324 
817	 0.106221375409776 
818	 0.105407682844445 
819	 0.10600303234116 
820	 0.106605570275538 
821	 0.106866473133816 
822	 0.106536158142544 
823	 0.107094469157917 
824	 0.107978418522944 
825	 0.10646966112114 
826	 0.106061516370936 
827	 0.107709292994198 
828	 0.107463987052936 
829	 0.106422525904484 
830	 0.106385937881576 
831	 0.107151981914991 
832	 0.108105221147526 
833	 0.107579822896472 
834	 0.107179332107287 
835	 0.107555166966579 
836	 0.10809113229768 
837	 0.108549155709286 
838	 0.108708616481527 
839	 0.108290280046155 
840	 0.107687567669682 
841	 0.108114558728642 
842	 0.108763769718064 
843	 0.109270146534693 
844	 0.10980657201928 
845	 0.109832805308253 
846	 0.108814700500134 
847	 0.108246285660484 
848	 0.108293994882811 
849	 0.108530925623153 
850	 0.108026554888393 
851	 0.106811685547677 
852	 0.107574025400961 
853	 0.109119901703434 
854	 0.109862249830507 
855	 0.109247628314361 
856	 0.108120671483216 
857	 0.108896414557696 
858	 0.109783756531075 
859	 0.110066806551529 
860	 0.109385497803575 
861	 0.108771209065846 
862	 0.109146986617881 
863	 0.108791245604245 
864	 0.108160772860662 
865	 0.109137487555645 
866	 0.109617662056153 
867	 0.109201700967695 
868	 0.109717616859936 
869	 0.110175004594224 
870	 0.109812961303167 
871	 0.109904118390922 
872	 0.110422913155496 
873	 0.110976172568493 
874	 0.111024021223016 
875	 0.110495734626213 
876	 0.109878379818174 
877	 0.109631013038029 
878	 0.110055781444951 
879	 0.110879798491743 
880	 0.111332891142319 
881	 0.110284582200564 
882	 0.110002854988761 
883	 0.110630313141232 
884	 0.110200538421298 
885	 0.11013723633361 
886	 0.110862630393739 
887	 0.109187422786694 
888	 0.108077482027488 
889	 0.111725397703032 
890	 0.113526587399732 
891	 0.112461353581265 
892	 0.110351453355915 
893	 0.109965716519217 
894	 0.112071386555923 
895	 0.111193214178456 
896	 0.109621090499139 
897	 0.110515281870317 
898	 0.110891320436313 
899	 0.110831403215324 
900	 0.112256492668985 
901	 0.112460397356287 
902	 0.11114770879096 
903	 0.111217891254598 
904	 0.111344767352908 
905	 0.110632810579022 
906	 0.111503075929997 
907	 0.112679968251352 
908	 0.111283888586995 
909	 0.110614266904298 
910	 0.111141604080413 
911	 0.110518590265871 
912	 0.110802245925436 
913	 0.112803289794115 
914	 0.113766486747595 
915	 0.113511263690774 
916	 0.112328533506238 
917	 0.113060202998828 
918	 0.115089664562373 
919	 0.115127856850309 
920	 0.114559872839191 
921	 0.113534987396272 
922	 0.109937804420333 
923	 0.108900899224467 
924	 0.114176885706669 
925	 0.11228495500072 
926	 0.105660740056935 
927	 0.104765369677033 
928	 0.107495505994009 
929	 0.11241218363786 
930	 0.11466953733403 
931	 0.114630576111794 
932	 0.112725854271148 
933	 0.111706814386766 
934	 0.11099464081026 
935	 0.10897940747865 
936	 0.105467649467649 
937	 0.102515542394204 
938	 0.104585403692173 
939	 0.110951615717973 
940	 0.119526891597132 
941	 0.125871827580036 
942	 0.125602984395198 
943	 0.116772841122971 
944	 0.111138721991406 
945	 0.110199835038419 
946	 0.113221731020832 
947	 0.114810601096234 
948	 0.113980230343702 
949	 0.113244067136447 
950	 0.112806542925335 
951	 0.114518829843944 
952	 0.128564624129928 
953	 0.134195059559765 
954	 0.114847822431478 
955	 0.103136653781743 
956	 0.103120571175818 
957	 0.11146099596013 
958	 0.118088851983379 
959	 0.119402462751132 
960	 0.114131753306972 
961	 0.113397413940177 
962	 0.119814181412525 
963	 0.116579225185118 
964	 0.109917993424209 
965	 0.107385001064258 
966	 0.113696011134748 
967	 0.120873705582186 
968	 0.11155210359593 
969	 0.111979705112757 
970	 0.12264432477844 
971	 0.117490511446771 
972	 0.108163296480583 
973	 0.103572114025787 
974	 0.117076527292557 
975	 0.127586151958127 
976	 0.112856959282914 
977	 0.109793490767623 
978	 0.117349340413243 
979	 0.117066955312427 
980	 0.118519127813696 
981	 0.121593008412996 
982	 0.115795130825196 
983	 0.114590850941008 
984	 0.12238948648986 
985	 0.118762514889392 
986	 0.111693523641994 
987	 0.111575184497593 
988	 0.114980225571543 
989	 0.118820863362892 
990	 0.118344778888718 
991	 0.116724775943192 
992	 0.115042857890176 
993	 0.113066244737967 
994	 0.114174531195605 
995	 0.118288962037153 
996	 0.114692026750779 
997	 0.111255204602524 
998	 0.11578257157178 
999	 0.116345543488901 
1000	 0.113045246167911 
1001	 0.109621320507187 
1002	 0.105888784867426 
1003	 0.104997483459789 
1004	 0.117399999517154 
1005	 0.12232747330205 
1006	 0.113993389485422 
1007	 0.112315144629538 
1008	 0.112812913864552 
1009	 0.111078783388504 
1010	 0.105357419755001 
1011	 0.101444266233846 
1012	 0.107266225420335 
1013	 0.112334536864047 
1014	 0.114838061403801 
1015	 0.11612412598106 
1016	 0.118035450506055 
1017	 0.119785431907367 
1018	 0.114219934951985 
1019	 0.113193634738653 
1020	 0.120255266766373 
1021	 0.113089089902619 
1022	 0.10353058196727 
1023	 0.103779135600545 
1024	 0.10443448717761 
1025	 0.105171375457352 
1026	 0.107818854116938 
1027	 0.112706597459363 
1028	 0.118002556379697 
1029	 0.116240115966823 
1030	 0.128383568506304 
1031	 0.148923075804463 
1032	 0.126688200394462 
1033	 0.102774924912525 
1034	 0.104965662501075 
1035	 0.119822632418184 
1036	 0.121114825431548 
1037	 0.088071739167387 
1038	 0.10068648338987 
1039	 0.135579307778667 
1040	 0.131133339667288 
1041	 0.119425625233759 
1042	 0.108854544576742 
1043	 0.106213553810516 
1044	 0.101026730017058 
1045	 9.10967982575914E-02 
1046	 8.19528180403549E-02 
1047	 9.98088026294161E-02 
1048	 0.145038399157383 
1049	 0.128437740270504 
1050	 9.89182364611777E-02 
1051	 0.108628830934634 
1052	 0.122203672490451 
1053	 0.131683909585001 
1054	 0.130114639073803 
1055	 0.111537759968318 
1056	 8.81129401616365E-02 
1057	 9.50734280729659E-02 
1058	 0.110792856417031 
1059	 0.122518560119986 
1060	 0.110505672650837 
1061	 9.20180059029921E-02 
1062	 8.11197218663703E-02 
1063	 0.105704078454947 
1064	 0.119240783942327 
1065	 9.65013324382603E-02 
1066	 0.111842166180546 
1067	 0.116078161327052 
1068	 0.058079206220378 
1069	 0.116446854370167 
1070	 0.181575413737564 
1071	 4.98337467354556E-02 
1072	 4.20410910098571E-02 
1073	 0.144183663197454 
1074	 0.152435591457071 
1075	 0.102768781536384 
