Wavelength	SHSI00042.asd
325	 5.45313234040959E-02 
326	 5.45541011139571E-02 
327	 3.86250675677691E-02 
328	 3.76691748608951E-02 
329	 4.14816072400537E-02 
330	 4.46259693874665E-02 
331	 3.77330880801261E-02 
332	 3.45286339636265E-02 
333	 4.72570856905189E-02 
334	 5.28499148768349E-02 
335	 5.07059047952682E-02 
336	 4.91037001491266E-02 
337	 4.57767116533036E-02 
338	 4.12940558816174E-02 
339	 3.97483865734985E-02 
340	 3.98218588684303E-02 
341	 0.040151451123788 
342	 4.07136528599268E-02 
343	 4.12504337615615E-02 
344	 4.14173144175372E-02 
345	 4.22160611006069E-02 
346	 4.28247275027154E-02 
347	 3.83103368631646E-02 
348	 3.75006929185706E-02 
349	 0.044695479372657 
350	 4.38789851676039E-02 
351	 3.93317687366311E-02 
352	 4.10169512476096E-02 
353	 4.30738808574591E-02 
354	 4.41140154049292E-02 
355	 4.45711898658184E-02 
356	 4.42976854148927E-02 
357	 4.34324479071427E-02 
358	 4.35722616719096E-02 
359	 4.39191499539668E-02 
360	 4.29746573866639E-02 
361	 4.23589547064896E-02 
362	 4.27199277427852E-02 
363	 4.53539113954251E-02 
364	 4.49287800427912E-02 
365	 0.039869982752603 
366	 0.039765507731422 
367	 4.16890824716403E-02 
368	 4.04674862356266E-02 
369	 3.95824866827021E-02 
370	 4.00198623468014E-02 
371	 4.27628711392065E-02 
372	 4.36561137913595E-02 
373	 4.09751507963895E-02 
374	 4.00541804597031E-02 
375	 4.02109496226049E-02 
376	 3.96647067887169E-02 
377	 3.91124464700121E-02 
378	 3.86250363806969E-02 
379	 3.79260674716975E-02 
380	 3.77364519101448E-02 
381	 3.82727759595532E-02 
382	 3.84914863703478E-02 
383	 0.038286672764292 
384	 3.76762017558437E-02 
385	 3.66618867793451E-02 
386	 3.58269544953185E-02 
387	 3.67784615421279E-02 
388	 3.75762577575347E-02 
389	 3.72644648976833E-02 
390	 3.61503339223401E-02 
391	 3.50788248389626E-02 
392	 3.49599431589548E-02 
393	 3.65696129353946E-02 
394	 3.86067848681101E-02 
395	 3.71486989465614E-02 
396	 3.56537857832871E-02 
397	 3.55642876759647E-02 
398	 3.57082691951692E-02 
399	 3.59106278519066E-02 
400	 3.60909247846303E-02 
401	 3.56858761802222E-02 
402	 3.49568138591324E-02 
403	 3.46964091523031E-02 
404	 0.034735274824457 
405	 3.49224418627265E-02 
406	 3.47713171110582E-02 
407	 3.45240093596725E-02 
408	 3.45338073038809E-02 
409	 3.35663772272504E-02 
410	 3.21629111614008E-02 
411	 3.25986465389978E-02 
412	 3.32102616278206E-02 
413	 3.32602071745232E-02 
414	 3.36613096467895E-02 
415	 3.37896738571043E-02 
416	 3.27688299457204E-02 
417	 3.24295807314826E-02 
418	 0.03271150667881 
419	 3.19313390305648E-02 
420	 3.13140245265648E-02 
421	 3.14933957803077E-02 
422	 3.19738160977071E-02 
423	 3.22546872319087E-02 
424	 3.17135530006043E-02 
425	 3.15795455026509E-02 
426	 3.19143221990737E-02 
427	 3.16994231345791E-02 
428	 3.14613896844572E-02 
429	 0.031520009128411 
430	 3.15117502807504E-02 
431	 0.031451157116281 
432	 3.14551056841457E-02 
433	 3.12576750790863E-02 
434	 0.030861570657074 
435	 0.03047393401117 
436	 3.03335527327751E-02 
437	 3.05513327023583E-02 
438	 3.06884320376301E-02 
439	 3.06988138917947E-02 
440	 3.06481382099253E-02 
441	 3.04217811476778E-02 
442	 3.00815967260387E-02 
443	 2.99441463140767E-02 
444	 3.00820927940694E-02 
445	 3.04818814478363E-02 
446	 3.03903206520228E-02 
447	 3.01611225071957E-02 
448	 3.09533058158074E-02 
449	 3.12627399967779E-02 
450	 3.07552721073988E-02 
451	 3.04243631474082E-02 
452	 3.06558110404369E-02 
453	 3.16701725720116E-02 
454	 3.14921334309399E-02 
455	 3.05350362274294E-02 
456	 3.10748439969624E-02 
457	 3.17054932958487E-02 
458	 3.18545974849915E-02 
459	 0.031684132079889 
460	 3.15612563349928E-02 
461	 3.18874229628105E-02 
462	 3.16040049873477E-02 
463	 0.031008454161776 
464	 0.031818289069418 
465	 3.23954301322691E-02 
466	 3.20017461176906E-02 
467	 3.19554816727663E-02 
468	 3.20687822699682E-02 
469	 3.18516992083062E-02 
470	 3.17450225778933E-02 
471	 3.18971498936382E-02 
472	 3.24518022157447E-02 
473	 3.27484223775748E-02 
474	 3.24466470323888E-02 
475	 3.25194878453769E-02 
476	 3.28261627436979E-02 
477	 3.28955090711723E-02 
478	 3.27499290837007E-02 
479	 3.24909740119515E-02 
480	 3.25433976977234E-02 
481	 0.032635199437288 
482	 0.032533234345646 
483	 3.22476750175642E-02 
484	 0.032052465125447 
485	 3.26343898033897E-02 
486	 0.032960032381407 
487	 3.27686639500359E-02 
488	 3.29467203477594E-02 
489	 3.32223813887329E-02 
490	 3.32573364519975E-02 
491	 3.30201492536152E-02 
492	 3.26620393705574E-02 
493	 3.25372043721747E-02 
494	 3.26690124790822E-02 
495	 3.30472678801728E-02 
496	 3.35194527648813E-02 
497	 3.38086421409969E-02 
498	 3.35952043405759E-02 
499	 3.38387081407625E-02 
500	 3.44771156998678E-02 
501	 0.034391737501348 
502	 3.44057252011342E-02 
503	 3.49723264404675E-02 
504	 3.55453052053045E-02 
505	 3.58296602341868E-02 
506	 3.54493919303159E-02 
507	 3.53568293006601E-02 
508	 0.035776521870006 
509	 3.62745258219422E-02 
510	 3.70079240986989E-02 
511	 3.80065429173339E-02 
512	 3.80591036362407E-02 
513	 3.76905298033122E-02 
514	 3.86495221626903E-02 
515	 3.93270302931275E-02 
516	 3.92420923402571E-02 
517	 3.90713387997615E-02 
518	 3.92541250842792E-02 
519	 4.01476924430027E-02 
520	 4.04549197310378E-02 
521	 4.02971327243069E-02 
522	 4.07196776722731E-02 
523	 4.14747122576454E-02 
524	 4.23485150962932E-02 
525	 4.25899411180032E-02 
526	 4.26956840958693E-02 
527	 4.34812591378264E-02 
528	 4.39824338671761E-02 
529	 4.41272870106984E-02 
530	 4.45936694534204E-02 
531	 4.50060623849158E-02 
532	 4.51704807607489E-02 
533	 4.57029355638123E-02 
534	 4.63914218765203E-02 
535	 4.66364104763951E-02 
536	 4.69996284999648E-02 
537	 4.75873388833113E-02 
538	 4.80524195675726E-02 
539	 4.83786925934582E-02 
540	 4.85782393875581E-02 
541	 4.88728697833297E-02 
542	 4.93186998181486E-02 
543	 4.99308643588904E-02 
544	 5.05511374181939E-02 
545	 5.10570078494366E-02 
546	 5.12713669911637E-02 
547	 5.12754937135223E-02 
548	 5.11930658270702E-02 
549	 5.15215892184514E-02 
550	 5.22511997348262E-02 
551	 5.29107065141088E-02 
552	 5.33290961557517E-02 
553	 5.34550097278075E-02 
554	 5.39133324360422E-02 
555	 0.054547522605073 
556	 5.49265611484354E-02 
557	 5.49895454226133E-02 
558	 5.48642164949678E-02 
559	 5.53024188744465E-02 
560	 5.56660030911956E-02 
561	 5.54021637185812E-02 
562	 5.56741842503425E-02 
563	 5.63122678912983E-02 
564	 5.62677495098008E-02 
565	 5.64216652199622E-02 
566	 5.69687514659741E-02 
567	 5.68492644097043E-02 
568	 5.64881329369446E-02 
569	 0.056543549004527 
570	 5.67219252782198E-02 
571	 5.69353093546292E-02 
572	 5.71391467210098E-02 
573	 0.057215709372985 
574	 5.71021089532768E-02 
575	 5.69382060258874E-02 
576	 5.67700569426881E-02 
577	 5.66165648806476E-02 
578	 5.67262158867769E-02 
579	 5.70169721854725E-02 
580	 5.66957894815945E-02 
581	 5.66464755382432E-02 
582	 5.75724243561652E-02 
583	 5.79144045860545E-02 
584	 5.76179968961883E-02 
585	 5.72435447173466E-02 
586	 5.72020408655209E-02 
587	 5.75938521330889E-02 
588	 5.76018623566195E-02 
589	 5.74428571069032E-02 
590	 5.75061240233993E-02 
591	 5.79726657571799E-02 
592	 0.058541191583 
593	 5.81253320528188E-02 
594	 5.77480742288064E-02 
595	 5.79536739580151E-02 
596	 5.79216211788428E-02 
597	 5.76944534852129E-02 
598	 0.05750554696389 
599	 5.76136907449401E-02 
600	 0.058019160579231 
601	 5.83432957053554E-02 
602	 0.05840920237824 
603	 5.81201226652951E-02 
604	 5.81383367668052E-02 
605	 5.83584560090411E-02 
606	 0.05819327436417 
607	 5.79412361580073E-02 
608	 0.057743364194679 
609	 5.77769202434189E-02 
610	 5.76795494784586E-02 
611	 5.69906612363504E-02 
612	 5.65805594575546E-02 
613	 5.65950925517409E-02 
614	 5.67574119213373E-02 
615	 5.67715290131645E-02 
616	 5.64506722278751E-02 
617	 5.60251319329329E-02 
618	 5.55689019959805E-02 
619	 5.51036827197099E-02 
620	 0.055016423654313 
621	 5.52878069419952E-02 
622	 5.53292765092125E-02 
623	 5.51347881524738E-02 
624	 5.47699230941998E-02 
625	 0.055041286477752 
626	 5.55297661004847E-02 
627	 0.054646205215455 
628	 5.42258205497847E-02 
629	 5.48664113830037E-02 
630	 0.055409373371853 
631	 5.53505164682651E-02 
632	 5.42385963492374E-02 
633	 5.42832533086168E-02 
634	 0.055452801982379 
635	 5.58287815667476E-02 
636	 5.57382479642143E-02 
637	 5.54249768530466E-02 
638	 5.53920133393539E-02 
639	 5.55864161690155E-02 
640	 5.57918404593112E-02 
641	 0.055648449868809 
642	 5.52874245299346E-02 
643	 5.58682346994112E-02 
644	 5.63923321150275E-02 
645	 5.59782833466659E-02 
646	 5.53739306499443E-02 
647	 0.054956498951782 
648	 5.53590686690482E-02 
649	 5.55483259271799E-02 
650	 5.51945003569371E-02 
651	 0.05517600732161 
652	 5.50269620475688E-02 
653	 5.41239012447056E-02 
654	 5.37039431285902E-02 
655	 5.36800775859968E-02 
656	 5.27011951902283E-02 
657	 5.15492369514177E-02 
658	 5.07542819263821E-02 
659	 0.050122710456386 
660	 4.94998881802502E-02 
661	 4.86919574331262E-02 
662	 4.78943529228421E-02 
663	 4.71038427998926E-02 
664	 4.60986867425555E-02 
665	 4.49676566724763E-02 
666	 4.38338590139475E-02 
667	 4.32071464625347E-02 
668	 4.28738442412212E-02 
669	 4.20458275358651E-02 
670	 4.14758076232534E-02 
671	 4.12955011529161E-02 
672	 4.05986972001545E-02 
673	 3.99898338392592E-02 
674	 4.02131281901559E-02 
675	 4.05646562289711E-02 
676	 4.08213965048122E-02 
677	 4.08249744621755E-02 
678	 4.09845600837984E-02 
679	 4.15249392161606E-02 
680	 4.23327265014215E-02 
681	 4.30312437293717E-02 
682	 4.30318735360968E-02 
683	 4.38080954328485E-02 
684	 4.54163759622775E-02 
685	 4.63330577704403E-02 
686	 4.72001312818753E-02 
687	 4.86211619652984E-02 
688	 5.07221755415077E-02 
689	 5.30318339221131E-02 
690	 5.48604338045093E-02 
691	 5.71666326034801E-02 
692	 6.00166829177426E-02 
693	 6.18283749653587E-02 
694	 6.39368766077194E-02 
695	 6.75632609873027E-02 
696	 6.96124415292837E-02 
697	 7.05911268452419E-02 
698	 7.36173463559863E-02 
699	 7.66042615470185E-02 
700	 7.85647683369011E-02 
701	 8.01842344118463E-02 
702	 8.18366820240078E-02 
703	 8.39455443241743E-02 
704	 8.58418680169317E-02 
705	 0.087303205795859 
706	 8.80038059307448E-02 
707	 0.089083635083555 
708	 9.11344247220312E-02 
709	 9.23717493736448E-02 
710	 9.32898308282954E-02 
711	 9.53344280771202E-02 
712	 9.67292060372938E-02 
713	 9.70925065440735E-02 
714	 9.74355961346593E-02 
715	 9.76076931206528E-02 
716	 9.74417691272049E-02 
717	 9.69999129637424E-02 
718	 9.68425087464894E-02 
719	 9.85967057162491E-02 
720	 9.99178953473752E-02 
721	 0.100096811955155 
722	 0.100736793680059 
723	 0.101712772437751 
724	 0.102750049542106 
725	 0.103016818087891 
726	 0.102787351016857 
727	 0.103704295955535 
728	 0.104434400843713 
729	 0.104480071376591 
730	 0.105272921875576 
731	 0.106388543817848 
732	 0.107041144691209 
733	 0.10749801646987 
734	 0.107959493071579 
735	 0.108871254445891 
736	 0.109723619872593 
737	 0.110167256994427 
738	 0.110535418777977 
739	 0.111098932882203 
740	 0.112285075640662 
741	 0.113145610847811 
742	 0.113417130861602 
743	 0.113367298608665 
744	 0.113547518484041 
745	 0.114354216266104 
746	 0.114787544292485 
747	 0.114934660296471 
748	 0.115466874246691 
749	 0.115910950654809 
750	 0.116124623914374 
751	 0.116320264991068 
752	 0.116349434497652 
753	 0.116070255636734 
754	 0.115977635637013 
755	 0.116215709380057 
756	 0.116916403846077 
757	 0.117445835381817 
758	 0.117405567983037 
759	 0.11607223154384 
760	 0.113090127435441 
761	 0.111321826940689 
762	 0.110563061168388 
763	 0.110912700338053 
764	 0.112980906160929 
765	 0.115572722505879 
766	 0.117842254140575 
767	 0.119080015743264 
768	 0.119739033728652 
769	 0.120250338720013 
770	 0.120666856936744 
771	 0.121062848133092 
772	 0.121624860665868 
773	 0.121889838249378 
774	 0.121666159711834 
775	 0.12217997040669 
776	 0.122925923735622 
777	 0.122662257421929 
778	 0.122688676669182 
779	 0.123336598297461 
780	 0.124334881581324 
781	 0.12478452279852 
782	 0.124115978609611 
783	 0.124090871898001 
784	 0.124730200592767 
785	 0.125522991581842 
786	 0.125370889063261 
787	 0.124294662790896 
788	 0.124504351363636 
789	 0.125082584147885 
790	 0.125054321768326 
791	 0.124611634849287 
792	 0.12415430884875 
793	 0.124567456563265 
794	 0.125093520265046 
795	 0.125404392656098 
796	 0.12532878086589 
797	 0.12531858053519 
798	 0.125800489932219 
799	 0.125964141524555 
800	 0.125925330441792 
801	 0.12646914647538 
802	 0.126806191562994 
803	 0.12673137502933 
804	 0.126978808732904 
805	 0.12718413316108 
806	 0.126952686867748 
807	 0.127470495577009 
808	 0.128458785881837 
809	 0.128394955529636 
810	 0.128400709369015 
811	 0.128750647174827 
812	 0.128003506611434 
813	 0.126937430083926 
814	 0.126736119659719 
815	 0.12636153873822 
816	 0.125770245070536 
817	 0.125363937213089 
818	 0.126340228642895 
819	 0.128632426439507 
820	 0.129223379654785 
821	 0.128998489605596 
822	 0.129258567308976 
823	 0.130253932255666 
824	 0.131498627110307 
825	 0.131576842281879 
826	 0.131121973074516 
827	 0.130645697516564 
828	 0.131453133951974 
829	 0.132859407718774 
830	 0.133808420748229 
831	 0.13346104538086 
832	 0.132394543317432 
833	 0.132726209641893 
834	 0.13339172014319 
835	 0.133913978057694 
836	 0.134330592643661 
837	 0.134455496234529 
838	 0.134144681581622 
839	 0.135005632453833 
840	 0.136586248728545 
841	 0.136607267965772 
842	 0.136603933672295 
843	 0.137041274874537 
844	 0.136641717255552 
845	 0.136290460980366 
846	 0.137016471528545 
847	 0.137243285970805 
848	 0.136905606582399 
849	 0.136769250275282 
850	 0.136870549166981 
851	 0.137192244829743 
852	 0.137342723978279 
853	 0.137359717054054 
854	 0.137316737944596 
855	 0.137075834825775 
856	 0.136719595204437 
857	 0.136505775694951 
858	 0.136177171334758 
859	 0.135724754105664 
860	 0.135482473682408 
861	 0.135515577696634 
862	 0.135862515866052 
863	 0.1364825430725 
864	 0.137075031235615 
865	 0.136949549725408 
866	 0.137183499392947 
867	 0.137906701687991 
868	 0.137846293999943 
869	 0.137793018876898 
870	 0.138433753604387 
871	 0.139666734941083 
872	 0.140624087396614 
873	 0.139644203006388 
874	 0.139390722815754 
875	 0.140245620889745 
876	 0.140075085070627 
877	 0.139893505903817 
878	 0.140507746253268 
879	 0.142171905028401 
880	 0.143843757428654 
881	 0.14384695869143 
882	 0.14419191066169 
883	 0.145200489395408 
884	 0.145917867971287 
885	 0.146729396324987 
886	 0.147774274973422 
887	 0.148652827543276 
888	 0.149140530638314 
889	 0.149023959806678 
890	 0.149260772934228 
891	 0.149763328239379 
892	 0.149442816163285 
893	 0.148962789695713 
894	 0.148775926119702 
895	 0.149768394996186 
896	 0.149924614134616 
897	 0.147031696552182 
898	 0.146163726491058 
899	 0.147425568821041 
900	 0.148134061796046 
901	 0.148089773839685 
902	 0.14776342177321 
903	 0.15019340176924 
904	 0.151919349079916 
905	 0.150643149813735 
906	 0.151577845065834 
907	 0.153494522972292 
908	 0.152922158952001 
909	 0.151144662665202 
910	 0.14942732281452 
911	 0.151052638275891 
912	 0.152710233791607 
913	 0.152507932313558 
914	 0.152121076878937 
915	 0.151899898764434 
916	 0.152102887484925 
917	 0.154755206606853 
918	 0.157824330669216 
919	 0.154812318835686 
920	 0.152799454999034 
921	 0.154235933570491 
922	 0.157982773530857 
923	 0.158668356395002 
924	 0.152295561460449 
925	 0.150491530457952 
926	 0.152085794356013 
927	 0.149840211906504 
928	 0.145855010484071 
929	 0.141522105622727 
930	 0.140782553133535 
931	 0.143019137120296 
932	 0.146842288243293 
933	 0.146717654878232 
934	 0.143005006543723 
935	 0.138156797483604 
936	 0.129297208305838 
937	 0.122231759713869 
938	 0.132619656262117 
939	 0.142625486255042 
940	 0.145279918525387 
941	 0.13854144220371 
942	 0.13406339283967 
943	 0.139498012484523 
944	 0.143616454147967 
945	 0.142479890631465 
946	 0.13262866083281 
947	 0.130458822750794 
948	 0.137128547638836 
949	 0.141595775652658 
950	 0.143245298521772 
951	 0.14244302482237 
952	 0.145391359317279 
953	 0.146399986950223 
954	 0.140637927399646 
955	 0.136751295018466 
956	 0.134807764944271 
957	 0.131598682220076 
958	 0.136685741031013 
959	 0.146782705374724 
960	 0.143872916399901 
961	 0.138600281220803 
962	 0.137186563566737 
963	 0.141263251917111 
964	 0.147753359698343 
965	 0.153035436419097 
966	 0.149453593246297 
967	 0.142114558267497 
968	 0.143426486530528 
969	 0.145954575478468 
970	 0.147350631209369 
971	 0.145908036633567 
972	 0.148542433870293 
973	 0.156172948863342 
974	 0.148560205091067 
975	 0.141969216351657 
976	 0.155019922378192 
977	 0.154991854836105 
978	 0.146610219488073 
979	 0.153084121310577 
980	 0.157810401054359 
981	 0.156911404937097 
982	 0.155261756643166 
983	 0.151855763855285 
984	 0.147942827890874 
985	 0.154227717656258 
986	 0.15947774829985 
987	 0.152186226761494 
988	 0.154884031422649 
989	 0.162382365483016 
990	 0.156382112480808 
991	 0.152443479328313 
992	 0.153681716803575 
993	 0.154524714016938 
994	 0.154039738587989 
995	 0.152518961087995 
996	 0.156059734750195 
997	 0.156495618525083 
998	 0.146880665256723 
999	 0.145536338498929 
1000	 0.151508384884431 
1001	 0.157388130357745 
1002	 0.156850700894577 
1003	 0.151959501054909 
1004	 0.157177820725358 
1005	 0.156573216713107 
1006	 0.147461769881993 
1007	 0.15045811262698 
1008	 0.157776891361268 
1009	 0.161746247799196 
1010	 0.160329839240149 
1011	 0.158034310246455 
1012	 0.161351759406294 
1013	 0.160730108288972 
1014	 0.156815140105702 
1015	 0.155892731607577 
1016	 0.15661344327006 
1017	 0.15766806430358 
1018	 0.154057446944642 
1019	 0.156296566441676 
1020	 0.166688216722939 
1021	 0.163137416054582 
1022	 0.1563677376626 
1023	 0.158762239764944 
1024	 0.165762757408219 
1025	 0.173705903399259 
1026	 0.177335519414125 
1027	 0.162703990825419 
1028	 0.141550212646395 
1029	 0.160405800934273 
1030	 0.17805448117125 
1031	 0.178907598649283 
1032	 0.158732764326464 
1033	 0.147505475027336 
1034	 0.161615770582811 
1035	 0.163485885109934 
1036	 0.166417763489246 
1037	 0.184710823885448 
1038	 0.17568254547279 
1039	 0.156084545768894 
1040	 0.16515304114958 
1041	 0.161099552141214 
1042	 0.147600821667017 
1043	 0.167258396887248 
1044	 0.171421459890928 
1045	 0.155676907687185 
1046	 0.175054078594601 
1047	 0.193997764913823 
1048	 0.189384773788608 
1049	 0.172045791187562 
1050	 0.157742209251342 
1051	 0.161808303179917 
1052	 0.160891921249697 
1053	 0.154663372279818 
1054	 0.149096752157838 
1055	 0.161903246538203 
1056	 0.184469435697506 
1057	 0.185513892786691 
1058	 0.170526363072269 
1059	 0.151646404435541 
1060	 0.1715740998383 
1061	 0.168626486321683 
1062	 0.129507851051337 
1063	 0.146600183913467 
1064	 0.168760310860268 
1065	 0.156920436979956 
1066	 0.12545796806086 
1067	 0.120458074688335 
1068	 0.180616319278605 
1069	 0.183928683639558 
1070	 0.156214616114995 
1071	 0.17762185765262 
1072	 0.156819669378631 
1073	 0.106405274986375 
1074	 0.112674298953128 
1075	 8.85222676877695E-02 
