Wavelength	SHSI00208.asd
325	 0.106093339894348 
326	 9.73977728366849E-02 
327	 0.097440893726577 
328	 9.90108051319158E-02 
329	 0.102968521213396 
330	 0.107751162046174 
331	 0.105486065370087 
332	 0.102047908206219 
333	 0.103214940194494 
334	 0.107153085684742 
335	 0.10975747603153 
336	 0.101830935225337 
337	 0.09925777522188 
338	 0.104456353441667 
339	 0.104239870591708 
340	 0.102872833737806 
341	 0.104173794743499 
342	 0.105308156816771 
343	 0.106569482782101 
344	 0.109459903549592 
345	 0.110748709466429 
346	 0.109840125794409 
347	 0.107394653580273 
348	 0.107752104900382 
349	 0.112518800040845 
350	 0.110327704215884 
351	 0.106594310352767 
352	 0.112195940810326 
353	 0.113377499980759 
354	 0.109636561249789 
355	 0.112606638903235 
356	 0.113981925301005 
357	 0.10969339227664 
358	 0.110689299397349 
359	 0.114161537499653 
360	 0.114132877530059 
361	 0.111089644256525 
362	 0.107355711547495 
363	 0.109840273357018 
364	 0.1122728344906 
365	 0.111637985533679 
366	 0.112087726406734 
367	 0.113457941759142 
368	 0.114954140402966 
369	 0.115855616297439 
370	 0.116462803633046 
371	 0.118331373159346 
372	 0.120967225222761 
373	 0.12339717259664 
374	 0.121877060106687 
375	 0.118038705723054 
376	 0.114698163433211 
377	 0.112399908715714 
378	 0.111880646231594 
379	 0.114730324105811 
380	 0.117135664201729 
381	 0.117187472218589 
382	 0.11778019078131 
383	 0.117382811873599 
384	 0.113762239418226 
385	 0.113731431415898 
386	 0.116185116519533 
387	 0.112805102920066 
388	 0.109891574012791 
389	 0.11007206323477 
390	 0.110878240676107 
391	 0.112426613790651 
392	 0.115021515372545 
393	 0.114457932813187 
394	 0.111267111354867 
395	 0.1096549232308 
396	 0.109203461447579 
397	 0.109066839622962 
398	 0.105605822180934 
399	 0.102629699768192 
400	 0.103914037151582 
401	 0.105020345797586 
402	 0.105997705226846 
403	 0.109650495998082 
404	 0.111616542813159 
405	 0.110508349975565 
406	 0.110140471797604 
407	 0.110160030979868 
408	 0.109688356742589 
409	 0.109153409948067 
410	 0.108645638790321 
411	 0.108046403666691 
412	 0.107964863033141 
413	 0.108503517860308 
414	 0.108459074324977 
415	 0.108002945270009 
416	 0.10751727323517 
417	 0.107380744417954 
418	 0.107670711348007 
419	 0.108307685257768 
420	 0.108852982161264 
421	 0.108982535785232 
422	 0.108282052837465 
423	 0.10764619508756 
424	 0.108404639656806 
425	 0.108635144413804 
426	 0.108255486500822 
427	 0.108870334816597 
428	 0.109590771455433 
429	 0.109743947976675 
430	 0.109111977130721 
431	 0.108077470309664 
432	 0.107288428822497 
433	 0.106859817652102 
434	 0.106725454679977 
435	 0.106326891540048 
436	 0.10651420090449 
437	 0.107738911354623 
438	 0.108717561487643 
439	 0.109170379655985 
440	 0.108961675974783 
441	 0.108833913963346 
442	 0.108991236316412 
443	 0.109006180372051 
444	 0.109493018287431 
445	 0.110790726655494 
446	 0.110742223953215 
447	 0.109996697687899 
448	 0.110778642092869 
449	 0.111694994693985 
450	 0.112354519992153 
451	 0.113140456607853 
452	 0.114000513315525 
453	 0.114854727231656 
454	 0.11551972913718 
455	 0.115935677334583 
456	 0.116070824701052 
457	 0.116118852051495 
458	 0.11620049724009 
459	 0.116325746662409 
460	 0.116700400498426 
461	 0.11752804936196 
462	 0.117416626647247 
463	 0.116834381074501 
464	 0.118327292821018 
465	 0.119436814861947 
466	 0.119067178033332 
467	 0.119249797789776 
468	 0.119783730474474 
469	 0.120049063043052 
470	 0.120058309384009 
471	 0.119976930020049 
472	 0.120347227287171 
473	 0.120965470129532 
474	 0.121666878573083 
475	 0.122322234234156 
476	 0.122757449305061 
477	 0.122720752769402 
478	 0.122676052662006 
479	 0.122875050311979 
480	 0.123594910262575 
481	 0.124518804352051 
482	 0.125334466282581 
483	 0.125576906903776 
484	 0.125493608673964 
485	 0.125976659834755 
486	 0.125769786697131 
487	 0.124773904285276 
488	 0.124926164259373 
489	 0.125168935334858 
490	 0.124422212392807 
491	 0.12524372460441 
492	 0.126931047904379 
493	 0.126213885619275 
494	 0.125826324733942 
495	 0.126769784483449 
496	 0.127343103121909 
497	 0.127855150184759 
498	 0.12890164747867 
499	 0.1298040664756 
500	 0.130409962468798 
501	 0.130823875316025 
502	 0.131267354602597 
503	 0.131881465668811 
504	 0.132624223956441 
505	 0.133263795179177 
506	 0.133369185036251 
507	 0.134356098476368 
508	 0.13624933930511 
509	 0.137329692284168 
510	 0.138496615158825 
511	 0.14037807825926 
512	 0.141227754133717 
513	 0.141550568395333 
514	 0.143183763725905 
515	 0.144855160228 
516	 0.146087165830485 
517	 0.1469868841231 
518	 0.147544818951778 
519	 0.14779267518819 
520	 0.148395492195234 
521	 0.149485453870259 
522	 0.151008603485324 
523	 0.15250508582653 
524	 0.153784982064 
525	 0.155205481872061 
526	 0.156684197581568 
527	 0.158059519125329 
528	 0.158708113661399 
529	 0.158935466664063 
530	 0.160249066772176 
531	 0.162059068506267 
532	 0.163856143014229 
533	 0.164883884253931 
534	 0.165386687931819 
535	 0.16606004031851 
536	 0.16690681513697 
537	 0.1679970337801 
538	 0.169390746808637 
539	 0.170944372436696 
540	 0.172462790615922 
541	 0.173135067799616 
542	 0.173310012499045 
543	 0.174295615906579 
544	 0.175515247835123 
545	 0.176718791845546 
546	 0.177819324623307 
547	 0.178847768496504 
548	 0.179860891598364 
549	 0.180798989493566 
550	 0.181697972943002 
551	 0.18275846860614 
552	 0.183586901171451 
553	 0.184061345374658 
554	 0.18543368084332 
555	 0.187088899507489 
556	 0.187548151378319 
557	 0.188306235056987 
558	 0.189551087173246 
559	 0.189898457638242 
560	 0.190018662502588 
561	 0.190585449257746 
562	 0.191430932061201 
563	 0.192414598432791 
564	 0.193302853101057 
565	 0.193880602052092 
566	 0.19410812048393 
567	 0.194424860870054 
568	 0.194916233603461 
569	 0.195626775765828 
570	 0.19584247876213 
571	 0.1955893686725 
572	 0.195561495860391 
573	 0.195845928157631 
574	 0.196451044596934 
575	 0.196829850794122 
576	 0.197120686784612 
577	 0.197755238089155 
578	 0.198059511589986 
579	 0.197993032106694 
580	 0.198350432260051 
581	 0.198829521450948 
582	 0.199159327907387 
583	 0.199765870504847 
584	 0.200506844535909 
585	 0.200836286253007 
586	 0.201189529574081 
587	 0.201690557535224 
588	 0.202045976962214 
589	 0.202081806721271 
590	 0.201625227660234 
591	 0.201561396808283 
592	 0.201995464523834 
593	 0.202528493216439 
594	 0.202775769669336 
595	 0.2026032106509 
596	 0.202972682625335 
597	 0.203749885627312 
598	 0.204511631040657 
599	 0.204783819592323 
600	 0.204575860239389 
601	 0.204789535830286 
602	 0.204879666199626 
603	 0.204415909835442 
604	 0.204523648172626 
605	 0.205164913066189 
606	 0.205868073058585 
607	 0.20584834571534 
608	 0.204915433855809 
609	 0.204332393759576 
610	 0.20404245103933 
611	 0.203809620995155 
612	 0.203281738220647 
613	 0.20252244591344 
614	 0.202042690440014 
615	 0.201818604858108 
616	 0.20175860348872 
617	 0.201186323321519 
618	 0.200459090949813 
619	 0.200332114101429 
620	 0.200392892868669 
621	 0.20048664355571 
622	 0.200531073587855 
623	 0.200426181804821 
624	 0.200125303445694 
625	 0.200159770417666 
626	 0.200527221780512 
627	 0.200972648402222 
628	 0.201301699745995 
629	 0.201434771734197 
630	 0.201634463530465 
631	 0.201685028542401 
632	 0.201305582016914 
633	 0.201203197616995 
634	 0.201438730438828 
635	 0.201539317420215 
636	 0.201846263622916 
637	 0.202497238431805 
638	 0.202932824230739 
639	 0.203241129531495 
640	 0.20372682482124 
641	 0.204107711245232 
642	 0.204317436089626 
643	 0.204434291385888 
644	 0.204745847275196 
645	 0.2054305641033 
646	 0.205304887466358 
647	 0.204709324937365 
648	 0.205197387218677 
649	 0.205434439288903 
650	 0.204949504707659 
651	 0.20425821519048 
652	 0.2036829063935 
653	 0.20353183260079 
654	 0.202770030023952 
655	 0.20114823676421 
656	 0.199108839032007 
657	 0.196674683769736 
658	 0.194111707060473 
659	 0.192085468050704 
660	 0.190424474187713 
661	 0.188846727438672 
662	 0.186654408937579 
663	 0.183794034807267 
664	 0.181059076465625 
665	 0.178533272663593 
666	 0.176297707856388 
667	 0.174851174415876 
668	 0.173688478741469 
669	 0.171314244986312 
670	 0.169327335415723 
671	 0.1683410831096 
672	 0.168202054134191 
673	 0.167955033272705 
674	 0.166576316761859 
675	 0.166137066610958 
676	 0.166819561737595 
677	 0.1676823038102 
678	 0.168444702792357 
679	 0.169000824407468 
680	 0.169923313339378 
681	 0.17151775772141 
682	 0.174154562018397 
683	 0.176668499941063 
684	 0.179122512221005 
685	 0.183494582140534 
686	 0.188314610178703 
687	 0.1922714770113 
688	 0.197530683486387 
689	 0.203517325013748 
690	 0.209294718848592 
691	 0.215048230755465 
692	 0.221003628355159 
693	 0.227509528308033 
694	 0.234380888961102 
695	 0.241053094129102 
696	 0.246754120558166 
697	 0.251815074344205 
698	 0.257710338165103 
699	 0.263748625961696 
700	 0.269451220944415 
701	 0.274595903677495 
702	 0.279152189348409 
703	 0.283190173505264 
704	 0.287333084084934 
705	 0.291502206851292 
706	 0.294595455946158 
707	 0.297497785890495 
708	 0.30076102826211 
709	 0.303978860482295 
710	 0.307002436612291 
711	 0.309645379118815 
712	 0.312127333177926 
713	 0.314545509488253 
714	 0.316998834381182 
715	 0.319387071455503 
716	 0.321751229528728 
717	 0.324251815102376 
718	 0.326845185343674 
719	 0.32893788129418 
720	 0.33068326242624 
721	 0.332090109101328 
722	 0.333071723474439 
723	 0.334425726645448 
724	 0.336941329984242 
725	 0.338616347293104 
726	 0.339455334757219 
727	 0.341605639669486 
728	 0.343059102216957 
729	 0.343163995556738 
730	 0.344832086705114 
731	 0.346949571201757 
732	 0.347576602568911 
733	 0.348089346660166 
734	 0.348927066420074 
735	 0.350420635973945 
736	 0.351772591787534 
737	 0.35245461544738 
738	 0.353288514551249 
739	 0.354292790908121 
740	 0.355278976419121 
741	 0.356110655291628 
742	 0.356826710214982 
743	 0.357848343107533 
744	 0.358781269934983 
745	 0.359316056289844 
746	 0.359942424135277 
747	 0.360743371450303 
748	 0.361726538142836 
749	 0.362619963546163 
750	 0.363343582348313 
751	 0.364126695928789 
752	 0.365006351427181 
753	 0.365973310507763 
754	 0.366235678942663 
755	 0.366197036967048 
756	 0.367745415778392 
757	 0.367684008245398 
758	 0.365067519230868 
759	 0.365346493194131 
760	 0.370037912459409 
761	 0.37673264997537 
762	 0.379134426591051 
763	 0.378052934993594 
764	 0.380049174003429 
765	 0.3812183836105 
766	 0.380512769380207 
767	 0.379763793759066 
768	 0.379294678943134 
769	 0.379310401374868 
770	 0.379631744050842 
771	 0.380157511503254 
772	 0.380605481413144 
773	 0.38147843898692 
774	 0.382987801012948 
775	 0.383937001250593 
776	 0.384385746061809 
777	 0.384769406972265 
778	 0.385465411873958 
779	 0.386441664858253 
780	 0.386861505156118 
781	 0.387500648920192 
782	 0.388919218431762 
783	 0.39015830639244 
784	 0.390981323586383 
785	 0.39123859755719 
786	 0.391476960886826 
787	 0.391963523634353 
788	 0.392862635842342 
789	 0.393617504594774 
790	 0.393765845534906 
791	 0.394449053607725 
792	 0.395616350915308 
793	 0.396662310909038 
794	 0.397389759650589 
795	 0.397756679829683 
796	 0.398157939644926 
797	 0.398463630507663 
798	 0.398577620267714 
799	 0.399460420861101 
800	 0.400938183641426 
801	 0.402066460441744 
802	 0.40292298393907 
803	 0.403465766574598 
804	 0.403554573226786 
805	 0.403797802753414 
806	 0.404807243458997 
807	 0.405505838088468 
808	 0.405907253323747 
809	 0.406697989793762 
810	 0.407667145685846 
811	 0.408553446943401 
812	 0.408269286490288 
813	 0.407881481532755 
814	 0.408929492003004 
815	 0.411495742208104 
816	 0.414756465412336 
817	 0.416323165257505 
818	 0.416762124962523 
819	 0.416546711698012 
820	 0.416434971673732 
821	 0.417218002327815 
822	 0.419686721635566 
823	 0.422203224487371 
824	 0.42354852089925 
825	 0.42181180370218 
826	 0.420826569162583 
827	 0.421979294480337 
828	 0.422583159039484 
829	 0.422997751525526 
830	 0.423949269023543 
831	 0.425841196536775 
832	 0.427762709027825 
833	 0.426899821611074 
834	 0.426439775209534 
835	 0.427474621184312 
836	 0.427512920549476 
837	 0.427458993806016 
838	 0.428497869447816 
839	 0.429018102714059 
840	 0.428905343293801 
841	 0.428847450772221 
842	 0.428745704435106 
843	 0.428710846044235 
844	 0.42948785602409 
845	 0.429998467950287 
846	 0.429078317869407 
847	 0.429197277600473 
848	 0.43015230225126 
849	 0.429851640755851 
850	 0.429148331413491 
851	 0.428718958946607 
852	 0.430211158726731 
853	 0.4324150505281 
854	 0.433846328419438 
855	 0.434823847651565 
856	 0.43486727871255 
857	 0.432426201864194 
858	 0.431824372884499 
859	 0.433838891807032 
860	 0.433933982036488 
861	 0.433180594470193 
862	 0.432842614935126 
863	 0.432471197217697 
864	 0.432628052020707 
865	 0.434652616151698 
866	 0.43717184345515 
867	 0.439296205288921 
868	 0.439837395739037 
869	 0.440175522545971 
870	 0.44135732714214 
871	 0.441481822569166 
872	 0.440958058363406 
873	 0.440967531045772 
874	 0.442517685966698 
875	 0.445375582293523 
876	 0.447135456150555 
877	 0.448433967436585 
878	 0.449768018985963 
879	 0.450960694498533 
880	 0.452173802297034 
881	 0.453656054785744 
882	 0.455773942800405 
883	 0.458211639779588 
884	 0.459596048534605 
885	 0.460934681391936 
886	 0.462516197002933 
887	 0.462202861733035 
888	 0.461443846853827 
889	 0.462372147507605 
890	 0.461988134482409 
891	 0.460727507406665 
892	 0.462109839969032 
893	 0.46362427746874 
894	 0.464344293763922 
895	 0.466126796932184 
896	 0.468719916115639 
897	 0.471599041469077 
898	 0.474773756590546 
899	 0.478198974927215 
900	 0.482418855073188 
901	 0.482617984484791 
902	 0.478577275228004 
903	 0.476514503155832 
904	 0.475858958341465 
905	 0.476093031741249 
906	 0.477590461259304 
907	 0.480291621143582 
908	 0.484175892888601 
909	 0.484607918060932 
910	 0.482051784467894 
911	 0.484058347044949 
912	 0.486216420612105 
913	 0.486442645389034 
914	 0.488859050668485 
915	 0.491975046606121 
916	 0.493468606427601 
917	 0.493098582752497 
918	 0.491189223792257 
919	 0.488452788459255 
920	 0.487338505577575 
921	 0.487903780432906 
922	 0.48525432150236 
923	 0.482498678531575 
924	 0.482309526650061 
925	 0.480763685932536 
926	 0.477965263150988 
927	 0.475350828725166 
928	 0.477551792310688 
929	 0.48500769202924 
930	 0.4897237159556 
931	 0.492634704754159 
932	 0.494743554548411 
933	 0.500250368305505 
934	 0.506976168883056 
935	 0.510786743009411 
936	 0.510174346032164 
937	 0.504174401051288 
938	 0.490704185362256 
939	 0.482465783029926 
940	 0.483659930109089 
941	 0.493464240043546 
942	 0.498077649804871 
943	 0.489706224244446 
944	 0.49422155026678 
945	 0.504104010438545 
946	 0.501863240952127 
947	 0.502456095391403 
948	 0.505222778839137 
949	 0.495741718270296 
950	 0.488236709348753 
951	 0.488031241042545 
952	 0.487456308668284 
953	 0.48749863671277 
954	 0.489358343297345 
955	 0.491866290603974 
956	 0.495442004090768 
957	 0.501241899628463 
958	 0.507329906845472 
959	 0.511095375200092 
960	 0.506616081144928 
961	 0.501954997788452 
962	 0.500494286593388 
963	 0.494448942348552 
964	 0.492520375102466 
965	 0.502181681473518 
966	 0.502086248069366 
967	 0.494650640665062 
968	 0.491677513460933 
969	 0.493724664917279 
970	 0.497553595618879 
971	 0.489340908288737 
972	 0.48322677155165 
973	 0.4871435030491 
974	 0.498202725552269 
975	 0.507033318293701 
976	 0.504316766269651 
977	 0.502554875423857 
978	 0.502261785990998 
979	 0.4988221710492 
980	 0.497591141427082 
981	 0.499131941763969 
982	 0.499270959312287 
983	 0.497882322778828 
984	 0.496085515346265 
985	 0.501609539155411 
986	 0.505351048283749 
987	 0.49791259661964 
988	 0.497872234342432 
989	 0.50303548703909 
990	 0.502102639923836 
991	 0.501802690415628 
992	 0.502374044538256 
993	 0.498062223681767 
994	 0.494927285179693 
995	 0.496170358096522 
996	 0.501551192282556 
997	 0.502572389494964 
998	 0.492900858924725 
999	 0.497947691543206 
1000	 0.508580841842653 
1001	 0.502081532026438 
1002	 0.499191695826975 
1003	 0.502426797918893 
1004	 0.500779400591865 
1005	 0.505468452229957 
1006	 0.516219268461213 
1007	 0.509247862530907 
1008	 0.501197775008032 
1009	 0.505014909465344 
1010	 0.50526966854579 
1011	 0.504537768585807 
1012	 0.50872495088159 
1013	 0.510821500196268 
1014	 0.511835773763473 
1015	 0.518259330282446 
1016	 0.518174125684121 
1017	 0.510810064280351 
1018	 0.507109811106382 
1019	 0.513662170616899 
1020	 0.529227635712678 
1021	 0.523559596710528 
1022	 0.510650332012331 
1023	 0.507419208939642 
1024	 0.510198841385018 
1025	 0.513766753343125 
1026	 0.510366358907985 
1027	 0.508319686901481 
1028	 0.508436713126515 
1029	 0.506901325402463 
1030	 0.50217137550406 
1031	 0.49765773707259 
1032	 0.511989604800938 
1033	 0.523457541378082 
1034	 0.520156433931344 
1035	 0.525339968066887 
1036	 0.532077040934914 
1037	 0.529968616956575 
1038	 0.514119172749084 
1039	 0.503691213166545 
1040	 0.530490654523026 
1041	 0.52873618232598 
1042	 0.499931875359866 
1043	 0.495552612556908 
1044	 0.497224285362401 
1045	 0.500942986540038 
1046	 0.513354583890304 
1047	 0.522347379701111 
1048	 0.519433004410864 
1049	 0.504830319655354 
1050	 0.490921665351772 
1051	 0.4908014488755 
1052	 0.49870939543629 
1053	 0.508863220899437 
1054	 0.5125363575344 
1055	 0.530551654720642 
1056	 0.547787788042631 
1057	 0.513799462552408 
1058	 0.493352281855961 
1059	 0.50058663892179 
1060	 0.50720663117022 
1061	 0.519933985446128 
1062	 0.530522472200934 
1063	 0.488759192354589 
1064	 0.450097251809413 
1065	 0.456815354110431 
1066	 0.501626902948166 
1067	 0.528366203355652 
1068	 0.487912859195838 
1069	 0.472302592693298 
1070	 0.483726022934023 
1071	 0.492529241104985 
1072	 0.488196318547046 
1073	 0.478025800320187 
1074	 0.486816153610429 
1075	 0.484510626195429 
