Wavelength	SHSI00350.asd
325	 7.34213290958697E-02 
326	 7.81114302925707E-02 
327	 7.35304493802363E-02 
328	 7.01530352338892E-02 
329	 7.29134673399739E-02 
330	 8.04703148464133E-02 
331	 7.60423201173931E-02 
332	 7.05049643995194E-02 
333	 0.074626303100403 
334	 7.20545763210193E-02 
335	 6.55487585363696E-02 
336	 6.75210105824005E-02 
337	 7.03046643344977E-02 
338	 7.14551176940567E-02 
339	 7.12845686254308E-02 
340	 7.19499997629871E-02 
341	 7.44690722125975E-02 
342	 6.99758875002513E-02 
343	 6.23341752079358E-02 
344	 6.02977162724029E-02 
345	 6.38098517079409E-02 
346	 7.06212813251067E-02 
347	 0.072873215536694 
348	 7.34514492482163E-02 
349	 7.43341911038307E-02 
350	 0.073878085244358 
351	 7.21591318490847E-02 
352	 6.93468369476365E-02 
353	 6.74868997950964E-02 
354	 0.067593250721519 
355	 7.11557275054033E-02 
356	 7.36199774776115E-02 
357	 7.25586951716309E-02 
358	 7.16627269586735E-02 
359	 7.10593002792184E-02 
360	 7.02190274552772E-02 
361	 6.87660258491327E-02 
362	 6.72758442315993E-02 
363	 6.77829867798169E-02 
364	 6.83631154882366E-02 
365	 0.068137469696792 
366	 6.88564345843745E-02 
367	 6.93723195963582E-02 
368	 0.067978090922482 
369	 6.74120619166992E-02 
370	 6.79745834238977E-02 
371	 6.84249770443898E-02 
372	 6.85581384378485E-02 
373	 6.83565693885052E-02 
374	 6.90321830105568E-02 
375	 0.069137603269489 
376	 0.066641035538637 
377	 6.47715257010703E-02 
378	 6.45004013991231E-02 
379	 6.61705410631714E-02 
380	 6.73203307736193E-02 
381	 6.68650701784557E-02 
382	 0.067079920155639 
383	 6.72397234390026E-02 
384	 6.61485733209406E-02 
385	 6.64665048879511E-02 
386	 6.77170150280013E-02 
387	 6.63012615975868E-02 
388	 6.58203668892693E-02 
389	 6.73355249664208E-02 
390	 6.70955956398206E-02 
391	 6.57398884627591E-02 
392	 6.44146298241576E-02 
393	 6.42939147999912E-02 
394	 6.54165533692228E-02 
395	 6.75907014881859E-02 
396	 0.066672370875251 
397	 6.22399485604857E-02 
398	 0.061843024905205 
399	 6.31242723963919E-02 
400	 6.30505887842595E-02 
401	 6.28339689314562E-02 
402	 6.27596089431832E-02 
403	 6.31525074767714E-02 
404	 6.32881487170129E-02 
405	 6.29623810187428E-02 
406	 6.28626493816944E-02 
407	 6.31368687547006E-02 
408	 6.38622445116213E-02 
409	 6.38818240573567E-02 
410	 6.32231658453887E-02 
411	 6.27061202107324E-02 
412	 6.24242716682254E-02 
413	 6.24641482894178E-02 
414	 6.29699225818638E-02 
415	 6.34129621084125E-02 
416	 6.31384584255647E-02 
417	 6.30102814748533E-02 
418	 6.30814918560913E-02 
419	 6.28106742385851E-02 
420	 6.26635382193078E-02 
421	 6.28631165436816E-02 
422	 6.31177551208159E-02 
423	 6.32066019835411E-02 
424	 6.28652134027885E-02 
425	 6.28563439808676E-02 
426	 6.32961603124046E-02 
427	 0.063908504694228 
428	 6.40746787098936E-02 
429	 6.34801147196404E-02 
430	 6.30798809180385E-02 
431	 6.29704707963524E-02 
432	 6.30842216224155E-02 
433	 6.28044685547118E-02 
434	 6.23132488864147E-02 
435	 6.29038980514002E-02 
436	 6.35011305028532E-02 
437	 6.33779425659187E-02 
438	 6.28329325643927E-02 
439	 6.23211952367406E-02 
440	 6.25577814168241E-02 
441	 6.30764436602719E-02 
442	 0.063606133674963 
443	 6.37681268886785E-02 
444	 6.35917906161982E-02 
445	 6.31888525864542E-02 
446	 6.33514393133023E-02 
447	 0.063869842449848 
448	 6.40209877435684E-02 
449	 6.37781112986619E-02 
450	 6.33610943736769E-02 
451	 6.39846344259567E-02 
452	 6.46772306269984E-02 
453	 6.44591342112799E-02 
454	 6.45106587845298E-02 
455	 6.47947886928992E-02 
456	 6.45235088564445E-02 
457	 6.44372333569319E-02 
458	 6.47767656372498E-02 
459	 6.50813894778758E-02 
460	 6.51665274806307E-02 
461	 6.48829401419623E-02 
462	 6.49471681740854E-02 
463	 6.53116183761163E-02 
464	 6.52760804693987E-02 
465	 6.52144805194086E-02 
466	 6.53228461233721E-02 
467	 6.56008783162069E-02 
468	 6.57881979139414E-02 
469	 6.55129285239137E-02 
470	 6.55149748342041E-02 
471	 6.57510614998147E-02 
472	 6.53067493060122E-02 
473	 6.49640519866479E-02 
474	 6.52146178972228E-02 
475	 6.57160042100034E-02 
476	 6.61625502674307E-02 
477	 6.61320421007854E-02 
478	 0.066030022227332 
479	 6.59910759769754E-02 
480	 6.60008174794533E-02 
481	 6.60390726068682E-02 
482	 0.066104282185379 
483	 6.63832865667389E-02 
484	 0.066776342852245 
485	 6.70127426196664E-02 
486	 6.70103364571424E-02 
487	 6.67912052305517E-02 
488	 6.67270062678007E-02 
489	 6.66255023517542E-02 
490	 6.63016407384515E-02 
491	 6.65452660237858E-02 
492	 0.067123475364659 
493	 6.69993373990721E-02 
494	 6.69099312607551E-02 
495	 6.71304045223614E-02 
496	 0.06730220789115 
497	 6.73862395146093E-02 
498	 6.73753470296914E-02 
499	 6.74134573379488E-02 
500	 6.75933767410258E-02 
501	 0.068054605535055 
502	 6.85946379179729E-02 
503	 6.90471899695015E-02 
504	 6.92461721136278E-02 
505	 0.069354961585317 
506	 6.96857960925979E-02 
507	 6.98861110253524E-02 
508	 6.99617288457173E-02 
509	 7.03090487007458E-02 
510	 7.07795339477563E-02 
511	 7.12397113753766E-02 
512	 7.16451577108022E-02 
513	 7.20911483708751E-02 
514	 7.28500981974491E-02 
515	 7.35163123027398E-02 
516	 7.39514972205816E-02 
517	 7.43552835397184E-02 
518	 7.46606610136292E-02 
519	 7.48044139962386E-02 
520	 7.53389453072079E-02 
521	 0.076184471310015 
522	 7.68580875991511E-02 
523	 7.74202242393102E-02 
524	 7.78961511255886E-02 
525	 7.83471375131272E-02 
526	 7.87821272554534E-02 
527	 7.91956455817777E-02 
528	 7.95466259700879E-02 
529	 7.98866451224369E-02 
530	 0.080428530447324 
531	 8.10008313820286E-02 
532	 8.14817648105631E-02 
533	 0.08182133528137 
534	 8.21716139381021E-02 
535	 8.28643143451785E-02 
536	 8.33852174762124E-02 
537	 8.36222758422195E-02 
538	 8.39003736100215E-02 
539	 8.41754028206195E-02 
540	 8.43946407799201E-02 
541	 8.46403533126894E-02 
542	 8.50021031217364E-02 
543	 8.57436423407718E-02 
544	 8.60961306936531E-02 
545	 8.58966506971944E-02 
546	 8.63417654937087E-02 
547	 8.70058135508215E-02 
548	 8.71952049945339E-02 
549	 8.73694186538552E-02 
550	 8.75953331084596E-02 
551	 8.76920448603538E-02 
552	 8.79234751515704E-02 
553	 8.84184388009781E-02 
554	 8.87533309661728E-02 
555	 8.89936038919422E-02 
556	 0.089391068784883 
557	 8.96834680368201E-02 
558	 8.97691627151893E-02 
559	 0.089565190697676 
560	 8.95261105928496E-02 
561	 9.00160383216958E-02 
562	 9.01361119256627E-02 
563	 0.08987179742059 
564	 8.95795098520992E-02 
565	 8.96170495887792E-02 
566	 9.00501417880147E-02 
567	 9.01288415871388E-02 
568	 9.00558091111451E-02 
569	 0.090179044847323 
570	 0.090179020703751 
571	 9.00243155540956E-02 
572	 8.98537570389113E-02 
573	 8.97511054974933E-02 
574	 8.97577110784795E-02 
575	 8.97467150359819E-02 
576	 8.96568989659938E-02 
577	 8.94143531513522E-02 
578	 8.91523721712214E-02 
579	 8.89838164822343E-02 
580	 8.91447352557916E-02 
581	 8.93291598354865E-02 
582	 8.92685455898612E-02 
583	 8.92156478636267E-02 
584	 8.91949866566809E-02 
585	 8.91547315354076E-02 
586	 8.90905729022066E-02 
587	 0.089002573247691 
588	 8.88733972010037E-02 
589	 8.88952323227376E-02 
590	 8.93029660892899E-02 
591	 8.92663392530858E-02 
592	 8.88287522672789E-02 
593	 8.87982181888177E-02 
594	 8.88692156600466E-02 
595	 8.88939910609844E-02 
596	 8.91629218499945E-02 
597	 8.94229780154453E-02 
598	 8.91712411216787E-02 
599	 8.90476917492345E-02 
600	 8.91537997635286E-02 
601	 8.89780433580162E-02 
602	 8.88374910006924E-02 
603	 8.89857908733745E-02 
604	 8.87539848710565E-02 
605	 8.83148500959842E-02 
606	 8.84329268274058E-02 
607	 8.84360164890565E-02 
608	 8.81105803114045E-02 
609	 8.78760430276236E-02 
610	 8.77521256948123E-02 
611	 8.77120774177724E-02 
612	 8.73701406655939E-02 
613	 8.68826575130314E-02 
614	 8.71332471239969E-02 
615	 8.72538208599108E-02 
616	 8.67821463760284E-02 
617	 8.65905421264825E-02 
618	 8.66187251937282E-02 
619	 8.65516345477642E-02 
620	 8.64782671514687E-02 
621	 8.63907447545476E-02 
622	 8.61837274033993E-02 
623	 8.60152139793978E-02 
624	 8.60133615182207E-02 
625	 8.58295167349492E-02 
626	 8.56176791507239E-02 
627	 8.59758473545061E-02 
628	 8.61570363970131E-02 
629	 8.59872561672101E-02 
630	 8.64318573358484E-02 
631	 8.68180760086651E-02 
632	 8.62412717854408E-02 
633	 0.085885310304247 
634	 8.58670590914287E-02 
635	 8.55013487147413E-02 
636	 8.53936364805979E-02 
637	 8.57980992855309E-02 
638	 8.56982864955681E-02 
639	 8.53680921976116E-02 
640	 8.55515332740616E-02 
641	 8.55847014843776E-02 
642	 8.52841808513393E-02 
643	 8.47554710905452E-02 
644	 8.43725227331739E-02 
645	 8.44313098490441E-02 
646	 8.44221783031895E-02 
647	 0.084179029886818 
648	 8.35180408067855E-02 
649	 8.29558510870782E-02 
650	 8.27784860316881E-02 
651	 8.31992405737676E-02 
652	 8.34292939449012E-02 
653	 8.25423953508603E-02 
654	 8.18953387660682E-02 
655	 8.17539260574836E-02 
656	 8.19311355678345E-02 
657	 8.16581813138151E-02 
658	 8.06023758567618E-02 
659	 7.97464734567471E-02 
660	 7.92285598259991E-02 
661	 7.90980419928677E-02 
662	 7.88726286251884E-02 
663	 7.83315306230495E-02 
664	 7.72827878608683E-02 
665	 7.63191961910145E-02 
666	 7.59180874237584E-02 
667	 7.55103908791011E-02 
668	 7.50407130077951E-02 
669	 7.46279620658449E-02 
670	 7.42110030646324E-02 
671	 7.38414144341441E-02 
672	 0.07388960871653 
673	 7.40493272334507E-02 
674	 7.39427717185936E-02 
675	 7.36995146717481E-02 
676	 7.35338659012704E-02 
677	 7.40225048573573E-02 
678	 7.44322492512793E-02 
679	 7.44262957335456E-02 
680	 7.47196652975195E-02 
681	 7.51306540200197E-02 
682	 0.075203516441179 
683	 7.60428017904271E-02 
684	 0.077594384069532 
685	 7.83617306071919E-02 
686	 7.92275365845943E-02 
687	 8.09287091245428E-02 
688	 8.23803813703785E-02 
689	 8.36938005998975E-02 
690	 8.58702415170921E-02 
691	 8.79935933967947E-02 
692	 0.08986951024502 
693	 9.18252458531155E-02 
694	 9.39562930582912E-02 
695	 9.62309183382267E-02 
696	 9.80915338849757E-02 
697	 9.97847730312443E-02 
698	 0.102417793975333 
699	 0.104780659247793 
700	 0.106392039632618 
701	 0.108417199225894 
702	 0.110682268716155 
703	 0.112788693201608 
704	 0.114643434321807 
705	 0.116279477823472 
706	 0.117878383076944 
707	 0.119380126739466 
708	 0.120740856118126 
709	 0.122021643487995 
710	 0.123138622029418 
711	 0.123873277530632 
712	 0.125014391186353 
713	 0.126543784698802 
714	 0.127207026956144 
715	 0.127645778419418 
716	 0.128532296883519 
717	 0.129610701332054 
718	 0.130742245682354 
719	 0.131432036473568 
720	 0.132153681218239 
721	 0.132979102322234 
722	 0.133542405086838 
723	 0.134071427590633 
724	 0.134777266345377 
725	 0.135164718262285 
726	 0.135345162678578 
727	 0.136165640080003 
728	 0.136715500910806 
729	 0.136695125595863 
730	 0.137421333436292 
731	 0.13838942400629 
732	 0.138733376836912 
733	 0.138603381739695 
734	 0.13834737728134 
735	 0.138993377823671 
736	 0.139579651716958 
737	 0.139514589547971 
738	 0.139786688356146 
739	 0.140268482632381 
740	 0.140437652420446 
741	 0.140878939729906 
742	 0.141561868064027 
743	 0.141653710090528 
744	 0.141479176778385 
745	 0.141384301621554 
746	 0.141855953369288 
747	 0.142570319338711 
748	 0.142539847788992 
749	 0.142499712790995 
750	 0.142698595803224 
751	 0.142985835953391 
752	 0.14324718536786 
753	 0.14337690462221 
754	 0.143552336758468 
755	 0.143699102011342 
756	 0.143472113758674 
757	 0.143365279747442 
758	 0.143574552916726 
759	 0.143546780304056 
760	 0.143784272171243 
761	 0.145548896107678 
762	 0.14563166769595 
763	 0.144505150657842 
764	 0.14526336895604 
765	 0.146091847838427 
766	 0.146331814564341 
767	 0.14639945235063 
768	 0.146378406944161 
769	 0.146302489337455 
770	 0.146274459721989 
771	 0.14630676753757 
772	 0.146292869240834 
773	 0.146424252485548 
774	 0.146762024846752 
775	 0.146626953138024 
776	 0.146406001638454 
777	 0.146967987232398 
778	 0.147500925774522 
779	 0.147755795215629 
780	 0.147830833037792 
781	 0.14789602857604 
782	 0.148071810141678 
783	 0.148084685715331 
784	 0.148072505317649 
785	 0.148417815843858 
786	 0.148745765181857 
787	 0.148935436085064 
788	 0.149089246342456 
789	 0.149139391327996 
790	 0.149057061518282 
791	 0.149365780748912 
792	 0.149859142822289 
793	 0.149814046925014 
794	 0.149620699663466 
795	 0.149506502625659 
796	 0.149923082948958 
797	 0.150184887096138 
798	 0.149652561621879 
799	 0.149682154957828 
800	 0.150223454967397 
801	 0.150419380445113 
802	 0.150433772550521 
803	 0.15039753378133 
804	 0.150809499866273 
805	 0.151304650970421 
806	 0.151442334063192 
807	 0.15101299108675 
808	 0.150484621492211 
809	 0.151310045203119 
810	 0.152198959072824 
811	 0.152486245858477 
812	 0.151883707485551 
813	 0.151351705493265 
814	 0.152156029239396 
815	 0.152475348846285 
816	 0.152224430963884 
817	 0.152729087506774 
818	 0.153109613047075 
819	 0.153050079397454 
820	 0.152962927856555 
821	 0.153227769472043 
822	 0.15422075631591 
823	 0.154736336427329 
824	 0.154619755262664 
825	 0.154346640797485 
826	 0.154183057328345 
827	 0.154329408332153 
828	 0.155120907707137 
829	 0.155617173695724 
830	 0.154716152381295 
831	 0.154680890063828 
832	 0.155356765818136 
833	 0.154667370903933 
834	 0.154555170713623 
835	 0.15551507836102 
836	 0.155228006762126 
837	 0.154942743063572 
838	 0.156207709110709 
839	 0.156818898369871 
840	 0.156571444832657 
841	 0.156220997341281 
842	 0.156247819330695 
843	 0.15669562412591 
844	 0.156155862097033 
845	 0.155786310726738 
846	 0.156899939540508 
847	 0.156708152296892 
848	 0.155487977801208 
849	 0.155819598964186 
850	 0.155869950995555 
851	 0.155217361797779 
852	 0.155869497734459 
853	 0.156617956793781 
854	 0.156075848480498 
855	 0.155626694689441 
856	 0.155684708877365 
857	 0.156670395622687 
858	 0.156994861449999 
859	 0.156376545880153 
860	 0.156503041282571 
861	 0.156985184054105 
862	 0.157325202511045 
863	 0.157148489570241 
864	 0.156640643362051 
865	 0.156351955763107 
866	 0.1567131345799 
867	 0.157635464887189 
868	 0.157892171878916 
869	 0.157954173938269 
870	 0.158255124700826 
871	 0.158726806907654 
872	 0.159078837079361 
873	 0.1587210796632 
874	 0.158895315702533 
875	 0.159879007706528 
876	 0.161268382901518 
877	 0.16159897302075 
878	 0.160186354842226 
879	 0.160457167758488 
880	 0.161409348890947 
881	 0.160617848133922 
882	 0.160750335462737 
883	 0.16182348943607 
884	 0.161237689046083 
885	 0.16117311079975 
886	 0.162528107152606 
887	 0.162449056654572 
888	 0.161817056343824 
889	 0.162188248519761 
890	 0.163089195653239 
891	 0.163724625604778 
892	 0.161812942078044 
893	 0.16044435975397 
894	 0.161014415798772 
895	 0.162057528874447 
896	 0.162282118930798 
897	 0.160547420287691 
898	 0.161155574951774 
899	 0.163613244437873 
900	 0.164330814863019 
901	 0.164557799600758 
902	 0.164769335253589 
903	 0.165652833232819 
904	 0.165710914741428 
905	 0.164046991941729 
906	 0.163611506588103 
907	 0.16453614444678 
908	 0.166262135071167 
909	 0.166301856503784 
910	 0.165105668196998 
911	 0.167698190705876 
912	 0.16967218732241 
913	 0.168641661186447 
914	 0.167352883444357 
915	 0.166363564881116 
916	 0.165942830060206 
917	 0.165168171619226 
918	 0.164271979631206 
919	 0.16434984629455 
920	 0.164749127930559 
921	 0.165211711910178 
922	 0.165888482472245 
923	 0.165843843812702 
924	 0.164454014275605 
925	 0.164599620648097 
926	 0.165710834510053 
927	 0.165401439742392 
928	 0.165344000983836 
929	 0.165893329688602 
930	 0.166132069120381 
931	 0.165224369484386 
932	 0.162738108338335 
933	 0.161214649057939 
934	 0.161703856286193 
935	 0.164760273778798 
936	 0.170871718561792 
937	 0.175373905052096 
938	 0.166574029461401 
939	 0.162915913233483 
940	 0.167667679508677 
941	 0.166206038463168 
942	 0.16692843591252 
943	 0.174567079434234 
944	 0.172627709483786 
945	 0.163383638825645 
946	 0.153980142888868 
947	 0.158765949667317 
948	 0.173196710513935 
949	 0.169633746763374 
950	 0.16720359317604 
951	 0.17229273570817 
952	 0.173490354901788 
953	 0.170645197417746 
954	 0.165049764825046 
955	 0.164593246269673 
956	 0.167101485403168 
957	 0.166033301641618 
958	 0.169333960124332 
959	 0.175369907208773 
960	 0.173213586732743 
961	 0.169473076922343 
962	 0.167708775496655 
963	 0.167328459552057 
964	 0.16813154545999 
965	 0.169710258192247 
966	 0.169903779803032 
967	 0.168045012902307 
968	 0.162981552268572 
969	 0.165833276661013 
970	 0.174054015349732 
971	 0.167126761206567 
972	 0.162022357021191 
973	 0.166932393058272 
974	 0.167270719486995 
975	 0.165909416808926 
976	 0.167316987066549 
977	 0.166258448985325 
978	 0.164495048213768 
979	 0.167911420289464 
980	 0.169049616426748 
981	 0.167292061135106 
982	 0.169545492670398 
983	 0.168964609219832 
984	 0.163955803506006 
985	 0.169421739322123 
986	 0.175368700759464 
987	 0.170902629836444 
988	 0.170938455370335 
989	 0.174744618600935 
990	 0.175520995293444 
991	 0.171538694533594 
992	 0.166149853970575 
993	 0.174077690098321 
994	 0.178269005856637 
995	 0.171702932880555 
996	 0.169429160369126 
997	 0.168177744943386 
998	 0.164371013462314 
999	 0.166542666908072 
1000	 0.171325326393271 
1001	 0.170690498338317 
1002	 0.169576788160267 
1003	 0.16907737282907 
1004	 0.168537816264424 
1005	 0.168224051566799 
1006	 0.168667803245739 
1007	 0.172046436202552 
1008	 0.174452074926929 
1009	 0.173051654381817 
1010	 0.171062014279933 
1011	 0.17088107337699 
1012	 0.174956952897388 
1013	 0.178873645544496 
1014	 0.179518732323313 
1015	 0.172210877575417 
1016	 0.169107343150891 
1017	 0.171712468303877 
1018	 0.168237509378809 
1019	 0.168439736952785 
1020	 0.176147805463862 
1021	 0.180906596915661 
1022	 0.175521057271262 
1023	 0.157156948328006 
1024	 0.16057727159619 
1025	 0.176815010705307 
1026	 0.18127224409852 
1027	 0.18266202668782 
1028	 0.181471714225231 
1029	 0.174391081855934 
1030	 0.166064918466404 
1031	 0.159730707743063 
1032	 0.157096157466648 
1033	 0.162535849019347 
1034	 0.175230065168092 
1035	 0.171556663928944 
1036	 0.167217555181039 
1037	 0.179158423629777 
1038	 0.182730029154787 
1039	 0.173185562611714 
1040	 0.150676265927644 
1041	 0.156986346229511 
1042	 0.184053132919689 
1043	 0.177024879298274 
1044	 0.173970294154299 
1045	 0.184318117392622 
1046	 0.190615668204861 
1047	 0.192262980476407 
1048	 0.188192205864933 
1049	 0.176795581800188 
1050	 0.161838823988499 
1051	 0.148598008121048 
1052	 0.161481297223345 
1053	 0.181946215691711 
1054	 0.178880300467998 
1055	 0.167810076762522 
1056	 0.161846416550902 
1057	 0.1843539175107 
1058	 0.197265567911699 
1059	 0.191141485129142 
1060	 0.180109730268119 
1061	 0.174584647860739 
1062	 0.178609348945196 
1063	 0.183118697606609 
1064	 0.182498084348057 
1065	 0.173469246509532 
1066	 0.163993545595137 
1067	 0.155915600268955 
1068	 0.149920762338806 
1069	 0.15587891907335 
1070	 0.174773796128884 
1071	 0.200307315981901 
1072	 0.206374002590121 
1073	 0.193964272041675 
1074	 0.177054532266277 
1075	 0.190552590494015 
