Wavelength	SHSI00349.asd
325	 7.56761249197576E-02 
326	 8.18891477577882E-02 
327	 8.15650648811558E-02 
328	 7.90199008954771E-02 
329	 0.076854154356567 
330	 7.58383420597832E-02 
331	 7.39813077397122E-02 
332	 7.18654052307293E-02 
333	 7.01994712779226E-02 
334	 6.92144377746341E-02 
335	 6.92507377786799E-02 
336	 7.15817918294151E-02 
337	 7.08328420153429E-02 
338	 6.66476682572634E-02 
339	 6.49599351251467E-02 
340	 6.56472803501373E-02 
341	 0.068047777439997 
342	 6.93738884060864E-02 
343	 6.89275395691163E-02 
344	 6.60239111842962E-02 
345	 6.61795446358953E-02 
346	 6.94127130623092E-02 
347	 6.94978149147445E-02 
348	 6.98617797763608E-02 
349	 7.23895498337489E-02 
350	 0.072352057093643 
351	 7.04482978523807E-02 
352	 6.85899636110624E-02 
353	 6.66666633221754E-02 
354	 0.065864045896031 
355	 7.03077078374602E-02 
356	 7.32016522519414E-02 
357	 7.10273024271195E-02 
358	 7.00911861249292E-02 
359	 6.99942996340235E-02 
360	 6.89457000038843E-02 
361	 6.74635750191788E-02 
362	 6.63956697046041E-02 
363	 6.79369789272269E-02 
364	 6.96561922160676E-02 
365	 7.01653074645593E-02 
366	 7.00061951016159E-02 
367	 6.91789200633384E-02 
368	 6.76042465200795E-02 
369	 6.67545200884095E-02 
370	 6.66643073141532E-02 
371	 6.59015355124966E-02 
372	 6.62755953002699E-02 
373	 6.83038684519594E-02 
374	 6.87702793462308E-02 
375	 6.75348905342053E-02 
376	 6.49900007802266E-02 
377	 6.41716720994849E-02 
378	 0.065168753785184 
379	 6.55065300249795E-02 
380	 0.065767950509046 
381	 6.60393075417036E-02 
382	 6.53198739817866E-02 
383	 6.44872689378059E-02 
384	 6.47855266914781E-02 
385	 6.63331997197531E-02 
386	 0.068128448434116 
387	 6.73243004804209E-02 
388	 0.066153783940341 
389	 6.56911427660857E-02 
390	 6.56671040417834E-02 
391	 6.54033483111724E-02 
392	 6.41819279690189E-02 
393	 6.41923594125855E-02 
394	 6.54220091517104E-02 
395	 6.69869642276499E-02 
396	 6.56310323474559E-02 
397	 6.12735584649421E-02 
398	 6.09881022180488E-02 
399	 6.26186274855252E-02 
400	 6.33418151050322E-02 
401	 6.28890939125151E-02 
402	 6.20078750478244E-02 
403	 6.27881060594882E-02 
404	 6.33457779535063E-02 
405	 6.29697601532749E-02 
406	 6.22759761121028E-02 
407	 6.22007142051701E-02 
408	 6.37501864545715E-02 
409	 6.37220617563938E-02 
410	 6.21826387722488E-02 
411	 0.061321042341074 
412	 6.12608331557021E-02 
413	 6.19380870396958E-02 
414	 6.23484727323292E-02 
415	 6.25623119672598E-02 
416	 6.28306022921458E-02 
417	 6.28101682841427E-02 
418	 6.24974522486626E-02 
419	 6.20617971304585E-02 
420	 6.17840998068243E-02 
421	 6.18539571994825E-02 
422	 6.23913673787642E-02 
423	 6.29075962302497E-02 
424	 6.27133337434195E-02 
425	 6.25890238311418E-02 
426	 6.27301647195301E-02 
427	 6.30870128362692E-02 
428	 6.32905634328137E-02 
429	 6.31006903447626E-02 
430	 6.26832835478298E-02 
431	 6.23368279938551E-02 
432	 6.25018830482615E-02 
433	 6.25050914166387E-02 
434	 6.22481205727553E-02 
435	 6.19951068766261E-02 
436	 6.21977938801465E-02 
437	 6.29977626329168E-02 
438	 6.28288855424839E-02 
439	 6.22302329750277E-02 
440	 6.26092924123685E-02 
441	 6.29667963937257E-02 
442	 6.30609816459135E-02 
443	 6.31959919579145E-02 
444	 6.32198352028244E-02 
445	 6.30366819601172E-02 
446	 6.30003581467469E-02 
447	 6.31824131874878E-02 
448	 6.36435728382102E-02 
449	 6.38279869770927E-02 
450	 6.36544095782928E-02 
451	 6.37711556986872E-02 
452	 6.41319930966182E-02 
453	 6.46102281277571E-02 
454	 0.064397149377445 
455	 6.37817882604941E-02 
456	 6.40363845650495E-02 
457	 6.41485111849234E-02 
458	 6.38639077703014E-02 
459	 6.42150372775552E-02 
460	 6.46364142585231E-02 
461	 6.43894209268477E-02 
462	 6.42939698104541E-02 
463	 6.45049108402671E-02 
464	 6.49153799831974E-02 
465	 6.52138959546023E-02 
466	 6.52466049294708E-02 
467	 6.53601783043794E-02 
468	 6.52908756213574E-02 
469	 6.46042154442282E-02 
470	 6.43973480635137E-02 
471	 6.47513306404935E-02 
472	 6.48083516218449E-02 
473	 6.49102148237941E-02 
474	 6.52286141182744E-02 
475	 6.53335891374147E-02 
476	 0.065387936386038 
477	 6.57993211383296E-02 
478	 6.58661531386526E-02 
479	 6.55359980843321E-02 
480	 6.54644795030425E-02 
481	 6.55913668548442E-02 
482	 6.58218920971583E-02 
483	 0.065794442398605 
484	 6.55844638272701E-02 
485	 6.55161271746471E-02 
486	 6.55656045227297E-02 
487	 6.57373795875431E-02 
488	 0.066073041266297 
489	 6.61496212353296E-02 
490	 0.065611668178161 
491	 0.065659916099221 
492	 6.62091946898883E-02 
493	 6.63832190224931E-02 
494	 6.64660878437831E-02 
495	 6.65596519280804E-02 
496	 6.66117471475082E-02 
497	 6.67175938718947E-02 
498	 0.066998530017972 
499	 6.72389979439403E-02 
500	 6.73694874772381E-02 
501	 6.73145943423022E-02 
502	 6.74837988466695E-02 
503	 0.068083989132142 
504	 0.06864213083359 
505	 6.91088519957064E-02 
506	 6.95614770918176E-02 
507	 6.94970064765588E-02 
508	 6.90852626110335E-02 
509	 6.94898492661018E-02 
510	 7.02544055746163E-02 
511	 7.09746781258974E-02 
512	 7.17083655285743E-02 
513	 7.23346453135257E-02 
514	 0.072594796653032 
515	 7.27935320025339E-02 
516	 7.30713625826591E-02 
517	 7.34596090103991E-02 
518	 7.39022912808947E-02 
519	 7.43331541657059E-02 
520	 7.49401769480332E-02 
521	 7.56260266541791E-02 
522	 7.60379797784376E-02 
523	 7.65454204776905E-02 
524	 7.72787027909445E-02 
525	 7.79149838270698E-02 
526	 7.83745183407295E-02 
527	 7.85867032105676E-02 
528	 7.90252972973674E-02 
529	 0.079676817467186 
530	 8.00487612043714E-02 
531	 8.03243241502139E-02 
532	 8.06552641194023E-02 
533	 8.12268577496262E-02 
534	 0.08187495557358 
535	 8.22183894755775E-02 
536	 8.26453900003436E-02 
537	 0.083199815079053 
538	 8.34853654239414E-02 
539	 8.37326016830003E-02 
540	 8.41667581193905E-02 
541	 8.44850920875292E-02 
542	 8.47273336549394E-02 
543	 8.51878515165879E-02 
544	 8.54780693566121E-02 
545	 8.55266422563447E-02 
546	 8.59760100925061E-02 
547	 8.64430148829163E-02 
548	 8.63600009794617E-02 
549	 8.65942967321238E-02 
550	 8.71998201554895E-02 
551	 8.75911565699744E-02 
552	 8.79507547953002E-02 
553	 8.83442138143292E-02 
554	 8.83636244837238E-02 
555	 8.82486859497231E-02 
556	 8.85468261341713E-02 
557	 8.87143831114346E-02 
558	 8.86804456283205E-02 
559	 8.89060075027064E-02 
560	 8.93000639220747E-02 
561	 8.97366362502169E-02 
562	 8.99876082642687E-02 
563	 8.99780477197589E-02 
564	 8.95739168656784E-02 
565	 8.95213366575872E-02 
566	 8.99904927829146E-02 
567	 8.98714433684208E-02 
568	 8.94668891336176E-02 
569	 8.92922852301746E-02 
570	 8.93215332328866E-02 
571	 8.94671380263569E-02 
572	 8.94199565888323E-02 
573	 8.93391945362716E-02 
574	 0.089290879582954 
575	 8.89932739877116E-02 
576	 8.86145562870598E-02 
577	 8.85058623185726E-02 
578	 8.86113209262969E-02 
579	 8.88267575211719E-02 
580	 0.088753412198065 
581	 8.87391627719449E-02 
582	 8.90495060701901E-02 
583	 0.088808813403664 
584	 8.82533464949495E-02 
585	 8.84129287596427E-02 
586	 8.84901239624696E-02 
587	 8.82341980766647E-02 
588	 8.81149736207459E-02 
589	 0.088207564978531 
590	 8.85430411092668E-02 
591	 8.86499109748654E-02 
592	 8.84985603571836E-02 
593	 8.84227557144849E-02 
594	 0.088356116507979 
595	 8.82753102914668E-02 
596	 8.82562580133067E-02 
597	 8.82721877210595E-02 
598	 8.82491458897021E-02 
599	 8.83766039429686E-02 
600	 8.86153516146353E-02 
601	 8.85675476649884E-02 
602	 8.83828697063534E-02 
603	 8.82137569473136E-02 
604	 0.088019416512127 
605	 8.79212450786064E-02 
606	 8.82946622755963E-02 
607	 8.83430350158074E-02 
608	 8.78346800390431E-02 
609	 8.75583660624218E-02 
610	 8.74968662491486E-02 
611	 8.75279104876829E-02 
612	 8.70349953633913E-02 
613	 8.62697061438316E-02 
614	 8.66410893110861E-02 
615	 8.68777868915675E-02 
616	 0.086292160938324 
617	 8.60742644498192E-02 
618	 8.61157349268214E-02 
619	 8.59356329228315E-02 
620	 8.58644647110917E-02 
621	 0.085925980511084 
622	 8.58419259012099E-02 
623	 8.56827132793964E-02 
624	 8.55256322145055E-02 
625	 8.53808274586531E-02 
626	 8.53339718710522E-02 
627	 0.085654964380137 
628	 8.56091280450972E-02 
629	 8.50695398363154E-02 
630	 0.085234287972837 
631	 8.56475852999483E-02 
632	 8.56193870234837E-02 
633	 8.54027046081808E-02 
634	 8.51130771408704E-02 
635	 8.49109221937795E-02 
636	 8.48520157297966E-02 
637	 8.49735635697846E-02 
638	 8.53174673131834E-02 
639	 8.55034987789647E-02 
640	 8.48398189435009E-02 
641	 8.45294878938166E-02 
642	 8.47126746240514E-02 
643	 8.41574999954289E-02 
644	 8.36010618112294E-02 
645	 8.36983350596029E-02 
646	 8.38846100450323E-02 
647	 0.083874772649112 
648	 0.083215964331034 
649	 8.25363531913034E-02 
650	 0.08216388042871 
651	 8.22093167066636E-02 
652	 8.23654472554949E-02 
653	 8.22573220868529E-02 
654	 0.081839860486727 
655	 8.12207999022379E-02 
656	 8.09742545023696E-02 
657	 8.04960050339499E-02 
658	 7.95741754881961E-02 
659	 7.92105061762263E-02 
660	 7.90534747699472E-02 
661	 7.83779748729572E-02 
662	 7.77514097388267E-02 
663	 7.72577381030731E-02 
664	 7.65365622051635E-02 
665	 7.58744190942435E-02 
666	 7.54872422306128E-02 
667	 7.48443977087597E-02 
668	 7.41223450113872E-02 
669	 7.39706105041827E-02 
670	 7.38512883141302E-02 
671	 0.073601816788808 
672	 7.34994761723013E-02 
673	 7.34342196986804E-02 
674	 7.32642648836223E-02 
675	 7.32701740997246E-02 
676	 7.33841482956402E-02 
677	 7.31250032971083E-02 
678	 7.32608632054451E-02 
679	 7.40844018072185E-02 
680	 7.45023614192282E-02 
681	 7.45957836434351E-02 
682	 7.46635769016183E-02 
683	 7.57687285344774E-02 
684	 7.76613972657464E-02 
685	 7.80315932378813E-02 
686	 7.84546409289532E-02 
687	 0.080288254728215 
688	 8.19193014845494E-02 
689	 8.33263194619043E-02 
690	 8.54913582055232E-02 
691	 8.75286185586212E-02 
692	 8.92899867955205E-02 
693	 9.12454189394029E-02 
694	 9.34206012001948E-02 
695	 9.57075481394775E-02 
696	 9.77488634640486E-02 
697	 9.96867511914913E-02 
698	 0.102251690595319 
699	 0.104565010539198 
700	 0.106260811352696 
701	 0.108196654908707 
702	 0.110161188116306 
703	 0.111750605976771 
704	 0.113618956232381 
705	 0.115684658873004 
706	 0.117036785134851 
707	 0.118346089578277 
708	 0.119986882575878 
709	 0.121273977106935 
710	 0.122281718184282 
711	 0.123283728845076 
712	 0.124621365352399 
713	 0.126149007821504 
714	 0.126700006289422 
715	 0.127053221903089 
716	 0.128011710202916 
717	 0.129363521457887 
718	 0.13077843577658 
719	 0.131060564442909 
720	 0.131681226040338 
721	 0.132927106490539 
722	 0.133640530827656 
723	 0.134065274484247 
724	 0.134449732586816 
725	 0.134562274744329 
726	 0.134595762702414 
727	 0.135275635657924 
728	 0.135965793063485 
729	 0.136361828154143 
730	 0.136785375168425 
731	 0.137228202445739 
732	 0.137638758273032 
733	 0.137880641115337 
734	 0.138047151887811 
735	 0.138559369216027 
736	 0.138960491495495 
737	 0.13898099286361 
738	 0.13925768031762 
739	 0.139637325790425 
740	 0.139625444787234 
741	 0.140000633602852 
742	 0.140800922223142 
743	 0.141173930897078 
744	 0.141270892748184 
745	 0.14126324543438 
746	 0.141271571302904 
747	 0.141391344948887 
748	 0.141774650138518 
749	 0.14214867640922 
750	 0.142356141506899 
751	 0.14221611113813 
752	 0.142061767739433 
753	 0.142246187440784 
754	 0.142410002583633 
755	 0.142493623710123 
756	 0.142568584506222 
757	 0.142513216599012 
758	 0.142350195575931 
759	 0.142808126553724 
760	 0.143925548696059 
761	 0.144355130851241 
762	 0.1446000183449 
763	 0.144786937375047 
764	 0.144656623704527 
765	 0.144799520863821 
766	 0.145283185039623 
767	 0.145437061391361 
768	 0.145380248447348 
769	 0.145260155155045 
770	 0.145615278816655 
771	 0.14626063123362 
772	 0.145987353192363 
773	 0.145733506314768 
774	 0.146070777724342 
775	 0.146085293789631 
776	 0.146033675886109 
777	 0.14661141501753 
778	 0.147111081983843 
779	 0.14727141276235 
780	 0.147009751877409 
781	 0.146740448193629 
782	 0.14682199877371 
783	 0.147279425547955 
784	 0.147958479085982 
785	 0.148597223298825 
786	 0.148683172440414 
787	 0.148223156051375 
788	 0.148176878289164 
789	 0.148444854651556 
790	 0.148858156665809 
791	 0.149105929855851 
792	 0.149100200289475 
793	 0.148789075274541 
794	 0.148587902199345 
795	 0.148669898928078 
796	 0.148945530294646 
797	 0.149221632829264 
798	 0.149314336353472 
799	 0.14931259199215 
800	 0.149315114571814 
801	 0.149526723272784 
802	 0.149772778767907 
803	 0.149981714560048 
804	 0.150231764504617 
805	 0.150303891122495 
806	 0.14998656912278 
807	 0.149688478882907 
808	 0.149778041726228 
809	 0.151179500075596 
810	 0.151736148883568 
811	 0.15076042872895 
812	 0.15067979919351 
813	 0.1510340324732 
814	 0.150965852393322 
815	 0.151316143171501 
816	 0.151980590887382 
817	 0.152030164343282 
818	 0.151977355275568 
819	 0.152099315581639 
820	 0.152549522003447 
821	 0.15312226851683 
822	 0.153553842987997 
823	 0.153621484376703 
824	 0.15345624688784 
825	 0.153676759394196 
826	 0.153435135300989 
827	 0.152654104692071 
828	 0.153192440139538 
829	 0.154113399916128 
830	 0.154081639050689 
831	 0.154177760505659 
832	 0.154455412398916 
833	 0.154349200762367 
834	 0.154537731052097 
835	 0.155139223905251 
836	 0.155110360791861 
837	 0.154714340037755 
838	 0.154372046190003 
839	 0.154747650784298 
840	 0.155427828238875 
841	 0.154716355374216 
842	 0.154451003293705 
843	 0.155243525672484 
844	 0.155670132299958 
845	 0.155865737998324 
846	 0.156090692673409 
847	 0.155667091117842 
848	 0.154876803229379 
849	 0.154911472365838 
850	 0.15481909069109 
851	 0.154367169765819 
852	 0.154515803693225 
853	 0.15493361229929 
854	 0.15516731458483 
855	 0.155047356838239 
856	 0.154886009033553 
857	 0.155615569336511 
858	 0.156009900019906 
859	 0.155834514350604 
860	 0.156273418367453 
861	 0.15650158178243 
862	 0.155792116387186 
863	 0.156034901493946 
864	 0.156859848076336 
865	 0.156491033746179 
866	 0.156656983046006 
867	 0.157525707864623 
868	 0.157076695376189 
869	 0.156498330505275 
870	 0.156800577990172 
871	 0.157402312973568 
872	 0.157899736140461 
873	 0.157686828349824 
874	 0.157568293501023 
875	 0.157937087999054 
876	 0.159416023574711 
877	 0.159953510440063 
878	 0.158459729258352 
879	 0.158630566022703 
880	 0.1599380020966 
881	 0.160684479652131 
882	 0.160726862145889 
883	 0.160183152477132 
884	 0.159654989170957 
885	 0.160060479039518 
886	 0.161564132565623 
887	 0.161346267522918 
888	 0.160811077182705 
889	 0.162165407568391 
890	 0.162173356351164 
891	 0.161001427180242 
892	 0.161656025860482 
893	 0.162260950498351 
894	 0.161982965522013 
895	 0.161277288484318 
896	 0.160843142727494 
897	 0.161452249697989 
898	 0.162530835725869 
899	 0.16359956632099 
900	 0.163947704950463 
901	 0.163786511398227 
902	 0.163403268243341 
903	 0.163809420386814 
904	 0.163376220435746 
905	 0.161328522245431 
906	 0.16291064957564 
907	 0.166382737294311 
908	 0.167422146107737 
909	 0.16563914170258 
910	 0.162378560452445 
911	 0.163204914107501 
912	 0.165554796640788 
913	 0.167383870851702 
914	 0.166366469644687 
915	 0.164360359815666 
916	 0.163968288535552 
917	 0.165169776213155 
918	 0.166818977030436 
919	 0.165754336953964 
920	 0.165261917242326 
921	 0.166345262676616 
922	 0.16797568624628 
923	 0.16805018164837 
924	 0.165129954313662 
925	 0.165056512701899 
926	 0.166062956792348 
927	 0.161921299206137 
928	 0.159424265093576 
929	 0.160633389135528 
930	 0.162270914965952 
931	 0.163671028504426 
932	 0.164210742292565 
933	 0.165552019076894 
934	 0.165468899502675 
935	 0.160830242954088 
936	 0.157911322622481 
937	 0.158543660734003 
938	 0.16263972716912 
939	 0.167459062607445 
940	 0.170355099072949 
941	 0.165887519330834 
942	 0.163762903055504 
943	 0.16978087689655 
944	 0.166583407772874 
945	 0.158383062156401 
946	 0.155547045537025 
947	 0.159256683338297 
948	 0.165794481288253 
949	 0.161619895908661 
950	 0.160218204180691 
951	 0.165014651319972 
952	 0.160808303469235 
953	 0.158027995287111 
954	 0.165726785263159 
955	 0.166121880615912 
956	 0.160780716805425 
957	 0.157176411060836 
958	 0.16176800954487 
959	 0.17143999137122 
960	 0.170994964178225 
961	 0.1683172248401 
962	 0.167300180806613 
963	 0.16619261814869 
964	 0.165749770470912 
965	 0.166638847001976 
966	 0.167250297921879 
967	 0.166389930699891 
968	 0.161892969918564 
969	 0.162743018890746 
970	 0.167971916282353 
971	 0.16445055642771 
972	 0.162729572541144 
973	 0.167272134563521 
974	 0.165759480764153 
975	 0.162115009447213 
976	 0.161974526009135 
977	 0.162581044803167 
978	 0.164240598998261 
979	 0.168781616205693 
980	 0.170242517146104 
981	 0.168078022479251 
982	 0.167873430722405 
983	 0.166031967873528 
984	 0.162477449479254 
985	 0.169595568549463 
986	 0.176515194318719 
987	 0.171610344220194 
988	 0.167430719687637 
989	 0.167071209324958 
990	 0.172118555568372 
991	 0.170180109059466 
992	 0.16263973195072 
993	 0.169136429490175 
994	 0.171886249868447 
995	 0.164510855888689 
996	 0.167394290340035 
997	 0.170144381002416 
998	 0.162912295112865 
999	 0.166947639528205 
1000	 0.175215078812914 
1001	 0.169827713578767 
1002	 0.164885144274675 
1003	 0.164099669045339 
1004	 0.167104054871062 
1005	 0.168407617275231 
1006	 0.166358968248525 
1007	 0.165486711094334 
1008	 0.167613532577512 
1009	 0.172631308987947 
1010	 0.169987829518676 
1011	 0.16450605405875 
1012	 0.164687834992014 
1013	 0.16727383656583 
1014	 0.170405582813834 
1015	 0.171467713340607 
1016	 0.171040299841589 
1017	 0.169210866789507 
1018	 0.164951230195255 
1019	 0.165385668159449 
1020	 0.172627551759316 
1021	 0.174124908797611 
1022	 0.16962859231467 
1023	 0.161959453336523 
1024	 0.170907216542796 
1025	 0.183815175193842 
1026	 0.175035763544577 
1027	 0.171529195847565 
1028	 0.174118166259432 
1029	 0.164189290413745 
1030	 0.162516459185279 
1031	 0.170230667870047 
1032	 0.15597884578018 
1033	 0.143284799645557 
1034	 0.147217976960536 
1035	 0.160518486559168 
1036	 0.173068578417325 
1037	 0.175179482425675 
1038	 0.170133545585137 
1039	 0.164088075176438 
1040	 0.16675169443022 
1041	 0.170003983469822 
1042	 0.171791363403703 
1043	 0.172884979818703 
1044	 0.169064246071498 
1045	 0.162229155197342 
1046	 0.165990247741037 
1047	 0.173008745742894 
1048	 0.176724866226397 
1049	 0.170159902230998 
1050	 0.163252360162693 
1051	 0.16556601550137 
1052	 0.168841833967296 
1053	 0.172384252841697 
1054	 0.177151394724789 
1055	 0.163839239867333 
1056	 0.146691079078902 
1057	 0.17122550479321 
1058	 0.169005266787639 
1059	 0.136745450691364 
1060	 0.146733790304836 
1061	 0.154304223907728 
1062	 0.146107231028965 
1063	 0.162762547614113 
1064	 0.181780062748038 
1065	 0.182798321577919 
1066	 0.161718113883728 
1067	 0.144539988576222 
1068	 0.155724791547983 
1069	 0.16038799959343 
1070	 0.161189450073443 
1071	 0.173283540088515 
1072	 0.17023699550414 
1073	 0.161785740288839 
1074	 0.18769697512994 
1075	 0.202951980005087 
