Wavelength	SHSI00256.asd
325	 9.25638138412013E-02 
326	 9.66627280703996E-02 
327	 9.48649423740517E-02 
328	 9.23358705332294E-02 
329	 8.37878296316995E-02 
330	 7.25527462923264E-02 
331	 8.52369134855329E-02 
332	 9.89935745376661E-02 
333	 9.24018621995286E-02 
334	 8.89795854418976E-02 
335	 9.08342354505947E-02 
336	 9.36761702553876E-02 
337	 0.091427382146358 
338	 8.46680199277719E-02 
339	 8.55924022795341E-02 
340	 8.79318466101702E-02 
341	 8.63723910108101E-02 
342	 8.42931981436712E-02 
343	 8.45034968925737E-02 
344	 9.12652443398168E-02 
345	 9.84265527763396E-02 
346	 0.101989918846082 
347	 9.33336378757582E-02 
348	 0.089754006430227 
349	 0.10013854268677 
350	 9.73991231252855E-02 
351	 8.93726887258087E-02 
352	 9.37575617656535E-02 
353	 9.40233067860255E-02 
354	 8.92039132615369E-02 
355	 9.06507899013586E-02 
356	 0.094418809399573 
357	 9.75037580988187E-02 
358	 9.76557834742172E-02 
359	 9.60998647659803E-02 
360	 9.50950854426941E-02 
361	 9.52721205144666E-02 
362	 9.64922457345062E-02 
363	 9.76578674839995E-02 
364	 9.82323432579887E-02 
365	 9.79464648815634E-02 
366	 9.70981215402487E-02 
367	 9.64790097201883E-02 
368	 9.70594203995734E-02 
369	 0.098403567153828 
370	 9.96504058026549E-02 
371	 9.78950048913281E-02 
372	 9.86559893292438E-02 
373	 0.103793712391666 
374	 0.10429485108276 
375	 0.101008834280293 
376	 9.65969109161428E-02 
377	 9.62339292040926E-02 
378	 0.099135331522403 
379	 0.098144256538698 
380	 9.75006912461839E-02 
381	 9.91591394272199E-02 
382	 0.101402169634701 
383	 0.102170535052806 
384	 9.91636893000502E-02 
385	 9.77581161666341E-02 
386	 9.78835748703924E-02 
387	 9.48097468642578E-02 
388	 9.29588692337268E-02 
389	 9.39020126171017E-02 
390	 9.43477880716925E-02 
391	 9.52010956418762E-02 
392	 9.77776584592835E-02 
393	 0.096265141656801 
394	 9.17197122591385E-02 
395	 9.06455807390691E-02 
396	 0.091303922316513 
397	 9.22857670672319E-02 
398	 9.06524856834645E-02 
399	 0.088398604896879 
400	 8.76712119206078E-02 
401	 8.78026456086879E-02 
402	 8.86582948638808E-02 
403	 9.02661970229133E-02 
404	 9.21142678560468E-02 
405	 9.37579375489944E-02 
406	 9.42442397148993E-02 
407	 9.39389560438834E-02 
408	 9.34139056608324E-02 
409	 9.26278724668897E-02 
410	 9.18639060086529E-02 
411	 9.17175265205406E-02 
412	 9.19348008251597E-02 
413	 9.22057145169442E-02 
414	 9.14362620916265E-02 
415	 9.06337261537178E-02 
416	 9.12009952878924E-02 
417	 9.14153486092118E-02 
418	 9.12678098392313E-02 
419	 9.21941232145754E-02 
420	 9.24788766758701E-02 
421	 9.14591950045866E-02 
422	 9.14779105544532E-02 
423	 9.19570276805696E-02 
424	 9.16652236804358E-02 
425	 9.14760268619723E-02 
426	 9.16464975438151E-02 
427	 9.23980947133778E-02 
428	 0.092722258222611 
429	 9.20306534888743E-02 
430	 9.14267570257228E-02 
431	 9.08942396184155E-02 
432	 0.090142802748762 
433	 0.08946083599922 
434	 8.89530518990658E-02 
435	 8.84704271641736E-02 
436	 8.89420033337592E-02 
437	 9.07235930075231E-02 
438	 9.11769286945706E-02 
439	 9.07283146144386E-02 
440	 9.09097493869654E-02 
441	 9.09393780518166E-02 
442	 9.08028859244578E-02 
443	 9.11600488108929E-02 
444	 9.19849579596036E-02 
445	 9.30931846504233E-02 
446	 0.092810954516827 
447	 9.18421237635682E-02 
448	 9.23797686394118E-02 
449	 9.27481497965226E-02 
450	 9.26957577983796E-02 
451	 9.37474992686797E-02 
452	 9.50294226021778E-02 
453	 9.56144700186705E-02 
454	 9.62125255586433E-02 
455	 9.67773840531979E-02 
456	 0.096895380701833 
457	 9.66080590145842E-02 
458	 0.096110278594114 
459	 9.63098181877401E-02 
460	 9.68099817519453E-02 
461	 9.70387261708692E-02 
462	 9.66193206485573E-02 
463	 9.60613078461742E-02 
464	 0.097263361300698 
465	 9.82360032144526E-02 
466	 9.80456346980473E-02 
467	 9.81049687634218E-02 
468	 0.098374728221365 
469	 9.85813437492586E-02 
470	 9.80309206028484E-02 
471	 9.71888766448935E-02 
472	 9.82986269295317E-02 
473	 9.94857842807287E-02 
474	 9.95842850201841E-02 
475	 9.96111543468366E-02 
476	 9.96381422576385E-02 
477	 9.95616437791744E-02 
478	 9.93799036143977E-02 
479	 9.91822087091586E-02 
480	 9.92175489954645E-02 
481	 9.95833377504037E-02 
482	 0.100318326378639 
483	 0.10102333668114 
484	 0.101497150718996 
485	 0.101479936883845 
486	 0.101349689778862 
487	 0.101197053359295 
488	 0.100705349588416 
489	 9.99133457294832E-02 
490	 9.89633517835762E-02 
491	 9.96303859665136E-02 
492	 0.101290832008384 
493	 0.101460241196143 
494	 0.101034936388098 
495	 0.100581851487211 
496	 0.101206662929305 
497	 0.102191869926281 
498	 0.102472082010792 
499	 0.102904894992673 
500	 0.103445601943934 
501	 0.103216288475803 
502	 0.103238294400156 
503	 0.104003748685176 
504	 0.104205546474546 
505	 0.104052829176768 
506	 0.104114322470215 
507	 0.104942796665274 
508	 0.106359169240519 
509	 0.106824946413742 
510	 0.107568732154679 
511	 0.109416924757425 
512	 0.109822642775155 
513	 0.109399809311425 
514	 0.110577350972857 
515	 0.111750854036789 
516	 0.112349731214673 
517	 0.112491793288382 
518	 0.112669486963553 
519	 0.113365834318527 
520	 0.113569583037928 
521	 0.113561663228186 
522	 0.114599652271934 
523	 0.115883640464531 
524	 0.117007715786061 
525	 0.117917479664223 
526	 0.118563036928575 
527	 0.118896971355446 
528	 0.119105571948006 
529	 0.119433624713579 
530	 0.120436870463598 
531	 0.121579658593539 
532	 0.122446354480468 
533	 0.122774658064304 
534	 0.122888541430596 
535	 0.123483439328402 
536	 0.124107823934206 
537	 0.124729070421305 
538	 0.125851743399128 
539	 0.126899500863165 
540	 0.127310353878436 
541	 0.12754672034144 
542	 0.127805130301343 
543	 0.128285343790856 
544	 0.129001691204526 
545	 0.129859578729564 
546	 0.130254264532966 
547	 0.130500449119006 
548	 0.131080047780863 
549	 0.13126844961219 
550	 0.131228116469865 
551	 0.132098842323839 
552	 0.132978532150792 
553	 0.133355552045453 
554	 0.134088091588648 
555	 0.135041663312871 
556	 0.135785173260647 
557	 0.136304902793728 
558	 0.136539624913166 
559	 0.136316676000289 
560	 0.136225199180038 
561	 0.136784868257689 
562	 0.137465527596538 
563	 0.138086189974027 
564	 0.138505012849933 
565	 0.138764257694839 
566	 0.138899649856858 
567	 0.138976443482391 
568	 0.139269102938613 
569	 0.140100168808686 
570	 0.139893756450525 
571	 0.138876574046645 
572	 0.139168689694021 
573	 0.139780912115948 
574	 0.140094774578192 
575	 0.140221182591145 
576	 0.140270473082953 
577	 0.14041268915031 
578	 0.14091541478868 
579	 0.141625209715738 
580	 0.141469510188788 
581	 0.141328149134309 
582	 0.141951862866604 
583	 0.142179359558973 
584	 0.142101364578489 
585	 0.142480588546784 
586	 0.14299485344763 
587	 0.143448824282361 
588	 0.143480712943106 
589	 0.14320201469103 
590	 0.142826314768126 
591	 0.142632525088937 
592	 0.142686440050304 
593	 0.142921476998882 
594	 0.143040951673396 
595	 0.142919435526463 
596	 0.143057221646025 
597	 0.143544481895978 
598	 0.144480292070133 
599	 0.144712701926509 
600	 0.144125802009042 
601	 0.143976761490783 
602	 0.144100650204138 
603	 0.144292361996095 
604	 0.144368550811831 
605	 0.144347464741437 
606	 0.144398955118226 
607	 0.144430359120043 
608	 0.144376082637078 
609	 0.144105345195417 
610	 0.143701023259445 
611	 0.143284946745238 
612	 0.143102932715142 
613	 0.143015819654257 
614	 0.142300495726351 
615	 0.141746570241496 
616	 0.141783715944695 
617	 0.141700884119657 
618	 0.141284068411893 
619	 0.140232235362079 
620	 0.140554532620429 
621	 0.142168147781458 
622	 0.141953362744672 
623	 0.141039438690886 
624	 0.140560071176383 
625	 0.140340042843473 
626	 0.140411699797635 
627	 0.140880448597099 
628	 0.141218059009579 
629	 0.141261987142834 
630	 0.14168622020741 
631	 0.14187325981638 
632	 0.141023418564179 
633	 0.14063919279346 
634	 0.140981268593669 
635	 0.141643478286693 
636	 0.141978315101307 
637	 0.141691077128549 
638	 0.141962836677346 
639	 0.14248350297826 
640	 0.14240153630888 
641	 0.142517072941283 
642	 0.142916401592908 
643	 0.142852030119117 
644	 0.142879271901542 
645	 0.143440732024723 
646	 0.143406152610461 
647	 0.142912628224584 
648	 0.142917860601146 
649	 0.142803892923035 
650	 0.142393746823918 
651	 0.142019821613559 
652	 0.141781489625499 
653	 0.141751697256345 
654	 0.141452934363369 
655	 0.140612463614923 
656	 0.138893910581654 
657	 0.137178349961179 
658	 0.136075840221347 
659	 0.135292509011612 
660	 0.134395881950334 
661	 0.132774043214772 
662	 0.131435695274072 
663	 0.130477359373511 
664	 0.129039292516464 
665	 0.127236824309461 
666	 0.125267411890663 
667	 0.124044411267403 
668	 0.12346325028301 
669	 0.122951466327829 
670	 0.12183846670499 
671	 0.120166919653814 
672	 0.119907598239803 
673	 0.120126546343526 
674	 0.11958559794783 
675	 0.119158544053905 
676	 0.119061506192654 
677	 0.119343895044625 
678	 0.119798849329941 
679	 0.120337650977494 
680	 0.121239858889248 
681	 0.122295944428883 
682	 0.123125413856659 
683	 0.124391048785505 
684	 0.12624244327533 
685	 0.12861348143656 
686	 0.131029894350124 
687	 0.133081830468294 
688	 0.135938474911397 
689	 0.139307847606303 
690	 0.142657679871995 
691	 0.146243299804697 
692	 0.150162340825071 
693	 0.154384050987759 
694	 0.158258379874519 
695	 0.161009849226498 
696	 0.164188774368016 
697	 0.167797530534412 
698	 0.171099769854449 
699	 0.174131878630702 
700	 0.176868892517814 
701	 0.179610388695256 
702	 0.182325248953307 
703	 0.184947506434995 
704	 0.187072887126536 
705	 0.18883158730659 
706	 0.190844164365548 
707	 0.193063360884293 
708	 0.19537200442584 
709	 0.197140730155853 
710	 0.198574687699261 
711	 0.200215510906307 
712	 0.201787946307932 
713	 0.203189169610108 
714	 0.204398532037212 
715	 0.205251508329063 
716	 0.205674076201956 
717	 0.206498953823905 
718	 0.207774390659188 
719	 0.208709157974799 
720	 0.20976227569691 
721	 0.210925702649484 
722	 0.211764163742274 
723	 0.212663489239136 
724	 0.21399788759054 
725	 0.215041675133232 
726	 0.215681345581209 
727	 0.216434231302006 
728	 0.216963832922703 
729	 0.217288064156563 
730	 0.218653234700551 
731	 0.220172856525229 
732	 0.220484900526226 
733	 0.220727565048997 
734	 0.221244291505858 
735	 0.222183566553235 
736	 0.223144840461168 
737	 0.223856920934966 
738	 0.224770318180145 
739	 0.225754568720313 
740	 0.226495769274042 
741	 0.226766664311013 
742	 0.22668395095354 
743	 0.227006726719624 
744	 0.227603405675058 
745	 0.228288986913523 
746	 0.228436616813064 
747	 0.228337555510394 
748	 0.228932255662657 
749	 0.229775876016651 
750	 0.230584876359521 
751	 0.230688984628381 
752	 0.230916785041805 
753	 0.232124454984693 
754	 0.232525257250876 
755	 0.232192636510763 
756	 0.232625559748692 
757	 0.231887319949376 
758	 0.229375066034473 
759	 0.228168771810592 
760	 0.229407471305608 
761	 0.234228285015587 
762	 0.236409842691366 
763	 0.235786454292129 
764	 0.237358004744712 
765	 0.238503880508839 
766	 0.238470215966865 
767	 0.238497449881776 
768	 0.238398678249248 
769	 0.237777331023686 
770	 0.237737845076091 
771	 0.238500658732205 
772	 0.239846826065506 
773	 0.240729474740925 
774	 0.240547839909279 
775	 0.240724260141478 
776	 0.241121614001897 
777	 0.241082407018261 
778	 0.241295060814966 
779	 0.241915017465776 
780	 0.24272321124271 
781	 0.243266933645018 
782	 0.243258038784759 
783	 0.243600359697737 
784	 0.244188402632157 
785	 0.244498121038999 
786	 0.244482411121116 
787	 0.244235153770557 
788	 0.244271365054528 
789	 0.244664681030706 
790	 0.245413388857886 
791	 0.245962685311418 
792	 0.246357417587339 
793	 0.247078144084662 
794	 0.247355355130427 
795	 0.247091372340217 
796	 0.247318982020867 
797	 0.247478575793362 
798	 0.247048268926048 
799	 0.247888265891064 
800	 0.24948823707926 
801	 0.249532832843117 
802	 0.249248711128674 
803	 0.249223928067958 
804	 0.250039121941155 
805	 0.250754911242164 
806	 0.250389533076537 
807	 0.250762583219254 
808	 0.251711621832 
809	 0.251662907141957 
810	 0.251632918548584 
811	 0.251874418580466 
812	 0.25115219613074 
813	 0.250258024019545 
814	 0.250392152885178 
815	 0.251832134030007 
816	 0.253992350214924 
817	 0.254867283117747 
818	 0.255298609469853 
819	 0.255609133676213 
820	 0.25529488495792 
821	 0.255410387097962 
822	 0.257163841435878 
823	 0.258670346928352 
824	 0.259236008322912 
825	 0.258445032250379 
826	 0.257944330999757 
827	 0.258333968239277 
828	 0.258409070455933 
829	 0.258272322738463 
830	 0.258218430518717 
831	 0.259775895432768 
832	 0.261838187303991 
833	 0.260250049622382 
834	 0.259313555717976 
835	 0.260479960752741 
836	 0.260405125632893 
837	 0.260239317105215 
838	 0.261506595700777 
839	 0.262124643145364 
840	 0.262000006494075 
841	 0.262037613288158 
842	 0.262909431537157 
843	 0.264504862111164 
844	 0.264307878201723 
845	 0.263238810605426 
846	 0.262591979532963 
847	 0.262383973808256 
848	 0.262475034632666 
849	 0.262255024610258 
850	 0.262446950941489 
851	 0.263301083602601 
852	 0.264465288105241 
853	 0.265256152212401 
854	 0.265088271218186 
855	 0.266135582948564 
856	 0.267451317260462 
857	 0.265370782333216 
858	 0.264796345943745 
859	 0.26649688237834 
860	 0.265072258288161 
861	 0.263544732992906 
862	 0.264873714079194 
863	 0.265264757424356 
864	 0.265028282763019 
865	 0.266555247557623 
866	 0.268009928966115 
867	 0.268603793013113 
868	 0.267947510629924 
869	 0.267510616258542 
870	 0.268306734703937 
871	 0.267752990505455 
872	 0.266641233705651 
873	 0.267197418646015 
874	 0.268231543181479 
875	 0.269480228248601 
876	 0.271474875767427 
877	 0.272713223713562 
878	 0.2723802475284 
879	 0.272899461809427 
880	 0.27408075034904 
881	 0.275035365130571 
882	 0.27577799438728 
883	 0.276391722001728 
884	 0.27733454501472 
885	 0.277948384426918 
886	 0.278033636467004 
887	 0.279081774936888 
888	 0.279921801919089 
889	 0.278860560241675 
890	 0.277157082433318 
891	 0.27563749727466 
892	 0.275835312464706 
893	 0.275595998942833 
894	 0.274364755120873 
895	 0.275394208849466 
896	 0.27769977316357 
897	 0.279744456055361 
898	 0.282013897200577 
899	 0.284535083765236 
900	 0.287763881702537 
901	 0.287433973485254 
902	 0.283520488720243 
903	 0.282365119511473 
904	 0.281715783976288 
905	 0.280089320348989 
906	 0.281580026326579 
907	 0.284833426665885 
908	 0.286500714754262 
909	 0.285312046233922 
910	 0.282663931452475 
911	 0.285552474277609 
912	 0.28882621217442 
913	 0.289393770311449 
914	 0.288192155588395 
915	 0.287893381154945 
916	 0.291371592094865 
917	 0.291749661061155 
918	 0.289065366724051 
919	 0.287429851949014 
920	 0.286211622523998 
921	 0.285217919837928 
922	 0.283560808371545 
923	 0.283247147816476 
924	 0.285609238847261 
925	 0.28476194437577 
926	 0.280828658228513 
927	 0.276155297637391 
928	 0.277001458184809 
929	 0.283300283568794 
930	 0.280819714140121 
931	 0.276688425945495 
932	 0.277701817014108 
933	 0.285315344908297 
934	 0.293970090588091 
935	 0.295185783173654 
936	 0.290773089485353 
937	 0.284661250805269 
938	 0.284080308903592 
939	 0.287371733236356 
940	 0.291502295260654 
941	 0.286213067729178 
942	 0.281428672058058 
943	 0.284154174668722 
944	 0.286275690448916 
945	 0.287135548626664 
946	 0.28753508939664 
947	 0.28627188721134 
948	 0.284282780487665 
949	 0.285905037467831 
950	 0.283780944883441 
951	 0.276889958949265 
952	 0.278442156908568 
953	 0.280997273115262 
954	 0.277881986815962 
955	 0.279662823600154 
956	 0.284794564193495 
957	 0.28756410014348 
958	 0.291846424568135 
959	 0.295782093552707 
960	 0.289796300579019 
961	 0.28854561686855 
962	 0.295993321096635 
963	 0.292079417399888 
964	 0.286265603967331 
965	 0.288328670165975 
966	 0.286592480877877 
967	 0.281804123839935 
968	 0.278697572709687 
969	 0.281238081216604 
970	 0.287109880067205 
971	 0.283266734356494 
972	 0.279527607490552 
973	 0.281547944919813 
974	 0.287718999075352 
975	 0.294444925666298 
976	 0.297847747239518 
977	 0.298435128533624 
978	 0.295583648464582 
979	 0.287247366943196 
980	 0.285409503565876 
981	 0.291154024576416 
982	 0.293411228850501 
983	 0.29329595956765 
984	 0.291271712604711 
985	 0.28582870214761 
986	 0.284033887455 
987	 0.292563707749273 
988	 0.296572493852743 
989	 0.294814008743015 
990	 0.290499619915914 
991	 0.292347552443203 
992	 0.298825310347679 
993	 0.293860396215345 
994	 0.289315900854176 
995	 0.290762972506697 
996	 0.292823741379391 
997	 0.293734580406864 
998	 0.2923188046343 
999	 0.291396583253876 
1000	 0.291117151437389 
1001	 0.290718035689386 
1002	 0.291278419061879 
1003	 0.29326525066029 
1004	 0.297042974349838 
1005	 0.302463297203105 
1006	 0.307363197065291 
1007	 0.302569982731159 
1008	 0.299778812788153 
1009	 0.306367336457641 
1010	 0.300762918642104 
1011	 0.292848765537401 
1012	 0.299887431114868 
1013	 0.298805542601231 
1014	 0.293343716853301 
1015	 0.305648591538387 
1016	 0.307090012809067 
1017	 0.295115936368191 
1018	 0.296382398306415 
1019	 0.302440574045191 
1020	 0.30685129125754 
1021	 0.302776718709154 
1022	 0.293390220969962 
1023	 0.283988016091899 
1024	 0.285499671183886 
1025	 0.294737204378941 
1026	 0.303212870429684 
1027	 0.29958692288375 
1028	 0.285839966560654 
1029	 0.277599880660744 
1030	 0.275490525441845 
1031	 0.280908073049516 
1032	 0.295998369380539 
1033	 0.308731682038863 
1034	 0.310733408338606 
1035	 0.305272685230661 
1036	 0.296551309762303 
1037	 0.290484044925597 
1038	 0.300601967483721 
1039	 0.316325259904315 
1040	 0.315928474971402 
1041	 0.312159002204079 
1042	 0.305700209823892 
1043	 0.288578802077738 
1044	 0.279827191630118 
1045	 0.285091792965177 
1046	 0.294926278309714 
1047	 0.298643565294675 
1048	 0.288752468638825 
1049	 0.261906428372093 
1050	 0.251797820828856 
1051	 0.285414212104039 
1052	 0.292469767448629 
1053	 0.285916983578001 
1054	 0.300632860818564 
1055	 0.301025626456049 
1056	 0.293483922227561 
1057	 0.310954933483508 
1058	 0.308069740722153 
1059	 0.286754798326823 
1060	 0.300097072705713 
1061	 0.331026353487002 
1062	 0.35745805361713 
1063	 0.315482060375662 
1064	 0.277314526906334 
1065	 0.2920938171502 
1066	 0.302823602848001 
1067	 0.291171490836532 
1068	 0.248764530036321 
1069	 0.254606680471021 
1070	 0.292586190557122 
1071	 0.313833215545261 
1072	 0.287963728529733 
1073	 0.250116291013982 
1074	 0.29153591333043 
1075	 0.286987795908489 
