Wavelength	SHSI00079.asd
325	 8.88244965609936E-02 
326	 9.20281052482552E-02 
327	 9.67034906812198E-02 
328	 9.97870676946145E-02 
329	 9.92521675937027E-02 
330	 9.50677535802514E-02 
331	 8.95856237980787E-02 
332	 8.79739753483491E-02 
333	 0.094105020486841 
334	 9.35236520318909E-02 
335	 0.088871790136939 
336	 9.26274012089949E-02 
337	 9.50485060817467E-02 
338	 9.34408335189914E-02 
339	 8.90830231628165E-02 
340	 0.087330942449361 
341	 9.17706608103731E-02 
342	 9.26832715091231E-02 
343	 9.13271023079442E-02 
344	 9.30771186415785E-02 
345	 9.37741183867998E-02 
346	 9.30309910348777E-02 
347	 9.37724038223312E-02 
348	 9.38675003228978E-02 
349	 9.21632082029427E-02 
350	 9.13943117443906E-02 
351	 9.24707011397048E-02 
352	 9.63400998473753E-02 
353	 9.82907865518832E-02 
354	 9.80553100188384E-02 
355	 0.099761486297736 
356	 0.100435847982835 
357	 9.86882246047333E-02 
358	 0.098414425025672 
359	 9.92682301489346E-02 
360	 9.99770879985245E-02 
361	 0.100724240313409 
362	 0.100921053679768 
363	 9.85038559556337E-02 
364	 0.097286864973223 
365	 0.098916314064058 
366	 9.99897597666658E-02 
367	 9.98256772764186E-02 
368	 9.80241997923625E-02 
369	 9.92643039982933E-02 
370	 0.10255243207896 
371	 0.100734701578731 
372	 9.93054133997318E-02 
373	 0.100696838753848 
374	 0.099749982966033 
375	 9.79430030586239E-02 
376	 9.79828195466437E-02 
377	 9.72489730881945E-02 
378	 9.59207914250964E-02 
379	 9.65221680544171E-02 
380	 9.72349693910725E-02 
381	 9.70149090992563E-02 
382	 9.55422423531031E-02 
383	 9.43088515040519E-02 
384	 9.52315589388571E-02 
385	 9.44532130992067E-02 
386	 9.23290382049034E-02 
387	 9.28373576882964E-02 
388	 0.093557516103702 
389	 0.093379297292675 
390	 9.27013411539076E-02 
391	 9.22381721606074E-02 
392	 9.27326882802987E-02 
393	 9.27796710176105E-02 
394	 9.20373453824273E-02 
395	 9.03517117200418E-02 
396	 8.96001587934591E-02 
397	 0.090076293302037 
398	 8.87362733467753E-02 
399	 0.086774554786003 
400	 8.56151692445582E-02 
401	 8.57557806834783E-02 
402	 8.69220739130383E-02 
403	 8.85930673839214E-02 
404	 8.91117415311766E-02 
405	 8.80450614002996E-02 
406	 8.76062735447726E-02 
407	 8.72067410941948E-02 
408	 8.58925153765124E-02 
409	 8.49616480908398E-02 
410	 8.46780523577188E-02 
411	 8.49277574733141E-02 
412	 8.49735581766317E-02 
413	 8.46010800977811E-02 
414	 8.50431655931598E-02 
415	 8.55032998146114E-02 
416	 0.084839744479761 
417	 0.084353353316366 
418	 8.42898859746159E-02 
419	 8.44241121522757E-02 
420	 8.44086005098194E-02 
421	 8.41049489733099E-02 
422	 8.40562844875141E-02 
423	 8.40791375667346E-02 
424	 8.38019551560994E-02 
425	 8.41005014407393E-02 
426	 8.47870389872916E-02 
427	 8.44200875543285E-02 
428	 8.37915722382871E-02 
429	 8.34787694367826E-02 
430	 8.37135407438332E-02 
431	 8.37673702855904E-02 
432	 8.23806843842599E-02 
433	 8.15383892343381E-02 
434	 8.16358565524843E-02 
435	 8.18721146579943E-02 
436	 8.22683727961562E-02 
437	 0.082789105284293 
438	 8.30646961216414E-02 
439	 8.30209553837405E-02 
440	 8.25981295001898E-02 
441	 8.24644610106751E-02 
442	 8.26592768860872E-02 
443	 8.22601094828619E-02 
444	 8.21307824150063E-02 
445	 8.29102234317429E-02 
446	 8.34308243168982E-02 
447	 8.36083019028284E-02 
448	 0.083704589276968 
449	 0.0838657863856 
450	 8.41437863371982E-02 
451	 8.44217204195527E-02 
452	 8.46670578781782E-02 
453	 8.48623049444961E-02 
454	 8.51396818996961E-02 
455	 8.54596698388881E-02 
456	 8.56211520928383E-02 
457	 8.58995361754643E-02 
458	 8.62893668526824E-02 
459	 8.60816050570685E-02 
460	 8.57816874841132E-02 
461	 8.60404695732238E-02 
462	 8.63741137486485E-02 
463	 8.66176331261567E-02 
464	 8.65781596234723E-02 
465	 8.67867405420124E-02 
466	 8.74176637933025E-02 
467	 8.75466027193231E-02 
468	 8.75529652153766E-02 
469	 0.08814397627589 
470	 8.82574108124333E-02 
471	 8.79069362018098E-02 
472	 8.81063446198311E-02 
473	 8.85119139013163E-02 
474	 8.89011258946938E-02 
475	 8.94053636925634E-02 
476	 8.97820957017408E-02 
477	 8.95953613017993E-02 
478	 8.95252835564491E-02 
479	 8.96648472017049E-02 
480	 8.94281603849609E-02 
481	 8.92703969317168E-02 
482	 0.089571209107646 
483	 9.01797562392784E-02 
484	 9.08083215432986E-02 
485	 0.090870838296668 
486	 9.08369763247916E-02 
487	 9.08019517029397E-02 
488	 9.03310608572837E-02 
489	 8.98365976879199E-02 
490	 8.97502846496515E-02 
491	 8.98427254409324E-02 
492	 9.01154879179261E-02 
493	 9.07553200184203E-02 
494	 9.11890682902044E-02 
495	 9.12413041384021E-02 
496	 9.15844647986806E-02 
497	 0.092101701151631 
498	 9.25612202949211E-02 
499	 9.30971595715634E-02 
500	 9.36685348708804E-02 
501	 9.40922987506227E-02 
502	 9.43494703497514E-02 
503	 9.44900480155716E-02 
504	 9.49122435514479E-02 
505	 9.56575678909039E-02 
506	 0.096715504194317 
507	 9.75795786043396E-02 
508	 9.81642308887312E-02 
509	 9.88318575632909E-02 
510	 9.95094306133726E-02 
511	 0.100155953627529 
512	 0.10105916172318 
513	 0.102120681647308 
514	 0.102993302219673 
515	 0.103963298470518 
516	 0.105043375574903 
517	 0.105829229592969 
518	 0.106328657949662 
519	 0.106608266312283 
520	 0.107035510410649 
521	 0.107721974187692 
522	 0.108723790016826 
523	 0.109750051851215 
524	 0.110647293402783 
525	 0.111394759358019 
526	 0.112176975648099 
527	 0.113251722586278 
528	 0.114085939014612 
529	 0.11465502269856 
530	 0.115383948485485 
531	 0.116255378535105 
532	 0.11724198949745 
533	 0.11812893333255 
534	 0.118977712431653 
535	 0.119995887778818 
536	 0.120865040366091 
537	 0.121573599735375 
538	 0.122561754009804 
539	 0.123550243189263 
540	 0.12424793031914 
541	 0.124731508338969 
542	 0.125204531510529 
543	 0.126149679828059 
544	 0.127113453185183 
545	 0.127936162352204 
546	 0.128915622559623 
547	 0.129876983688803 
548	 0.1305649544273 
549	 0.131064625231434 
550	 0.131564992568138 
551	 0.132603044716407 
552	 0.133648245680904 
553	 0.134360211360191 
554	 0.134948684207764 
555	 0.135541201038709 
556	 0.136324438034978 
557	 0.137067883341539 
558	 0.137664435079783 
559	 0.138005632039904 
560	 0.138363119895105 
561	 0.138971967382658 
562	 0.139459353004943 
563	 0.139808830597967 
564	 0.140187478537469 
565	 0.140420766511496 
566	 0.140491233267081 
567	 0.140695370374024 
568	 0.141058907530821 
569	 0.141571921246637 
570	 0.141703715881711 
571	 0.141485823806652 
572	 0.141522601306648 
573	 0.141593700758941 
574	 0.141588886907865 
575	 0.141691894852312 
576	 0.141887446709005 
577	 0.142128840320892 
578	 0.142066834559742 
579	 0.141760224022077 
580	 0.141978977275262 
581	 0.142322061122094 
582	 0.142420281019607 
583	 0.142545409197832 
584	 0.142726388907302 
585	 0.142959803888646 
586	 0.143002024046907 
587	 0.142807092006023 
588	 0.142818999056793 
589	 0.142834771558337 
590	 0.142543256969615 
591	 0.142561885460774 
592	 0.142890680591751 
593	 0.142982308418114 
594	 0.143287847362346 
595	 0.143945596104803 
596	 0.14386807180464 
597	 0.143463488478985 
598	 0.143688183534118 
599	 0.144030081809313 
600	 0.144226949287804 
601	 0.143825740837753 
602	 0.143368791373792 
603	 0.143337982866839 
604	 0.143347066206638 
605	 0.143232230937042 
606	 0.1427530523008 
607	 0.142282318521152 
608	 0.141953700968051 
609	 0.141587811436905 
610	 0.141034966629368 
611	 0.140137554140619 
612	 0.139590253955234 
613	 0.13943308359212 
614	 0.139207333089593 
615	 0.138759667630277 
616	 0.138020526296667 
617	 0.137315083887344 
618	 0.13676682447118 
619	 0.136461908439907 
620	 0.136414431895844 
621	 0.136480099020347 
622	 0.136112479572384 
623	 0.135581129984686 
624	 0.135191301430784 
625	 0.13541228560163 
626	 0.135949197294271 
627	 0.135852839458229 
628	 0.135555705851354 
629	 0.135241757480865 
630	 0.134970274091184 
631	 0.134881878146055 
632	 0.135122628327579 
633	 0.135209250337373 
634	 0.135182391899676 
635	 0.135676981860308 
636	 0.13585930862483 
637	 0.135336890196037 
638	 0.135215766808368 
639	 0.135428113458971 
640	 0.135602250567485 
641	 0.135487954595888 
642	 0.135189450874888 
643	 0.13559817946429 
644	 0.136019697508322 
645	 0.135847788637412 
646	 0.135821685293953 
647	 0.135846477762145 
648	 0.135359058308476 
649	 0.134581859588378 
650	 0.133709394282435 
651	 0.133217157712111 
652	 0.132865510753579 
653	 0.13230817658738 
654	 0.13142760607319 
655	 0.130225735152477 
656	 0.129156230790112 
657	 0.127575020618255 
658	 0.125328646466577 
659	 0.12355032298252 
660	 0.1219947590734 
661	 0.120105349345698 
662	 0.117999584150253 
663	 0.115791928759687 
664	 0.11378251522589 
665	 0.112046188287841 
666	 0.110623581189553 
667	 0.109359353358634 
668	 0.10814424951522 
669	 0.106761817272936 
670	 0.105655647251267 
671	 0.104986112624551 
672	 0.104603550583753 
673	 0.104307522751666 
674	 0.103891576570263 
675	 0.103814793630757 
676	 0.10403563640894 
677	 0.104054717676439 
678	 0.104366269852946 
679	 0.105213933454826 
680	 0.106266678787729 
681	 0.107465355962589 
682	 0.108778926258739 
683	 0.110404691941938 
684	 0.112421132976944 
685	 0.114999538231453 
686	 0.117879048185316 
687	 0.120822232404721 
688	 0.12439970242028 
689	 0.128321501051951 
690	 0.132540197518551 
691	 0.136560208614555 
692	 0.140454357160641 
693	 0.144976468523065 
694	 0.149747358984161 
695	 0.154120436196877 
696	 0.158325384770302 
697	 0.162451407140183 
698	 0.166884253074657 
699	 0.171083246481007 
700	 0.174721541644448 
701	 0.178118567686577 
702	 0.181423709625886 
703	 0.184815603539869 
704	 0.187895436463236 
705	 0.190630745340737 
706	 0.193104492867934 
707	 0.195418961609433 
708	 0.197636144493328 
709	 0.199648894581209 
710	 0.201484408377021 
711	 0.203195497975931 
712	 0.205078621248602 
713	 0.207044247676957 
714	 0.208287399138333 
715	 0.209386494196674 
716	 0.210974403616932 
717	 0.21279257014972 
718	 0.214560910506002 
719	 0.215328787137044 
720	 0.215925867680752 
721	 0.216703477284766 
722	 0.217633958714782 
723	 0.218669888562555 
724	 0.219685852896527 
725	 0.220408316559837 
726	 0.220885537291411 
727	 0.221637308173309 
728	 0.222601491867402 
729	 0.223628056760786 
730	 0.223951231838767 
731	 0.223942304854478 
732	 0.224226858746343 
733	 0.224559966935265 
734	 0.224856394650213 
735	 0.224904021803902 
736	 0.225195213917053 
737	 0.225980664803944 
738	 0.226404498984029 
739	 0.226687271748427 
740	 0.227516947949491 
741	 0.2278455016077 
742	 0.227568793141509 
743	 0.227628158067568 
744	 0.228033812763999 
745	 0.228722300769085 
746	 0.229133185984511 
747	 0.229235131732662 
748	 0.229182483028991 
749	 0.229401065213775 
750	 0.229965013837417 
751	 0.230286861128503 
752	 0.230313636513076 
753	 0.230073396701895 
754	 0.230268497507164 
755	 0.230849365526808 
756	 0.23135636142089 
757	 0.231046928040774 
758	 0.229875112098862 
759	 0.231251589933308 
760	 0.2353443273661 
761	 0.236806762586879 
762	 0.236994050044185 
763	 0.236943641637131 
764	 0.237372503494515 
765	 0.237064588307991 
766	 0.235968901012554 
767	 0.235562080999708 
768	 0.235482486344278 
769	 0.235239170445792 
770	 0.23507734244198 
771	 0.23508312110203 
772	 0.235342691758615 
773	 0.235764905085712 
774	 0.236232047610357 
775	 0.236313170966507 
776	 0.236351588718783 
777	 0.237111228410756 
778	 0.237440140452748 
779	 0.237168575050403 
780	 0.237193260642239 
781	 0.237219992741603 
782	 0.237044652911213 
783	 0.237218364302963 
784	 0.237604194343728 
785	 0.237699910290786 
786	 0.238005847633615 
787	 0.238570377174346 
788	 0.23882484532479 
789	 0.238977447225757 
790	 0.239232313442283 
791	 0.239271048109356 
792	 0.239294177496763 
793	 0.240013481776688 
794	 0.240057399048569 
795	 0.239296379373403 
796	 0.239831342648908 
797	 0.240436225737769 
798	 0.239847310601519 
799	 0.239872316697523 
800	 0.240484595569081 
801	 0.240635338742628 
802	 0.240809961199809 
803	 0.241148521712202 
804	 0.241491212906861 
805	 0.241746690951224 
806	 0.241837036870423 
807	 0.241809892707647 
808	 0.241798645031606 
809	 0.24211039505283 
810	 0.242578122865189 
811	 0.243033552985369 
812	 0.242886939432688 
813	 0.242819237695371 
814	 0.243781694252862 
815	 0.245010506901577 
816	 0.24602100179191 
817	 0.246049543592734 
818	 0.24622600252865 
819	 0.246909647963786 
820	 0.24693875768239 
821	 0.246944588462149 
822	 0.247725900282562 
823	 0.248031802801094 
824	 0.247821468288038 
825	 0.24787071236955 
826	 0.247771769379763 
827	 0.247520655983035 
828	 0.248075898077228 
829	 0.248830802569857 
830	 0.248928086370569 
831	 0.24842936100322 
832	 0.247806808256192 
833	 0.248269243387826 
834	 0.249096832728896 
835	 0.249756550820169 
836	 0.249230599642357 
837	 0.24848010093465 
838	 0.248636754325643 
839	 0.248053333144718 
840	 0.24704800427058 
841	 0.247456651515093 
842	 0.248082219210153 
843	 0.248312909819869 
844	 0.247783411322248 
845	 0.247396103474509 
846	 0.248126589471497 
847	 0.248098820362152 
848	 0.247367414064803 
849	 0.247234348441895 
850	 0.247290402744284 
851	 0.247405649843551 
852	 0.247569406499117 
853	 0.247994439736468 
854	 0.248800803043284 
855	 0.248117169886483 
856	 0.246640997087915 
857	 0.247058474470401 
858	 0.247197554207597 
859	 0.246576546025535 
860	 0.246614230439336 
861	 0.246906351807295 
862	 0.24695693525345 
863	 0.246202397816871 
864	 0.245329721903605 
865	 0.246192495501112 
866	 0.247196502007061 
867	 0.247632958673324 
868	 0.246997069224816 
869	 0.246914797276535 
870	 0.248502307177528 
871	 0.248838134068967 
872	 0.248673099092185 
873	 0.250385019151384 
874	 0.251390436252155 
875	 0.25126235479976 
876	 0.251626358415249 
877	 0.252279935378271 
878	 0.252972924073272 
879	 0.25288763790464 
880	 0.252909346045974 
881	 0.25464352122064 
882	 0.255469461301892 
883	 0.255152779735059 
884	 0.255508795541814 
885	 0.256126052699932 
886	 0.25680822309458 
887	 0.257720186625578 
888	 0.258645074797034 
889	 0.259285029968237 
890	 0.258922788509193 
891	 0.258012258622772 
892	 0.25835178133024 
893	 0.259548843160566 
894	 0.261285793393091 
895	 0.26267605958656 
896	 0.263714920208869 
897	 0.264424079379182 
898	 0.263826730612636 
899	 0.262971581282259 
900	 0.264932718933559 
901	 0.266063805401369 
902	 0.265465324155362 
903	 0.265111857923063 
904	 0.264607351782961 
905	 0.263771402535591 
906	 0.264164949435227 
907	 0.265267527731763 
908	 0.265766489134213 
909	 0.265983293447097 
910	 0.266334155933642 
911	 0.268336749048974 
912	 0.269306261810742 
913	 0.267947139132617 
914	 0.266714251192763 
915	 0.267147019435696 
916	 0.270433963695766 
917	 0.269445484622117 
918	 0.265587420924554 
919	 0.266718496255843 
920	 0.268146247016377 
921	 0.268253665453818 
922	 0.267722568655309 
923	 0.266115000617422 
924	 0.263457437414332 
925	 0.265143352137963 
926	 0.268202586827406 
927	 0.263893543842226 
928	 0.261081064583473 
929	 0.262874700468022 
930	 0.267464787495368 
931	 0.269868121633371 
932	 0.266592019483458 
933	 0.269214394558834 
934	 0.273483810450886 
935	 0.270939135312334 
936	 0.273648011390063 
937	 0.279791164684595 
938	 0.277836701812117 
939	 0.27364966014663 
940	 0.269960692629925 
941	 0.269633948465215 
942	 0.270343438399988 
943	 0.270022466314908 
944	 0.266335033836673 
945	 0.264790962998354 
946	 0.274151823154209 
947	 0.276445810355416 
948	 0.27033620079505 
949	 0.266933006871284 
950	 0.265654255378181 
951	 0.266250291385423 
952	 0.267391570618749 
953	 0.267669963946668 
954	 0.265968694485278 
955	 0.262138655751505 
956	 0.259562846554159 
957	 0.264114417809916 
958	 0.264470308798872 
959	 0.259808987411847 
960	 0.256775438405723 
961	 0.259679435056869 
962	 0.267689427915432 
963	 0.265523759279275 
964	 0.260044656391801 
965	 0.259311622649655 
966	 0.262780132972226 
967	 0.267145901423998 
968	 0.266246112073294 
969	 0.265025972325692 
970	 0.264716700520228 
971	 0.264640718716612 
972	 0.263209352456205 
973	 0.260881580248497 
974	 0.266451067386071 
975	 0.271938775391569 
976	 0.268059560895203 
977	 0.265909733024249 
978	 0.265662860852085 
979	 0.262635173229414 
980	 0.263460583395709 
981	 0.26774164504924 
982	 0.266580552793997 
983	 0.265947479427611 
984	 0.268387982403355 
985	 0.268058250230277 
986	 0.267138186873649 
987	 0.26802122258191 
988	 0.262988427065663 
989	 0.256468899863148 
990	 0.260023308950019 
991	 0.262781352963179 
992	 0.263748649373847 
993	 0.271908822708796 
994	 0.273959165487927 
995	 0.265286033313 
996	 0.260718599954033 
997	 0.260711814673292 
998	 0.26393878072055 
999	 0.265969523420401 
1000	 0.267299173467533 
1001	 0.270357784339621 
1002	 0.268243610107352 
1003	 0.262143204151573 
1004	 0.26066095895746 
1005	 0.263804160522252 
1006	 0.269447943275351 
1007	 0.266851546595046 
1008	 0.262512465182977 
1009	 0.262091828142648 
1010	 0.263926693770511 
1011	 0.267182679788567 
1012	 0.270757138782366 
1013	 0.272782796485337 
1014	 0.272423326128603 
1015	 0.26907969261431 
1016	 0.26335688638492 
1017	 0.259159204844341 
1018	 0.269750841460105 
1019	 0.279203949406824 
1020	 0.278481336640977 
1021	 0.272564843841267 
1022	 0.269191961079042 
1023	 0.274902218890978 
1024	 0.27738078755498 
1025	 0.274564568132133 
1026	 0.267013327442084 
1027	 0.268077733258454 
1028	 0.276367617199272 
1029	 0.277052113098267 
1030	 0.275398920438393 
1031	 0.273820550852201 
1032	 0.276253885778609 
1033	 0.277288674124578 
1034	 0.273789702931057 
1035	 0.268472253739836 
1036	 0.268646292460958 
1037	 0.279884568014878 
1038	 0.280361248329068 
1039	 0.271338932389262 
1040	 0.262175898170327 
1041	 0.256146327307187 
1042	 0.257929136616118 
1043	 0.278856216583108 
1044	 0.280128332011721 
1045	 0.260680428926319 
1046	 0.280118192089446 
1047	 0.28905155010698 
1048	 0.266296341863968 
1049	 0.28009738348253 
1050	 0.303759315065461 
1051	 0.30548735856997 
1052	 0.276676707921328 
1053	 0.247318714951924 
1054	 0.263563661145221 
1055	 0.284007352323475 
1056	 0.291199945882824 
1057	 0.268521195831937 
1058	 0.251870119224982 
1059	 0.257694816193396 
1060	 0.294602884997379 
1061	 0.311482340646203 
1062	 0.288995315569435 
1063	 0.261449782022869 
1064	 0.256315025373967 
1065	 0.28551931570018 
1066	 0.281729548214189 
1067	 0.270041739060971 
1068	 0.281622983154121 
1069	 0.274345806571766 
1070	 0.259344818610578 
1071	 0.265131263141868 
1072	 0.274648623852261 
1073	 0.278986473256875 
1074	 0.26751069196068 
1075	 0.264954622546436 
