Wavelength	SHSI00272.asd
325	 9.97471523222831E-02 
326	 9.32961089265394E-02 
327	 8.00586747052807E-02 
328	 8.53567589474563E-02 
329	 8.63437959874499E-02 
330	 7.73315749466955E-02 
331	 7.62074093043663E-02 
332	 7.94624891352281E-02 
333	 8.24594272007943E-02 
334	 8.18564243971987E-02 
335	 7.98837307489368E-02 
336	 8.35876495410425E-02 
337	 0.085204179342986 
338	 8.31325126336911E-02 
339	 8.07024306665644E-02 
340	 8.22340275692605E-02 
341	 8.98640839227447E-02 
342	 9.05295193384921E-02 
343	 8.73775755431768E-02 
344	 9.03614962699933E-02 
345	 9.14782625678318E-02 
346	 8.92332090775286E-02 
347	 8.56067897619134E-02 
348	 8.43377924358009E-02 
349	 0.087159374024827 
350	 8.74930323535771E-02 
351	 0.086723848538297 
352	 8.85223473292216E-02 
353	 8.79520647307956E-02 
354	 8.57241764319853E-02 
355	 8.91284632946047E-02 
356	 9.15523359549518E-02 
357	 8.95204346944802E-02 
358	 9.01547597833567E-02 
359	 9.19696696029122E-02 
360	 9.15360603631527E-02 
361	 9.03971952272375E-02 
362	 0.089060162958976 
363	 8.74938202308285E-02 
364	 8.77179896113845E-02 
365	 9.01182929405504E-02 
366	 8.97235274643382E-02 
367	 0.089008562271567 
368	 9.19791416910788E-02 
369	 9.27328579873392E-02 
370	 9.10181592533127E-02 
371	 9.04687026600082E-02 
372	 0.092321177078871 
373	 9.61288551818256E-02 
374	 9.40114493120918E-02 
375	 0.089235374963731 
376	 8.73893777775821E-02 
377	 8.79012202087774E-02 
378	 8.97148940860114E-02 
379	 8.97737254908825E-02 
380	 8.90353539308016E-02 
381	 8.84469732140776E-02 
382	 9.12237653820688E-02 
383	 9.35873862655989E-02 
384	 9.03653748749557E-02 
385	 0.089106178746113 
386	 9.01365791116451E-02 
387	 8.87317682092777E-02 
388	 8.70463944008909E-02 
389	 8.62197227791992E-02 
390	 8.68244558513877E-02 
391	 8.87324757747192E-02 
392	 9.16227695655527E-02 
393	 9.09033746901388E-02 
394	 8.74149916965775E-02 
395	 8.65021915250457E-02 
396	 0.086566405501402 
397	 8.67434301336187E-02 
398	 8.61943321269129E-02 
399	 8.56333103619753E-02 
400	 8.58070073664612E-02 
401	 8.56673142072143E-02 
402	 8.55232438659888E-02 
403	 8.67714641348145E-02 
404	 8.76354376530051E-02 
405	 8.74477327882644E-02 
406	 8.70380048918849E-02 
407	 8.70855195060142E-02 
408	 8.82629581688522E-02 
409	 8.82131134381773E-02 
410	 8.69646682948498E-02 
411	 8.59295181952053E-02 
412	 8.61577493228482E-02 
413	 0.087660085422936 
414	 0.086916459241926 
415	 8.59060465668665E-02 
416	 8.75774518437624E-02 
417	 8.81849763777203E-02 
418	 8.75017456716547E-02 
419	 8.76442644034378E-02 
420	 8.79668378046683E-02 
421	 8.81065197682634E-02 
422	 8.80333800584989E-02 
423	 8.77408941886205E-02 
424	 8.72301998924714E-02 
425	 0.086755950719557 
426	 8.65756966271733E-02 
427	 8.72257109687503E-02 
428	 8.82145207709084E-02 
429	 0.089020791265215 
430	 0.088682363228735 
431	 8.75096072332158E-02 
432	 8.61760746368569E-02 
433	 8.60389942553814E-02 
434	 8.68951568091396E-02 
435	 8.64160035525279E-02 
436	 8.65248584797903E-02 
437	 8.82642264439572E-02 
438	 8.86600253141192E-02 
439	 8.80611802408312E-02 
440	 8.78811114636061E-02 
441	 8.79172872385174E-02 
442	 8.81614199151563E-02 
443	 8.85165351289187E-02 
444	 8.91989546196276E-02 
445	 0.090262515577328 
446	 0.090207021772164 
447	 8.95449293795037E-02 
448	 0.089942174560925 
449	 9.04948188446565E-02 
450	 9.08879070330468E-02 
451	 9.10322584525345E-02 
452	 9.11339998276655E-02 
453	 9.14292381711871E-02 
454	 9.23298321427264E-02 
455	 9.33603561559969E-02 
456	 0.093038984780235 
457	 9.27218324561946E-02 
458	 9.28972186394079E-02 
459	 9.27899267383719E-02 
460	 9.28563668272389E-02 
461	 0.093664807999479 
462	 9.39258187596494E-02 
463	 9.36710491235792E-02 
464	 9.38952128125221E-02 
465	 9.45376296657895E-02 
466	 9.54662816096904E-02 
467	 9.59767004580392E-02 
468	 9.59363447544946E-02 
469	 9.53039990488176E-02 
470	 9.49603854910947E-02 
471	 9.51010705853664E-02 
472	 9.53219106876549E-02 
473	 9.58902396266641E-02 
474	 9.68033992816373E-02 
475	 9.67333555119942E-02 
476	 9.61101486069238E-02 
477	 9.59484149597262E-02 
478	 9.64644805462385E-02 
479	 9.74159479663322E-02 
480	 9.74022241533004E-02 
481	 0.097408085182319 
482	 0.098218205278242 
483	 9.89877971628822E-02 
484	 9.94330022804684E-02 
485	 9.92352521633768E-02 
486	 9.89927325390219E-02 
487	 9.88406563399767E-02 
488	 9.80895350284056E-02 
489	 0.097416198725893 
490	 9.75355246923275E-02 
491	 9.87259284466591E-02 
492	 0.100122883243511 
493	 9.92949562357631E-02 
494	 9.86715343816855E-02 
495	 0.099262460606618 
496	 0.100145615086055 
497	 0.10089295382213 
498	 0.101073795732828 
499	 0.101475835257717 
500	 0.102171689517662 
501	 0.102795383985549 
502	 0.102886404336336 
503	 0.102317487444357 
504	 0.102352900059712 
505	 0.1028520622605 
506	 0.10326821791094 
507	 0.103946038746652 
508	 0.104856133537218 
509	 0.105535570598373 
510	 0.106351542968668 
511	 0.107502733162755 
512	 0.1075956196642 
513	 0.10732474932785 
514	 0.108934084181472 
515	 0.110070791380822 
516	 0.110031817417365 
517	 0.110076590146987 
518	 0.110163966722854 
519	 0.110181531172961 
520	 0.110799383281756 
521	 0.111864509990219 
522	 0.11271462038523 
523	 0.113146105206988 
524	 0.113230305703516 
525	 0.114179441282716 
526	 0.115512998834602 
527	 0.116370961591625 
528	 0.116719007265964 
529	 0.116808389329055 
530	 0.117568492273761 
531	 0.118385979385101 
532	 0.118876025949508 
533	 0.119521259931317 
534	 0.120214090666612 
535	 0.120608496457938 
536	 0.121060707635425 
537	 0.12167736382094 
538	 0.122331962660589 
539	 0.123104134589597 
540	 0.124026171771915 
541	 0.124246741211215 
542	 0.124077670942255 
543	 0.124771921990162 
544	 0.125596237054798 
545	 0.126202893375914 
546	 0.126378082352344 
547	 0.126646584879416 
548	 0.127704019833078 
549	 0.128373400267333 
550	 0.128519772504294 
551	 0.128690241762643 
552	 0.1292358499904 
553	 0.130295405000798 
554	 0.130979026322241 
555	 0.131281304141012 
556	 0.131423077685973 
557	 0.131827780286339 
558	 0.13253732125302 
559	 0.133003923227613 
560	 0.133155184186265 
561	 0.133026253148921 
562	 0.133699949730766 
563	 0.134938034275686 
564	 0.135693881913838 
565	 0.135796335185611 
566	 0.135329710654261 
567	 0.13547822907349 
568	 0.136093993981968 
569	 0.136829187065387 
570	 0.137050204215974 
571	 0.136769084009442 
572	 0.13657903425951 
573	 0.136932117840696 
574	 0.137992076300413 
575	 0.138562581741202 
576	 0.138706501623863 
577	 0.13884395305904 
578	 0.139305284238563 
579	 0.140039618085545 
580	 0.140235319081297 
581	 0.140341581201121 
582	 0.140765548528996 
583	 0.141093393370534 
584	 0.141382033593309 
585	 0.141987468710791 
586	 0.142526537377322 
587	 0.142773225259663 
588	 0.142437342715528 
589	 0.14201268848135 
590	 0.142177051697038 
591	 0.142700664578613 
592	 0.143338611867468 
593	 0.143565721239792 
594	 0.14367843550001 
595	 0.143893382468888 
596	 0.144442332707135 
597	 0.145159050709281 
598	 0.145747114475518 
599	 0.14573305168884 
600	 0.145291082165865 
601	 0.145897217662469 
602	 0.146575932775456 
603	 0.1464714339129 
604	 0.146599175010866 
605	 0.146979134019849 
606	 0.147251497667377 
607	 0.147229171161581 
608	 0.146912811169157 
609	 0.146932090159982 
610	 0.147028912860998 
611	 0.146809950744558 
612	 0.146807803154362 
613	 0.146911909906766 
614	 0.14628958643339 
615	 0.145803618088833 
616	 0.145947531285432 
617	 0.146084880654372 
618	 0.146037585504758 
619	 0.145609499218912 
620	 0.145846539741915 
621	 0.146710474914631 
622	 0.146577396287931 
623	 0.14616512258468 
624	 0.146170867603071 
625	 0.14634151327538 
626	 0.146609816067568 
627	 0.146882394759373 
628	 0.147228764085389 
629	 0.147714432765803 
630	 0.14868297221966 
631	 0.149316260173222 
632	 0.148615053205664 
633	 0.148317300341102 
634	 0.148714786258759 
635	 0.149208058254886 
636	 0.149740189711542 
637	 0.150228527386553 
638	 0.150510622956953 
639	 0.150697762612172 
640	 0.151027822667321 
641	 0.151320856223597 
642	 0.151459407252014 
643	 0.151117483790468 
644	 0.151109502104662 
645	 0.152074395582246 
646	 0.152503013297945 
647	 0.152409596483103 
648	 0.152639816589787 
649	 0.152864039666548 
650	 0.152920120655826 
651	 0.152549647578478 
652	 0.152142125303577 
653	 0.152171618635102 
654	 0.152131295752792 
655	 0.151720344431887 
656	 0.150530570265325 
657	 0.148810718624621 
658	 0.147047585459902 
659	 0.146711060232881 
660	 0.146849901287502 
661	 0.145759079646116 
662	 0.144413283211667 
663	 0.143059108241471 
664	 0.141608602688347 
665	 0.14009209544494 
666	 0.138583972548216 
667	 0.137669040167062 
668	 0.13724458641636 
669	 0.136872903650733 
670	 0.136199553020991 
671	 0.135209675153187 
672	 0.134831800088267 
673	 0.134618636871008 
674	 0.133998850518803 
675	 0.1344897149326 
676	 0.135768976014878 
677	 0.1358370447361 
678	 0.135849611169564 
679	 0.136424507510211 
680	 0.13729075513778 
681	 0.138260932877987 
682	 0.139053380655338 
683	 0.140701062170505 
684	 0.143138085228778 
685	 0.144996396376867 
686	 0.146892508568809 
687	 0.149391672389883 
688	 0.152762801685697 
689	 0.156359019793882 
690	 0.159433443682704 
691	 0.162469664971642 
692	 0.165748405679485 
693	 0.169618010311928 
694	 0.173345026093982 
695	 0.176042184663073 
696	 0.17911663915055 
697	 0.182648836526796 
698	 0.186310486642202 
699	 0.189314129623385 
700	 0.191351456417954 
701	 0.193810902915589 
702	 0.196462737851758 
703	 0.198785719998924 
704	 0.200967238010222 
705	 0.203035732974786 
706	 0.204827360468703 
707	 0.206658775235982 
708	 0.208707693114167 
709	 0.210740833948491 
710	 0.212508869288441 
711	 0.213583135642133 
712	 0.214915466644579 
713	 0.216671101175845 
714	 0.218221518666588 
715	 0.219221024953005 
716	 0.219447819891748 
717	 0.219906195766323 
718	 0.220921918414793 
719	 0.222463539367377 
720	 0.223851945458051 
721	 0.224701184451617 
722	 0.224994399703889 
723	 0.225580991440779 
724	 0.227357932223551 
725	 0.228546435551524 
726	 0.229016075579332 
727	 0.230078705452714 
728	 0.231104320021108 
729	 0.231849709623004 
730	 0.232862421687783 
731	 0.233864640080979 
732	 0.234397527050548 
733	 0.235376851553004 
734	 0.236791331362236 
735	 0.237897730572395 
736	 0.238652175446513 
737	 0.239064200435729 
738	 0.239848448399287 
739	 0.240852610395856 
740	 0.241572901017227 
741	 0.242332901938791 
742	 0.243212694002728 
743	 0.244206017402536 
744	 0.244973615903949 
745	 0.245272440617055 
746	 0.24568118593201 
747	 0.246264389441003 
748	 0.246884566076294 
749	 0.247642595249301 
750	 0.248546328176497 
751	 0.249627517800397 
752	 0.250136189767818 
753	 0.24939373667779 
754	 0.24974561380622 
755	 0.251153672148455 
756	 0.252316453945484 
757	 0.251942451524425 
758	 0.249710751552596 
759	 0.249235846009987 
760	 0.251081431645425 
761	 0.253850365026072 
762	 0.254800731612961 
763	 0.254582443462884 
764	 0.256918296317761 
765	 0.258496797911004 
766	 0.258462658533139 
767	 0.2590638785348 
768	 0.259862626267802 
769	 0.260157495000166 
770	 0.260575254629963 
771	 0.261196969536265 
772	 0.261782075202878 
773	 0.262284893369769 
774	 0.262711834891207 
775	 0.263370685620206 
776	 0.264220938593833 
777	 0.265145883432294 
778	 0.265731878911304 
779	 0.265992321101959 
780	 0.26657053504991 
781	 0.267351120730965 
782	 0.268187883455817 
783	 0.268672103207305 
784	 0.269057214582323 
785	 0.270134721609239 
786	 0.270225363038691 
787	 0.269352946104419 
788	 0.270453420030723 
789	 0.271877231939387 
790	 0.271997550041241 
791	 0.272095352069508 
792	 0.27254417861862 
793	 0.273775129496835 
794	 0.274389066494739 
795	 0.274172186476693 
796	 0.275019908397315 
797	 0.275724897578621 
798	 0.275093171817626 
799	 0.27536917448528 
800	 0.276568314663078 
801	 0.277510106381047 
802	 0.278400196892473 
803	 0.279204357605603 
804	 0.279758711134055 
805	 0.279866449378193 
806	 0.279399175571614 
807	 0.279594955543752 
808	 0.280435448756585 
809	 0.281012723498047 
810	 0.28191891788464 
811	 0.282988684743007 
812	 0.281776461104444 
813	 0.28011794394907 
814	 0.280703193691688 
815	 0.282479950168558 
816	 0.284368774868001 
817	 0.283740122775994 
818	 0.283966603796434 
819	 0.286063888220581 
820	 0.286694540232758 
821	 0.286904175184658 
822	 0.288171666168544 
823	 0.289862172800769 
824	 0.291117448487938 
825	 0.290081787734969 
826	 0.289437184734629 
827	 0.29017156465206 
828	 0.290633539215323 
829	 0.290919528777492 
830	 0.291341731365174 
831	 0.292773017231247 
832	 0.2946253467781 
833	 0.294709137344374 
834	 0.294873502408441 
835	 0.295774067877599 
836	 0.296262798861589 
837	 0.296479746162034 
838	 0.296710526568595 
839	 0.297647208650805 
840	 0.298863969852649 
841	 0.298649709182295 
842	 0.298828033358545 
843	 0.299948105843583 
844	 0.300432232921326 
845	 0.300134329927145 
846	 0.29913678453023 
847	 0.299494225435849 
848	 0.300782936866699 
849	 0.300400268612558 
850	 0.300123639315298 
851	 0.30065354834252 
852	 0.301470972636568 
853	 0.302739407818954 
854	 0.30453777341107 
855	 0.304938625618995 
856	 0.304145752624628 
857	 0.303446209063568 
858	 0.304229918864759 
859	 0.306270271607148 
860	 0.30552210454586 
861	 0.304263391072366 
862	 0.304802563262184 
863	 0.305233759357271 
864	 0.305387537013462 
865	 0.305572751130168 
866	 0.306331775714969 
867	 0.307743421595215 
868	 0.309288449879486 
869	 0.31020964473441 
870	 0.310011916677184 
871	 0.309686435661986 
872	 0.309529896637379 
873	 0.309616527945992 
874	 0.311378424164295 
875	 0.31415989509921 
876	 0.31340735807163 
877	 0.313002198487398 
878	 0.315407414751385 
879	 0.316424058595782 
880	 0.316813890764969 
881	 0.318758693752301 
882	 0.319973676040655 
883	 0.319966004175103 
884	 0.319010982059732 
885	 0.319483729512223 
886	 0.322230727047041 
887	 0.323047419867368 
888	 0.322333391549265 
889	 0.32130657670829 
890	 0.320962823353725 
891	 0.321364996290697 
892	 0.321821305049157 
893	 0.321314576285842 
894	 0.319885959368203 
895	 0.321416978964127 
896	 0.323269120959107 
897	 0.322178223702396 
898	 0.323674478393625 
899	 0.327431037712042 
900	 0.329899985838622 
901	 0.329611873651529 
902	 0.327155351005237 
903	 0.327470002506437 
904	 0.328859342009266 
905	 0.329917341360555 
906	 0.331419965229401 
907	 0.332932855339743 
908	 0.333662124912363 
909	 0.331393695034926 
910	 0.327213123567774 
911	 0.327495728098557 
912	 0.329018252007476 
913	 0.330075754868445 
914	 0.33282643067086 
915	 0.335939637037513 
916	 0.337548335289051 
917	 0.335856973076702 
918	 0.332745730888359 
919	 0.334191077176712 
920	 0.334977100319908 
921	 0.333413477301043 
922	 0.330665835516439 
923	 0.329061454687862 
924	 0.330306098986444 
925	 0.330323306624623 
926	 0.328566957343359 
927	 0.325390560446817 
928	 0.323945413249824 
929	 0.325384370359869 
930	 0.328343337562546 
931	 0.329545283452981 
932	 0.327053549088353 
933	 0.332295532434367 
934	 0.338100283725469 
935	 0.331967496917519 
936	 0.329815168694879 
937	 0.332686282446299 
938	 0.332979836716285 
939	 0.32980028634165 
940	 0.324694339554842 
941	 0.326497325458871 
942	 0.325963401287631 
943	 0.317676939574475 
944	 0.317443636739254 
945	 0.323869040006687 
946	 0.331262669286323 
947	 0.332281010324769 
948	 0.326866361338898 
949	 0.322249381145385 
950	 0.320977415435408 
951	 0.323715692948692 
952	 0.325796960207571 
953	 0.328369080288814 
954	 0.3323271104869 
955	 0.331023907328758 
956	 0.327823515169328 
957	 0.330297727354157 
958	 0.336418821541498 
959	 0.341158321880137 
960	 0.329136238974026 
961	 0.324083451768817 
962	 0.334246620761363 
963	 0.336222706006929 
964	 0.334765065142858 
965	 0.33576938807831 
966	 0.332698272343239 
967	 0.328238456487771 
968	 0.32896311646628 
969	 0.333898795347669 
970	 0.339900887104264 
971	 0.336389541590464 
972	 0.334044302119055 
973	 0.337971128940335 
974	 0.339766274243214 
975	 0.340973860840612 
976	 0.344010051006118 
977	 0.346116903888612 
978	 0.345219038993987 
979	 0.337780646833032 
980	 0.335212191203941 
981	 0.338975256599155 
982	 0.339438167499543 
983	 0.34090044475065 
984	 0.344538634031035 
985	 0.343368511289546 
986	 0.340373519641609 
987	 0.33943289258748 
988	 0.338690749807252 
989	 0.339447334461988 
990	 0.344717938246791 
991	 0.348792298172184 
992	 0.350812947642068 
993	 0.355410274549643 
994	 0.353464248557463 
995	 0.343540286515019 
996	 0.345709671971263 
997	 0.347542202859867 
998	 0.337004153477846 
999	 0.337037157937306 
1000	 0.344646712867104 
1001	 0.348108152406703 
1002	 0.343965510748517 
1003	 0.337381087668372 
1004	 0.348792449622323 
1005	 0.359294153939504 
1006	 0.359981089526266 
1007	 0.349788985920396 
1008	 0.345067693379017 
1009	 0.355910079497361 
1010	 0.353543994276145 
1011	 0.346575043003876 
1012	 0.35195866410995 
1013	 0.35069503974358 
1014	 0.345980437933096 
1015	 0.355845565602145 
1016	 0.358994682296316 
1017	 0.352598309461112 
1018	 0.353289817612699 
1019	 0.354973116030802 
1020	 0.353909499029284 
1021	 0.349763685361954 
1022	 0.344151399932403 
1023	 0.339964383806988 
1024	 0.349375203200969 
1025	 0.362094265422316 
1026	 0.358661661488771 
1027	 0.351239857906685 
1028	 0.343864598461285 
1029	 0.338132941527161 
1030	 0.338738323306525 
1031	 0.346074551628315 
1032	 0.354789987607178 
1033	 0.354458375238241 
1034	 0.341926684615061 
1035	 0.339398224948461 
1036	 0.342443192509048 
1037	 0.344702590925678 
1038	 0.358122640283809 
1039	 0.372877163274933 
1040	 0.369934640078905 
1041	 0.363373105003476 
1042	 0.359454266778922 
1043	 0.367002650891414 
1044	 0.367099341425537 
1045	 0.357090788356964 
1046	 0.359684830449185 
1047	 0.35483877700878 
1048	 0.332817241592866 
1049	 0.309637129302354 
1050	 0.311845546401253 
1051	 0.354243721290938 
1052	 0.345893665438236 
1053	 0.319855782133797 
1054	 0.347722360283189 
1055	 0.351904126046123 
1056	 0.339304486373699 
1057	 0.365224722589247 
1058	 0.367465519154737 
1059	 0.342087519159259 
1060	 0.3420557325211 
1061	 0.344435559742319 
1062	 0.340673187521069 
1063	 0.341271860525484 
1064	 0.349155166254284 
1065	 0.363301817045077 
1066	 0.364137094985969 
1067	 0.345499152033042 
1068	 0.305660574713341 
1069	 0.303900311178971 
1070	 0.329667377562377 
1071	 0.346297797046255 
1072	 0.328323858898882 
1073	 0.301142366089958 
1074	 0.33434783676164 
1075	 0.335962375348093 
