Wavelength	SHSI00078.asd
325	 0.094189940522687 
326	 9.47735115583849E-02 
327	 9.41073184475753E-02 
328	 9.26162188595805E-02 
329	 9.45118502477761E-02 
330	 9.87752850983145E-02 
331	 9.11407500872704E-02 
332	 8.58818616172681E-02 
333	 9.62091110745179E-02 
334	 9.80845911325918E-02 
335	 9.29054545772756E-02 
336	 9.35628652990241E-02 
337	 9.52690121095972E-02 
338	 0.096306827286287 
339	 9.49934743345799E-02 
340	 9.38986226142131E-02 
341	 9.50242895380543E-02 
342	 9.57038116950789E-02 
343	 9.53605974583657E-02 
344	 9.36543456368587E-02 
345	 9.25438446959513E-02 
346	 9.24778725265999E-02 
347	 9.26797192942842E-02 
348	 0.093145528754702 
349	 0.093804276340302 
350	 9.37790837640599E-02 
351	 9.44249699068184E-02 
352	 0.098177817924727 
353	 9.95658264457942E-02 
354	 9.84614643182908E-02 
355	 9.99619413272277E-02 
356	 0.100430246777248 
357	 9.81785030928797E-02 
358	 9.81332080948319E-02 
359	 9.95920298337905E-02 
360	 0.100589552604803 
361	 0.101316502577007 
362	 0.10155035373356 
363	 0.10064496748029 
364	 9.98286339503097E-02 
365	 9.98692852606172E-02 
366	 0.101206263697899 
367	 0.102041527340807 
368	 9.99937682079966E-02 
369	 0.10052145237846 
370	 0.103238465184335 
371	 0.102562335677419 
372	 0.101508037031312 
373	 0.101317588969078 
374	 9.86317845503381E-02 
375	 9.60844390925057E-02 
376	 9.75615468631012E-02 
377	 9.79036425597126E-02 
378	 9.68488305302242E-02 
379	 9.79007147274113E-02 
380	 9.86738144634459E-02 
381	 9.79054666697273E-02 
382	 0.095540141762797 
383	 9.39659657590405E-02 
384	 9.61665808949289E-02 
385	 9.57049230660367E-02 
386	 9.27425485158459E-02 
387	 9.28924578830244E-02 
388	 9.28184096778172E-02 
389	 9.15328062884768E-02 
390	 0.092619404755054 
391	 9.37452542595461E-02 
392	 9.19954735970752E-02 
393	 9.16134455417975E-02 
394	 9.22728654292514E-02 
395	 9.02902029538229E-02 
396	 8.90341632009723E-02 
397	 8.94913252750465E-02 
398	 8.87167900594914E-02 
399	 8.76158894028175E-02 
400	 8.73057595316703E-02 
401	 8.71067061167561E-02 
402	 0.087165782890134 
403	 8.83714697900538E-02 
404	 8.87642890700936E-02 
405	 8.77861807020219E-02 
406	 8.74886708559414E-02 
407	 8.74683567286045E-02 
408	 8.70051224371627E-02 
409	 8.64046336943172E-02 
410	 8.58786307321531E-02 
411	 8.58212792365101E-02 
412	 8.57931182516374E-02 
413	 0.085634698673438 
414	 8.58704945774544E-02 
415	 8.59795869123911E-02 
416	 8.52598018691177E-02 
417	 8.46037545349537E-02 
418	 0.084302456615668 
419	 8.45144270577908E-02 
420	 8.48118784332029E-02 
421	 8.48912949641306E-02 
422	 0.084484741297764 
423	 8.39843521820121E-02 
424	 8.39765893442356E-02 
425	 8.42317676781654E-02 
426	 8.46203400523212E-02 
427	 8.49773198235473E-02 
428	 8.49710956867912E-02 
429	 8.44499021032753E-02 
430	 8.40857249807107E-02 
431	 8.37759325135892E-02 
432	 8.31797735164371E-02 
433	 8.27037421718184E-02 
434	 8.25060504107444E-02 
435	 8.26698789268461E-02 
436	 8.29615268273597E-02 
437	 8.31999009249927E-02 
438	 8.32840922579727E-02 
439	 8.32737603869363E-02 
440	 8.33408617598761E-02 
441	 8.30834237750048E-02 
442	 8.25909948030125E-02 
443	 8.26850719055446E-02 
444	 8.30007851860645E-02 
445	 8.32401081663049E-02 
446	 8.38395523146934E-02 
447	 8.45063881618108E-02 
448	 8.44622212290943E-02 
449	 8.43928554063474E-02 
450	 8.45626539509021E-02 
451	 8.49971669698354E-02 
452	 8.54943852823361E-02 
453	 8.58411380432465E-02 
454	 8.58526694306809E-02 
455	 0.085732082315874 
456	 0.086137086943114 
457	 8.65238071780296E-02 
458	 8.66723502865227E-02 
459	 8.67383176563521E-02 
460	 8.67325785988721E-02 
461	 0.086660245166158 
462	 8.66990975697481E-02 
463	 0.086864500983488 
464	 8.70102057945724E-02 
465	 8.74111584621462E-02 
466	 8.80810293336356E-02 
467	 8.80934533026174E-02 
468	 8.78961743079918E-02 
469	 8.82890454238735E-02 
470	 8.86691367304408E-02 
471	 8.89004688183479E-02 
472	 8.91013113879128E-02 
473	 8.91578782728018E-02 
474	 8.90621262840718E-02 
475	 8.93413234030996E-02 
476	 8.97628656689249E-02 
477	 8.97844676693073E-02 
478	 9.00083024065206E-02 
479	 9.04189535116026E-02 
480	 9.02005924287157E-02 
481	 0.090026965748453 
482	 9.04259985136526E-02 
483	 0.090731939295003 
484	 9.08945082783615E-02 
485	 9.10979514798548E-02 
486	 9.11366133349661E-02 
487	 9.09615562978297E-02 
488	 0.09072682687498 
489	 9.05282942357164E-02 
490	 9.04586054928791E-02 
491	 9.07456813339148E-02 
492	 9.12474305901833E-02 
493	 9.15195481126172E-02 
494	 9.15918657126497E-02 
495	 9.15815210979165E-02 
496	 9.22037210813889E-02 
497	 9.28610185921002E-02 
498	 0.092709408866747 
499	 9.32267392015543E-02 
500	 9.43666844725763E-02 
501	 9.47087550942539E-02 
502	 9.48576144192464E-02 
503	 0.095195062994153 
504	 9.56434291508549E-02 
505	 9.62527592691797E-02 
506	 9.71050590646059E-02 
507	 9.80257184349149E-02 
508	 9.89158429383223E-02 
509	 9.96868761857094E-02 
510	 0.1002623287266 
511	 0.100640555363996 
512	 0.101449585531398 
513	 0.102595499055911 
514	 0.103628088859582 
515	 0.104537440124017 
516	 0.105319211333761 
517	 0.106157532123776 
518	 0.106896735621874 
519	 0.107366859412451 
520	 0.107836890597515 
521	 0.108435922744907 
522	 0.109350062828133 
523	 0.110213650967175 
524	 0.110912294129083 
525	 0.111909010624637 
526	 0.112940161843216 
527	 0.113561003029758 
528	 0.114307114567902 
529	 0.115213674653675 
530	 0.115873877693499 
531	 0.116746238852562 
532	 0.118059656067263 
533	 0.118903567841662 
534	 0.119454808317727 
535	 0.1203264815618 
536	 0.121193192945787 
537	 0.122023892984714 
538	 0.123113342321721 
539	 0.124133117826386 
540	 0.124767581964516 
541	 0.125404848701405 
542	 0.126089640321986 
543	 0.126705504681319 
544	 0.127399100370817 
545	 0.128234959295194 
546	 0.129172999616579 
547	 0.130091099292889 
548	 0.130839410494353 
549	 0.131479021326645 
550	 0.132130299816357 
551	 0.133142974256061 
552	 0.134121651321545 
553	 0.134802579051934 
554	 0.135236548439624 
555	 0.135704445187878 
556	 0.136724118836856 
557	 0.137554369247711 
558	 0.138016875529881 
559	 0.138534786498239 
560	 0.138999796207232 
561	 0.139316483148001 
562	 0.139745063106436 
563	 0.140267888482076 
564	 0.140751704090487 
565	 0.140952548203924 
566	 0.140888409534852 
567	 0.141388175117718 
568	 0.14199004133493 
569	 0.142015823423894 
570	 0.141919009582883 
571	 0.141852958412309 
572	 0.141934551193327 
573	 0.141981730654751 
574	 0.141919312512711 
575	 0.142098302181805 
576	 0.142412277724175 
577	 0.142598390144538 
578	 0.142563005605238 
579	 0.142391149048173 
580	 0.142605939442735 
581	 0.142902382576083 
582	 0.143001726357673 
583	 0.143116209071753 
584	 0.143266308449874 
585	 0.143402251851799 
586	 0.143618988362624 
587	 0.143877173556296 
588	 0.143719229230415 
589	 0.143412406105671 
590	 0.143364927494713 
591	 0.14325353961518 
592	 0.143137510334501 
593	 0.143410215867099 
594	 0.143808409899299 
595	 0.144137472667901 
596	 0.14418617235559 
597	 0.144177877170987 
598	 0.144587713192487 
599	 0.144606760927403 
600	 0.144153795834597 
601	 0.144005881593296 
602	 0.144059357344536 
603	 0.144174865773645 
604	 0.144162956373597 
605	 0.143910297636437 
606	 0.14319008590245 
607	 0.142689521810711 
608	 0.142599728035248 
609	 0.142157589072784 
610	 0.141485461598943 
611	 0.140827412003096 
612	 0.140281230832677 
613	 0.139906517952687 
614	 0.139832238777458 
615	 0.13944950633914 
616	 0.138479433576144 
617	 0.13795021231371 
618	 0.137717885184485 
619	 0.137261013913337 
620	 0.136890532680632 
621	 0.136642373818793 
622	 0.136251353670495 
623	 0.136126849416313 
624	 0.13658934412251 
625	 0.136749657044753 
626	 0.136538743374987 
627	 0.136248060071251 
628	 0.135979520882257 
629	 0.135828017237632 
630	 0.135900699555535 
631	 0.136019932901706 
632	 0.135958264330396 
633	 0.135723324378749 
634	 0.135447690830962 
635	 0.135516762674902 
636	 0.135738226952458 
637	 0.135961661241535 
638	 0.135988244927825 
639	 0.135933512074633 
640	 0.136062259866437 
641	 0.1360884956659 
642	 0.136017020624828 
643	 0.136262864402986 
644	 0.136499868036928 
645	 0.136434890011519 
646	 0.13626260439149 
647	 0.136074980522992 
648	 0.136098854650925 
649	 0.135647639402399 
650	 0.134617614795329 
651	 0.134118355393931 
652	 0.133750949012475 
653	 0.132921359879764 
654	 0.13168735739031 
655	 0.130258146720198 
656	 0.129679337211852 
657	 0.128536791545485 
658	 0.126198068523158 
659	 0.124090019195093 
660	 0.122248713138611 
661	 0.120480268170764 
662	 0.118756721544008 
663	 0.116982620192458 
664	 0.114832305066803 
665	 0.112792210668376 
666	 0.111273797612433 
667	 0.110029657725347 
668	 0.108925477717558 
669	 0.107735994232263 
670	 0.106714361435982 
671	 0.105929357381054 
672	 0.105201760870139 
673	 0.104653506547815 
674	 0.104428338727709 
675	 0.104401534018909 
676	 0.104606972221919 
677	 0.105278384769691 
678	 0.105958528288632 
679	 0.106433170093845 
680	 0.107106555432612 
681	 0.108099937214272 
682	 0.109509889489876 
683	 0.111214907327203 
684	 0.113166509685197 
685	 0.115378534555426 
686	 0.118254754517967 
687	 0.122063878266137 
688	 0.125612411635751 
689	 0.128823870486151 
690	 0.132876214767798 
691	 0.13690760294787 
692	 0.140900597578933 
693	 0.145612275570654 
694	 0.150529345156393 
695	 0.154867132428411 
696	 0.158901446861741 
697	 0.162878661958581 
698	 0.167589634443715 
699	 0.171929810964633 
700	 0.175355676328366 
701	 0.178750294770036 
702	 0.182185449738282 
703	 0.185645953979222 
704	 0.188734906846291 
705	 0.191417796558768 
706	 0.19381272796798 
707	 0.195935296892519 
708	 0.197842921565788 
709	 0.199839669362028 
710	 0.201913675979512 
711	 0.203988423608681 
712	 0.205665663924402 
713	 0.206938123782529 
714	 0.208461524578492 
715	 0.209926113012908 
716	 0.211129084598594 
717	 0.212963724330206 
718	 0.215016366205831 
719	 0.215062875050243 
720	 0.215075926398998 
721	 0.21590510908597 
722	 0.217617826153709 
723	 0.219298803930572 
724	 0.219817581582942 
725	 0.220151282233911 
726	 0.220562452308135 
727	 0.221123968357533 
728	 0.221986914018829 
729	 0.223085286918263 
730	 0.223471464652107 
731	 0.223560226374046 
732	 0.224061901079221 
733	 0.224612306062503 
734	 0.225001694667367 
735	 0.224662136126768 
736	 0.224698152252195 
737	 0.225730218000359 
738	 0.226218544900811 
739	 0.226374981241069 
740	 0.227043533763895 
741	 0.227385581059746 
742	 0.227316394082375 
743	 0.227537871014511 
744	 0.227999132631637 
745	 0.228603204066001 
746	 0.228910331210169 
747	 0.228997434334371 
748	 0.229262034633553 
749	 0.229499830231227 
750	 0.22968076642805 
751	 0.229994769791534 
752	 0.230300316684217 
753	 0.230449794778265 
754	 0.230836199714282 
755	 0.231344144030012 
756	 0.231540992291595 
757	 0.230952285852985 
758	 0.229662113609663 
759	 0.230973224867046 
760	 0.235387123323258 
761	 0.238169958158879 
762	 0.23823046679514 
763	 0.236822862357182 
764	 0.236463289819707 
765	 0.236289429625934 
766	 0.23602640428159 
767	 0.235833325857079 
768	 0.235582535876218 
769	 0.235104586141196 
770	 0.234845302103904 
771	 0.234881406312808 
772	 0.234988986877992 
773	 0.235317917213278 
774	 0.235897446211183 
775	 0.236108122305495 
776	 0.236164390881737 
777	 0.236648012768277 
778	 0.236766285312966 
779	 0.236524256759462 
780	 0.236948568441181 
781	 0.237562689314903 
782	 0.23793436742951 
783	 0.237931737602482 
784	 0.237714843465931 
785	 0.237636040712643 
786	 0.237874333959984 
787	 0.238452581598791 
788	 0.239113868785646 
789	 0.239500376565879 
790	 0.239330167387733 
791	 0.239244582690041 
792	 0.239391743387259 
793	 0.239852823883269 
794	 0.239915689262046 
795	 0.239518089346534 
796	 0.239852387772384 
797	 0.240238824146192 
798	 0.23997276714451 
799	 0.240015731788681 
800	 0.240380603772649 
801	 0.240630595420197 
802	 0.240610508130204 
803	 0.240375300127165 
804	 0.240682771338266 
805	 0.241127823662143 
806	 0.241236031551132 
807	 0.241523494936263 
808	 0.242014250336784 
809	 0.242551683098957 
810	 0.242697431726659 
811	 0.242378126829572 
812	 0.24250092780859 
813	 0.243067408326428 
814	 0.243952869767991 
815	 0.244881110597268 
816	 0.245563891109901 
817	 0.245475522073223 
818	 0.245714546325223 
819	 0.246512475682974 
820	 0.246084452883591 
821	 0.245709206926708 
822	 0.246974363065848 
823	 0.247482948370593 
824	 0.247151224763695 
825	 0.247431799909252 
826	 0.247596209267061 
827	 0.247500221622659 
828	 0.248097393292556 
829	 0.248612785953674 
830	 0.24804658972837 
831	 0.2479861195692 
832	 0.248517223972444 
833	 0.248838610310708 
834	 0.24907728287631 
835	 0.249202296489728 
836	 0.24892201958838 
837	 0.24845415832545 
838	 0.248075239906733 
839	 0.248055303506436 
840	 0.248170562773021 
841	 0.247516232153099 
842	 0.247349054278849 
843	 0.247978415701541 
844	 0.247817751627809 
845	 0.247409922465757 
846	 0.247487415923688 
847	 0.24724249837264 
848	 0.246963506128496 
849	 0.248037934106697 
850	 0.248532741134212 
851	 0.247838282594926 
852	 0.247443678523528 
853	 0.247825955951375 
854	 0.24919333198523 
855	 0.248870494405718 
856	 0.247252454757944 
857	 0.246672392459206 
858	 0.24624575223735 
859	 0.245925446965582 
860	 0.24665979448706 
861	 0.247600271959529 
862	 0.247861623152181 
863	 0.247326318031646 
864	 0.24647791895756 
865	 0.246407354721291 
866	 0.247163646083725 
867	 0.248474643838016 
868	 0.249069612832388 
869	 0.249088098996192 
870	 0.248741340280326 
871	 0.24818952137187 
872	 0.248114022379717 
873	 0.249724783108362 
874	 0.250984474460211 
875	 0.251413179358141 
876	 0.252032487981902 
877	 0.252435325128074 
878	 0.252461126201227 
879	 0.253294707395399 
880	 0.254392061443422 
881	 0.254618183319787 
882	 0.254467881049906 
883	 0.254409226718457 
884	 0.255554075036355 
885	 0.256761582635101 
886	 0.257333121881647 
887	 0.257364369595883 
888	 0.257361891945762 
889	 0.257965069366104 
890	 0.258110970256427 
891	 0.257822604626218 
892	 0.257827879071705 
893	 0.25865696488656 
894	 0.26044338398241 
895	 0.262129787949426 
896	 0.263310516813373 
897	 0.263627148568528 
898	 0.263908042737888 
899	 0.264299815196495 
900	 0.264655731123266 
901	 0.26477338435917 
902	 0.264805428101779 
903	 0.265920906466587 
904	 0.266061012572989 
905	 0.263965818384998 
906	 0.263521350707447 
907	 0.264678806038374 
908	 0.266272437028423 
909	 0.267521968286019 
910	 0.268104519523731 
911	 0.268396580608339 
912	 0.267846772500515 
913	 0.266703545546346 
914	 0.268738718526791 
915	 0.270474290823038 
916	 0.267535962794185 
917	 0.266428400427391 
918	 0.267227756294172 
919	 0.266138340750823 
920	 0.265931380142978 
921	 0.267204167634391 
922	 0.268343467212572 
923	 0.268007070345605 
924	 0.265382078376546 
925	 0.265302794911888 
926	 0.266144082623771 
927	 0.262217026935598 
928	 0.261972448087617 
929	 0.266700930047982 
930	 0.266412383092902 
931	 0.263820028317329 
932	 0.262152850468992 
933	 0.268164349959117 
934	 0.275462409308001 
935	 0.273298267534579 
936	 0.269419265261685 
937	 0.267924268109466 
938	 0.275048756262189 
939	 0.272061328252803 
940	 0.258720315407279 
941	 0.261894699247001 
942	 0.268994878594927 
943	 0.270166475886511 
944	 0.268605511692914 
945	 0.267840953136497 
946	 0.272762593179168 
947	 0.272480224889396 
948	 0.267172767300296 
949	 0.266721738794538 
950	 0.266852417750517 
951	 0.265828399636128 
952	 0.264372404161084 
953	 0.263771847498171 
954	 0.264690854467049 
955	 0.261057735866835 
956	 0.258155534538497 
957	 0.267124668489286 
958	 0.269152412689619 
959	 0.262387464798902 
960	 0.256647067440819 
961	 0.258165669929431 
962	 0.266579685326481 
963	 0.262894315900322 
964	 0.256558849242657 
965	 0.258057720683039 
966	 0.260366524872021 
967	 0.263202452772327 
968	 0.26876676598766 
969	 0.268102245198687 
970	 0.261761719255125 
971	 0.261226440811864 
972	 0.261926116012351 
973	 0.261696261773232 
974	 0.263878029950764 
975	 0.266298663193889 
976	 0.266343592385749 
977	 0.266744740147293 
978	 0.266994960281587 
979	 0.264693496225447 
980	 0.265493872603115 
981	 0.269362191244687 
982	 0.269749604262668 
983	 0.269103135468661 
984	 0.268685148363559 
985	 0.267531789777236 
986	 0.265904115010487 
987	 0.264147222644201 
988	 0.261422390992732 
989	 0.260377981731054 
990	 0.266594424840127 
991	 0.269568348313724 
992	 0.267835848999368 
993	 0.267943410413332 
994	 0.268261346489368 
995	 0.267489070933113 
996	 0.262218185638471 
997	 0.258800208250681 
998	 0.263017691328852 
999	 0.266189448234015 
1000	 0.268081212431649 
1001	 0.270897502952344 
1002	 0.268653065790828 
1003	 0.262943553744276 
1004	 0.262821540343561 
1005	 0.267138332786038 
1006	 0.273011830708047 
1007	 0.26830241329157 
1008	 0.265696557910769 
1009	 0.273202195572773 
1010	 0.266228993710779 
1011	 0.258051912055608 
1012	 0.270058942456209 
1013	 0.277430346386682 
1014	 0.27581833269148 
1015	 0.268256166854116 
1016	 0.261939314361042 
1017	 0.260675326004016 
1018	 0.265334287515354 
1019	 0.275029814268253 
1020	 0.286008941987251 
1021	 0.282911519952203 
1022	 0.277101407312303 
1023	 0.280332555171795 
1024	 0.277479528614201 
1025	 0.274260133259518 
1026	 0.283388876471694 
1027	 0.285179805981797 
1028	 0.277722652409491 
1029	 0.270875044346599 
1030	 0.265527482559094 
1031	 0.264448808342232 
1032	 0.276101063790134 
1033	 0.281133470135257 
1034	 0.270305733696761 
1035	 0.269445255056332 
1036	 0.271841093653733 
1037	 0.268567035800751 
1038	 0.273796305142897 
1039	 0.281379036530195 
1040	 0.277059844160839 
1041	 0.2690427756873 
1042	 0.265731848133474 
1043	 0.286674244921134 
1044	 0.290599631567635 
1045	 0.274105835890536 
1046	 0.289431226820448 
1047	 0.294995613973567 
1048	 0.271092146009071 
1049	 0.262030640645952 
1050	 0.26811635240104 
1051	 0.283064149514589 
1052	 0.270585383270179 
1053	 0.256760607436296 
1054	 0.288612196016909 
1055	 0.299009385301402 
1056	 0.2842340677189 
1057	 0.27074470794789 
1058	 0.26906249697828 
1059	 0.28241724916812 
1060	 0.304035232683937 
1061	 0.313609301147205 
1062	 0.302228177101697 
1063	 0.278252021100602 
1064	 0.269912935763276 
1065	 0.293162317441052 
1066	 0.301449190923941 
1067	 0.295551605766692 
1068	 0.281676784424392 
1069	 0.251229380133217 
1070	 0.23206259081126 
1071	 0.263922856190468 
1072	 0.276217429168181 
1073	 0.261823923213758 
1074	 0.251363218388378 
1075	 0.245140392898012 
