Wavelength	SHSI00046.asd
325	 3.77254661595409E-02 
326	 4.79732609214876E-02 
327	 4.99916979883944E-02 
328	 0.051682725338991 
329	 4.92017774805073E-02 
330	 0.042786264796233 
331	 3.89796461318685E-02 
332	 3.96520901966094E-02 
333	 4.54130924432409E-02 
334	 4.80745433389358E-02 
335	 4.72856464395426E-02 
336	 4.59170990942121E-02 
337	 4.40462702775802E-02 
338	 4.18213716806842E-02 
339	 3.82998184270554E-02 
340	 3.80884532281472E-02 
341	 4.38342763096036E-02 
342	 4.26331932946986E-02 
343	 3.78615226765855E-02 
344	 3.94849846989819E-02 
345	 4.19247961608455E-02 
346	 4.30054136969189E-02 
347	 4.00631409627845E-02 
348	 3.88362671595798E-02 
349	 0.042530157977838 
350	 4.40385355764081E-02 
351	 0.043912679808255 
352	 4.46244080700851E-02 
353	 4.35836181364288E-02 
354	 0.041430921897116 
355	 4.23794063704792E-02 
356	 4.42919527578504E-02 
357	 4.55000803212285E-02 
358	 4.40821300459898E-02 
359	 4.20646373718946E-02 
360	 4.27775033977425E-02 
361	 4.37426580882648E-02 
362	 4.42649943466494E-02 
363	 4.46265852324976E-02 
364	 4.27788671218008E-02 
365	 3.87226196001935E-02 
366	 3.98103234054167E-02 
367	 4.23859719577227E-02 
368	 0.040700756652965 
369	 0.0398663843647 
370	 4.05977713167744E-02 
371	 4.13508905147907E-02 
372	 0.041570446437061 
373	 4.10033448350642E-02 
374	 4.05077823566905E-02 
375	 4.02700922090202E-02 
376	 4.03740574888397E-02 
377	 4.01740185840499E-02 
378	 3.96629275012571E-02 
379	 3.93718531486355E-02 
380	 3.92513121866902E-02 
381	 3.92789229918902E-02 
382	 3.94500662140412E-02 
383	 3.94931122097956E-02 
384	 3.90800719832197E-02 
385	 3.94238008183952E-02 
386	 4.03894854533844E-02 
387	 4.08261235714901E-02 
388	 4.02302693385965E-02 
389	 3.86347201973566E-02 
390	 3.76497143763114E-02 
391	 3.69395264858457E-02 
392	 3.59373381748273E-02 
393	 3.66974815532147E-02 
394	 3.85832855123024E-02 
395	 0.039013908529215 
396	 3.76048781507483E-02 
397	 3.50147935555294E-02 
398	 3.56806635496209E-02 
399	 0.037001227595127 
400	 3.60499294429625E-02 
401	 3.56285958502875E-02 
402	 3.58659999040648E-02 
403	 3.58546443371036E-02 
404	 3.57348163259991E-02 
405	 3.55205099661354E-02 
406	 3.50117934715599E-02 
407	 0.034577616518943 
408	 3.46745415599994E-02 
409	 3.44773734215118E-02 
410	 3.39900319317875E-02 
411	 3.37767679439922E-02 
412	 3.36113519856301E-02 
413	 3.34506999313084E-02 
414	 3.38256911467299E-02 
415	 3.39094408146005E-02 
416	 3.26044602497422E-02 
417	 3.27652957028685E-02 
418	 3.40570492777368E-02 
419	 3.32349432415439E-02 
420	 3.24377081125536E-02 
421	 3.26896040294124E-02 
422	 3.24309759315251E-02 
423	 3.20862446276446E-02 
424	 3.25134837576668E-02 
425	 3.26099997054719E-02 
426	 3.22935443064636E-02 
427	 3.23490965933514E-02 
428	 3.24286896028665E-02 
429	 3.23019589508685E-02 
430	 3.20307097220533E-02 
431	 0.031763325717432 
432	 3.17315548740665E-02 
433	 0.031623011004065 
434	 3.14598903314737E-02 
435	 3.17227056659981E-02 
436	 0.031630026562436 
437	 3.08075624642663E-02 
438	 3.07922764793652E-02 
439	 3.13382822729612E-02 
440	 3.16234895377459E-02 
441	 3.15851972916665E-02 
442	 3.12308634583861E-02 
443	 3.07503459234277E-02 
444	 3.06522855460299E-02 
445	 3.12399106698986E-02 
446	 3.11711139874178E-02 
447	 3.08430133309045E-02 
448	 3.17816665225158E-02 
449	 3.19224493236434E-02 
450	 3.09511214583341E-02 
451	 3.09253041797289E-02 
452	 3.15619462353624E-02 
453	 3.24008403486137E-02 
454	 3.23977386609922E-02 
455	 3.18681523208554E-02 
456	 3.24132948295922E-02 
457	 3.25064647429061E-02 
458	 3.17516487060293E-02 
459	 3.16318226175781E-02 
460	 3.19390944048872E-02 
461	 3.22670627418948E-02 
462	 3.23474888218718E-02 
463	 3.22382648786888E-02 
464	 3.23838903336208E-02 
465	 3.25252295809055E-02 
466	 0.032560608019995 
467	 3.27612054871286E-02 
468	 0.032946099486266 
469	 3.28137530165177E-02 
470	 3.27593186807361E-02 
471	 3.28974770534397E-02 
472	 3.33187824668508E-02 
473	 3.32625316800191E-02 
474	 3.24148908060276E-02 
475	 3.24146860651863E-02 
476	 3.30581270033842E-02 
477	 3.36401118940261E-02 
478	 0.033415035136217 
479	 3.25291696908461E-02 
480	 3.26381275814719E-02 
481	 3.31099989764214E-02 
482	 3.33633506547917E-02 
483	 3.31999761048618E-02 
484	 3.29674277153307E-02 
485	 3.36998012186469E-02 
486	 3.37647218306646E-02 
487	 3.29092977151065E-02 
488	 3.32772544689953E-02 
489	 3.37118922943813E-02 
490	 3.29793947167505E-02 
491	 3.30148984462744E-02 
492	 3.36923210406472E-02 
493	 3.36661343530137E-02 
494	 3.35081131130095E-02 
495	 3.35270668007898E-02 
496	 3.41430179477546E-02 
497	 3.47304331098779E-02 
498	 3.44459486868441E-02 
499	 3.44650197298293E-02 
500	 3.49060193382248E-02 
501	 3.50690218949964E-02 
502	 3.53969577285561E-02 
503	 3.60430314024261E-02 
504	 3.60782105525776E-02 
505	 3.58087347619568E-02 
506	 3.59187745302914E-02 
507	 3.62554210268924E-02 
508	 3.67730254940254E-02 
509	 3.73955038861013E-02 
510	 3.80728007257044E-02 
511	 3.87025302155914E-02 
512	 3.85678183653699E-02 
513	 3.81046134389466E-02 
514	 3.85389069197678E-02 
515	 3.92953257719629E-02 
516	 4.00404524164082E-02 
517	 4.00724617526757E-02 
518	 4.00628017688568E-02 
519	 4.07658772486924E-02 
520	 4.14733703488942E-02 
521	 4.18829875618117E-02 
522	 4.15131332265352E-02 
523	 4.16162732250393E-02 
524	 0.04265188782363 
525	 4.34220900574608E-02 
526	 0.043879466246132 
527	 4.41477030224844E-02 
528	 4.44225809023727E-02 
529	 4.47417276989493E-02 
530	 4.49537515621199E-02 
531	 4.52944064357219E-02 
532	 4.59236548302929E-02 
533	 4.67884649534972E-02 
534	 4.75907133161404E-02 
535	 4.77827939606372E-02 
536	 4.80002725066876E-02 
537	 4.84243067392115E-02 
538	 4.88212279612183E-02 
539	 4.92399716006632E-02 
540	 4.97298158466014E-02 
541	 5.01985731074087E-02 
542	 5.06603886896331E-02 
543	 0.051241358248066 
544	 5.17131949656098E-02 
545	 5.19659254581655E-02 
546	 5.19563273722143E-02 
547	 5.20323154159883E-02 
548	 5.26343904165969E-02 
549	 5.31819503412743E-02 
550	 5.35472227023784E-02 
551	 5.38601793663777E-02 
552	 5.41360458987332E-02 
553	 5.44131649981029E-02 
554	 0.054874723446229 
555	 5.54251025374003E-02 
556	 5.58730000752644E-02 
557	 0.056005881737886 
558	 0.055925141155923 
559	 5.64878069931914E-02 
560	 5.69498791865319E-02 
561	 5.66662891495798E-02 
562	 5.69583744422027E-02 
563	 0.057655100763206 
564	 5.76435996673921E-02 
565	 0.057719403782924 
566	 5.80680043486202E-02 
567	 5.77931527983737E-02 
568	 5.74393449838227E-02 
569	 5.77874371332848E-02 
570	 5.80032339279059E-02 
571	 5.79647088263696E-02 
572	 5.80214217578029E-02 
573	 5.80320481416346E-02 
574	 5.79238460891205E-02 
575	 5.78052207489599E-02 
576	 5.77172062707462E-02 
577	 5.76790267406541E-02 
578	 5.79728497698139E-02 
579	 5.84666602845395E-02 
580	 5.82196413206434E-02 
581	 5.78380207738307E-02 
582	 5.79058457890389E-02 
583	 0.058465102898481 
584	 5.91816600720924E-02 
585	 0.059238650987109 
586	 5.90291016402642E-02 
587	 5.87265281469095E-02 
588	 5.84421969246804E-02 
589	 5.82144020544512E-02 
590	 5.80768129957645E-02 
591	 5.84055312993001E-02 
592	 5.90127418273132E-02 
593	 5.90753643081699E-02 
594	 5.90428634771951E-02 
595	 5.91305127967053E-02 
596	 0.058798303655319 
597	 5.84939061187786E-02 
598	 5.91174527956422E-02 
599	 5.95523138918059E-02 
600	 5.95288256147013E-02 
601	 0.059579287632119 
602	 5.95138724983935E-02 
603	 5.91855016791067E-02 
604	 5.90690861766966E-02 
605	 5.90892312579825E-02 
606	 5.87748655510838E-02 
607	 5.87151144187241E-02 
608	 5.90136979967914E-02 
609	 5.88121961136606E-02 
610	 5.83541034431625E-02 
611	 5.80461203487691E-02 
612	 5.79752596218455E-02 
613	 5.80361660134388E-02 
614	 5.78188565027741E-02 
615	 5.73338481621099E-02 
616	 5.66711915599181E-02 
617	 5.64916700996628E-02 
618	 5.65480955984375E-02 
619	 5.62155989115066E-02 
620	 5.62101238297437E-02 
621	 5.65700571337468E-02 
622	 0.056609116693817 
623	 5.62845455986012E-02 
624	 5.56336888994897E-02 
625	 5.53408265449074E-02 
626	 5.55277549202593E-02 
627	 5.61777508525792E-02 
628	 5.65763142126565E-02 
629	 5.64298320316673E-02 
630	 5.61805154604798E-02 
631	 5.59201670934575E-02 
632	 0.055712297826843 
633	 5.56348384817589E-02 
634	 5.57932236492004E-02 
635	 0.056534703335486 
636	 5.69154279602645E-02 
637	 5.64456072705576E-02 
638	 5.60775190736567E-02 
639	 5.61211381664988E-02 
640	 5.69215150243533E-02 
641	 5.71414176028277E-02 
642	 5.66653240146948E-02 
643	 5.71590096558654E-02 
644	 5.74170618493225E-02 
645	 5.64336129995161E-02 
646	 5.60183472980661E-02 
647	 5.62724459764554E-02 
648	 5.65234399260702E-02 
649	 0.056763655847702 
650	 5.68515642109009E-02 
651	 5.64097607352628E-02 
652	 5.56260400083197E-02 
653	 0.054757680187907 
654	 0.054418356542739 
655	 5.44607913991401E-02 
656	 5.38251758383144E-02 
657	 5.30221950931496E-02 
658	 5.23537608733233E-02 
659	 0.051413154996566 
660	 5.02984642080266E-02 
661	 4.92151880099097E-02 
662	 4.83624048933408E-02 
663	 4.76929083798865E-02 
664	 4.67521340126038E-02 
665	 4.55821513704811E-02 
666	 4.43026197006581E-02 
667	 4.38310060018878E-02 
668	 4.37628211563523E-02 
669	 4.26181013943447E-02 
670	 4.20038334112974E-02 
671	 4.22079905324934E-02 
672	 4.12751552265254E-02 
673	 4.03852689851315E-02 
674	 4.10146674260981E-02 
675	 4.19210314628961E-02 
676	 4.25049232775039E-02 
677	 4.18766217232785E-02 
678	 4.14383436920767E-02 
679	 4.19250959134551E-02 
680	 4.25778277331049E-02 
681	 4.31117728234498E-02 
682	 4.31963131792724E-02 
683	 4.40773496288208E-02 
684	 4.57954400490116E-02 
685	 4.70838460797725E-02 
686	 4.82788685895576E-02 
687	 4.96830276375016E-02 
688	 5.14677695691744E-02 
689	 5.36064668687989E-02 
690	 5.63638779637348E-02 
691	 5.88000621229877E-02 
692	 6.07678986041637E-02 
693	 6.27998186536406E-02 
694	 6.54123792733848E-02 
695	 6.88648167278465E-02 
696	 7.10155420363864E-02 
697	 7.22787440363926E-02 
698	 7.50427478579253E-02 
699	 7.76885284488056E-02 
700	 7.94774669236228E-02 
701	 8.11708521266439E-02 
702	 8.28510650733888E-02 
703	 8.45338925018185E-02 
704	 8.62881272890523E-02 
705	 8.79644588845261E-02 
706	 8.87732874000302E-02 
707	 9.02016523220879E-02 
708	 9.29354261254897E-02 
709	 9.41199209616702E-02 
710	 9.43944530204446E-02 
711	 9.56974127454181E-02 
712	 9.68599092088137E-02 
713	 0.097604614526493 
714	 9.83521583912947E-02 
715	 9.86326478998781E-02 
716	 9.80479720799604E-02 
717	 9.78929451229859E-02 
718	 9.86488269865814E-02 
719	 0.100618342009632 
720	 0.101591298353405 
721	 0.101189818656319 
722	 0.102012351549833 
723	 0.103190658117515 
724	 0.103579269555462 
725	 0.103836345757133 
726	 0.104109236199307 
727	 0.104411158268926 
728	 0.104983983073007 
729	 0.105886125497447 
730	 0.106599611576212 
731	 0.107191181263061 
732	 0.107842007557042 
733	 0.108349117901714 
734	 0.10884622246913 
735	 0.109928608416392 
736	 0.11079486082991 
737	 0.110958714124535 
738	 0.111471396879506 
739	 0.112183440329728 
740	 0.112516598919916 
741	 0.11295290791698 
742	 0.113569093470098 
743	 0.114096845747033 
744	 0.114450486458752 
745	 0.11459247851469 
746	 0.114790957499128 
747	 0.115207580294467 
748	 0.116136624705826 
749	 0.116898651170177 
750	 0.117197690471417 
751	 0.117125356457899 
752	 0.116755247813578 
753	 0.116200630263828 
754	 0.116143907880661 
755	 0.116675264884527 
756	 0.117703079418374 
757	 0.118309743803501 
758	 0.117999910880742 
759	 0.116636472957408 
760	 0.113827365438845 
761	 0.111943861586531 
762	 0.111811106385089 
763	 0.112923970201841 
764	 0.11419783864296 
765	 0.115861365162273 
766	 0.117710493259216 
767	 0.119284223867734 
768	 0.120408132077886 
769	 0.120827691475768 
770	 0.121216894012314 
771	 0.121721244829739 
772	 0.122292119167944 
773	 0.12237608514662 
774	 0.12177140794337 
775	 0.122162018462614 
776	 0.12296749249387 
777	 0.122683222800456 
778	 0.122661328626657 
779	 0.12325646091529 
780	 0.124266994035499 
781	 0.124715283238449 
782	 0.124016633292717 
783	 0.124597601126203 
784	 0.125793946871495 
785	 0.125351980744474 
786	 0.12467636031867 
787	 0.124280416244152 
788	 0.124304465720809 
789	 0.124293046169051 
790	 0.123880757817014 
791	 0.12425182457946 
792	 0.125073836093382 
793	 0.124996088215985 
794	 0.125110249801902 
795	 0.125613853378363 
796	 0.125424937195016 
797	 0.125403374482243 
798	 0.126370531154089 
799	 0.126439621801963 
800	 0.125827385300715 
801	 0.126173065439551 
802	 0.126302999161166 
803	 0.126063250090742 
804	 0.12711896097159 
805	 0.12828713246844 
806	 0.128231920712143 
807	 0.128164320868873 
808	 0.128256640348195 
809	 0.128261011289414 
810	 0.128285403445333 
811	 0.128272959435954 
812	 0.127577582772357 
813	 0.126876270637446 
814	 0.127122516732019 
815	 0.12710202503417 
816	 0.126682357808638 
817	 0.126272929463961 
818	 0.127138476352187 
819	 0.12927120371982 
820	 0.129646361264147 
821	 0.129334980018326 
822	 0.129835983688473 
823	 0.130476945983933 
824	 0.131130233068459 
825	 0.131910299498517 
826	 0.132439931723327 
827	 0.132544704111462 
828	 0.132165332950884 
829	 0.13181558804543 
830	 0.132110770346056 
831	 0.132619071657298 
832	 0.133197244480675 
833	 0.133802360338051 
834	 0.134221008729239 
835	 0.134336695424844 
836	 0.134171353327289 
837	 0.133798212228697 
838	 0.133345731718207 
839	 0.134539483107388 
840	 0.136649659706742 
841	 0.136652426539266 
842	 0.136183477523726 
843	 0.135967218689284 
844	 0.135931311290381 
845	 0.136255955036546 
846	 0.137083615828345 
847	 0.137475528458039 
848	 0.137311323959294 
849	 0.136849644404371 
850	 0.136679987453486 
851	 0.136900779647273 
852	 0.136242359532364 
853	 0.135775908853227 
854	 0.136646840260536 
855	 0.137064464394983 
856	 0.136627728349842 
857	 0.135132786969045 
858	 0.134541907666539 
859	 0.135253497641645 
860	 0.135224134295807 
861	 0.135096303854684 
862	 0.135533635228208 
863	 0.135680916118119 
864	 0.135444596956368 
865	 0.134847494129327 
866	 0.135368024935005 
867	 0.136994809227533 
868	 0.137039392787634 
869	 0.137038022069464 
870	 0.138227447580425 
871	 0.1391049727868 
872	 0.139454294673688 
873	 0.139281268380486 
874	 0.139454397151365 
875	 0.14014309075056 
876	 0.140829371174621 
877	 0.140896523428825 
878	 0.140226872147856 
879	 0.141645881907126 
880	 0.14371326229252 
881	 0.143488558125675 
882	 0.144528431488726 
883	 0.14681892435782 
884	 0.146909960366344 
885	 0.146783919321038 
886	 0.147551401635748 
887	 0.148689966022316 
888	 0.149270801096973 
889	 0.14818865684405 
890	 0.147997510697711 
891	 0.148842707145571 
892	 0.149046144304351 
893	 0.149280548576961 
894	 0.149753336622131 
895	 0.150151373145789 
896	 0.149693967523838 
897	 0.147689536231831 
898	 0.147319595896542 
899	 0.148508770341224 
900	 0.149172427887256 
901	 0.149547797765431 
902	 0.14979342447922 
903	 0.150625554003739 
904	 0.151494191720065 
905	 0.15201822214186 
906	 0.153036331077117 
907	 0.153572347021376 
908	 0.151761667988315 
909	 0.149513208074798 
910	 0.147929889447404 
911	 0.1482689269966 
912	 0.150134651007338 
913	 0.152506231395523 
914	 0.150768767388917 
915	 0.149203394339262 
916	 0.153285185481009 
917	 0.157090798130517 
918	 0.158727076963284 
919	 0.156999850352586 
920	 0.154566760437309 
921	 0.153286843386842 
922	 0.156625929115684 
923	 0.158750803432162 
924	 0.154813943830779 
925	 0.15336279876466 
926	 0.154418175902322 
927	 0.154812916289076 
928	 0.151745525021627 
929	 0.145440703526523 
930	 0.143766776095242 
931	 0.145586083185004 
932	 0.149085180304971 
933	 0.147634837950325 
934	 0.144524381363985 
935	 0.146083974110397 
936	 0.13653769279607 
937	 0.123612557427004 
938	 0.137544215111924 
939	 0.146306252266206 
940	 0.143511537741334 
941	 0.150442695346319 
942	 0.150626027377155 
943	 0.134447460861376 
944	 0.131608103940865 
945	 0.13587121194244 
946	 0.130534925441617 
947	 0.133319395632375 
948	 0.141859678352491 
949	 0.134880893462722 
950	 0.130717192521908 
951	 0.136378933158332 
952	 0.143487327393769 
953	 0.147072552366935 
954	 0.143529760835786 
955	 0.13764381504614 
956	 0.134935490832668 
957	 0.143161340484551 
958	 0.146647437370143 
959	 0.142465690394671 
960	 0.136420425161079 
961	 0.129834181316056 
962	 0.125925552579959 
963	 0.134917763636949 
964	 0.146968577240762 
965	 0.151898456604418 
966	 0.148767368123907 
967	 0.142563324639274 
968	 0.14302502858964 
969	 0.147279422858257 
970	 0.151907798673378 
971	 0.146373011118049 
972	 0.145547735839829 
973	 0.154862970017233 
974	 0.153490682753351 
975	 0.149051512387158 
976	 0.151708717089566 
977	 0.147662822518494 
978	 0.141369104994632 
979	 0.147404976886768 
980	 0.152869445566428 
981	 0.153885071906377 
982	 0.151674270716276 
983	 0.151046499460317 
984	 0.153550030217695 
985	 0.150447878182975 
986	 0.149562037598121 
987	 0.158734864231996 
988	 0.160168334783318 
989	 0.155142139670002 
990	 0.152741560212111 
991	 0.150505748669488 
992	 0.149274360324063 
993	 0.15374303898269 
994	 0.154569927536643 
995	 0.149377147711531 
996	 0.155664401930592 
997	 0.158472728676399 
998	 0.144279697471811 
999	 0.143112699028182 
1000	 0.152962621902567 
1001	 0.161159931277377 
1002	 0.159876326618827 
1003	 0.151457896278233 
1004	 0.152011230788985 
1005	 0.156089583434918 
1006	 0.159864678302773 
1007	 0.153102876572195 
1008	 0.151977091017418 
1009	 0.166272578620194 
1010	 0.168174047438276 
1011	 0.160670549270098 
1012	 0.15366444308031 
1013	 0.156682727587475 
1014	 0.16326822725562 
1015	 0.151274812922884 
1016	 0.150904881745089 
1017	 0.164075217612342 
1018	 0.15462024721092 
1019	 0.155182533328395 
1020	 0.177187977896404 
1021	 0.175681313733236 
1022	 0.16315290263934 
1023	 0.156626579774082 
1024	 0.161381278669834 
1025	 0.170326567609848 
1026	 0.169330438390212 
1027	 0.159216389990017 
1028	 0.148789673521829 
1029	 0.166366176982914 
1030	 0.167966932462867 
1031	 0.149071946566661 
1032	 0.162659969168106 
1033	 0.170228873133857 
1034	 0.151012066682229 
1035	 0.147415079615807 
1036	 0.159883866022432 
1037	 0.181869625389158 
1038	 0.182036950024661 
1039	 0.167950899968373 
1040	 0.162217188464618 
1041	 0.161459316529737 
1042	 0.161634342938267 
1043	 0.149542599442715 
1044	 0.151114069063806 
1045	 0.166952596984783 
1046	 0.16000969438197 
1047	 0.158582403606064 
1048	 0.1747364177317 
1049	 0.169332775154327 
1050	 0.161451975753762 
1051	 0.17150768814561 
1052	 0.168587563659709 
1053	 0.162596961309398 
1054	 0.174566084530523 
1055	 0.186604177879295 
1056	 0.194572399660119 
1057	 0.197457721647158 
1058	 0.19079303363885 
1059	 0.172322924129953 
1060	 0.136113523015152 
1061	 0.120098141116254 
1062	 0.138736651838861 
1063	 0.162562851789206 
1064	 0.17760980274231 
1065	 0.176560021236789 
1066	 0.172157745850738 
1067	 0.170214554548114 
1068	 0.175273129713074 
1069	 0.186939972619511 
1070	 0.195552973279976 
1071	 0.186305434160601 
1072	 0.169172465901096 
1073	 0.146280748810464 
1074	 0.118699666652289 
1075	 9.42669958113578E-02 
