Wavelength	SHSI00356.asd
325	 7.58774073267662E-02 
326	 7.89244620815791E-02 
327	 7.63366361129769E-02 
328	 7.94619559039604E-02 
329	 7.89478197286919E-02 
330	 7.28762938956261E-02 
331	 6.78442827494535E-02 
332	 0.066794910257971 
333	 7.16174545880354E-02 
334	 7.55811876014271E-02 
335	 7.62846354832745E-02 
336	 7.12638557932979E-02 
337	 6.78791059049848E-02 
338	 6.79084177613534E-02 
339	 6.71153717413609E-02 
340	 6.61608690277768E-02 
341	 0.065854178799306 
342	 0.06737492772215 
343	 6.93550681350729E-02 
344	 6.90108539685898E-02 
345	 6.85439574349278E-02 
346	 0.069049004701796 
347	 7.25563366355946E-02 
348	 7.42223795172077E-02 
349	 7.15500120240405E-02 
350	 7.20501108532018E-02 
351	 7.32744131633137E-02 
352	 6.98383904586331E-02 
353	 6.75662144044963E-02 
354	 6.82841125218213E-02 
355	 7.32354464485344E-02 
356	 7.60354830576453E-02 
357	 0.073188229896795 
358	 6.84831957549756E-02 
359	 6.57233150116272E-02 
360	 6.95369207789384E-02 
361	 7.08902444978089E-02 
362	 6.88504658153804E-02 
363	 6.83635441646062E-02 
364	 6.88323290871454E-02 
365	 6.97148216071662E-02 
366	 6.97115217288742E-02 
367	 6.89125097121247E-02 
368	 6.76240990637866E-02 
369	 6.75272105826187E-02 
370	 6.85026305777967E-02 
371	 6.86668990154222E-02 
372	 6.90569877654717E-02 
373	 6.99826100457198E-02 
374	 6.99845754243798E-02 
375	 6.88140123527849E-02 
376	 6.64125797165724E-02 
377	 6.52330124295502E-02 
378	 6.54929953845332E-02 
379	 6.56867264577968E-02 
380	 6.56251349801983E-02 
381	 6.54044314619078E-02 
382	 6.67701027902097E-02 
383	 6.79534986156029E-02 
384	 6.65057428400691E-02 
385	 6.67159627707775E-02 
386	 6.84093988764105E-02 
387	 6.78663563242833E-02 
388	 0.066751202647915 
389	 6.59904500403371E-02 
390	 6.62961850924095E-02 
391	 6.66580737101154E-02 
392	 6.58686505353545E-02 
393	 6.47515715531824E-02 
394	 6.43888531653458E-02 
395	 6.77908734579251E-02 
396	 6.81079300356385E-02 
397	 6.36393314564825E-02 
398	 6.17881077921475E-02 
399	 6.17135871007586E-02 
400	 6.17648728581405E-02 
401	 6.26736511547881E-02 
402	 6.38519247456593E-02 
403	 0.063797227856208 
404	 6.37291913784888E-02 
405	 6.40322941609599E-02 
406	 6.36615723544238E-02 
407	 6.34736906014117E-02 
408	 6.45727818292208E-02 
409	 6.42477768502916E-02 
410	 0.062815492894743 
411	 6.29471769322258E-02 
412	 0.063074397004029 
413	 6.26156660468494E-02 
414	 6.27566347385471E-02 
415	 6.32506992979865E-02 
416	 6.36565841510985E-02 
417	 6.34019581763762E-02 
418	 6.27299453537566E-02 
419	 6.28561679613837E-02 
420	 6.29144120755713E-02 
421	 0.062586627651046 
422	 6.31647215832141E-02 
423	 6.38679265199016E-02 
424	 6.33996854366884E-02 
425	 6.29734367202675E-02 
426	 0.063002501373085 
427	 6.38142834758518E-02 
428	 0.064372876602777 
429	 6.40376346603066E-02 
430	 6.35791705828161E-02 
431	 6.32263417214821E-02 
432	 0.063157580274489 
433	 6.31699099281944E-02 
434	 6.31373334402691E-02 
435	 6.27770634071421E-02 
436	 6.27816812664654E-02 
437	 6.34766178685659E-02 
438	 0.063410193918337 
439	 6.29461898633747E-02 
440	 6.31241328427512E-02 
441	 0.063433506574447 
442	 6.37221013939106E-02 
443	 6.40330377976795E-02 
444	 6.40713021210741E-02 
445	 6.36816883945567E-02 
446	 6.38465314638113E-02 
447	 6.43797392754122E-02 
448	 6.45351695338966E-02 
449	 6.43689774322252E-02 
450	 6.40823435435014E-02 
451	 6.46700983528022E-02 
452	 6.52544731102459E-02 
453	 6.49554717851748E-02 
454	 6.47736641117021E-02 
455	 6.48559233617794E-02 
456	 0.065032136992881 
457	 6.52032564271291E-02 
458	 6.53242363294963E-02 
459	 6.55158621108986E-02 
460	 6.56079772156055E-02 
461	 6.54032208533984E-02 
462	 6.53170470434297E-02 
463	 6.54147386592382E-02 
464	 6.55783166049738E-02 
465	 6.56841475746775E-02 
466	 6.56690765034176E-02 
467	 6.56909313494561E-02 
468	 6.55974329312307E-02 
469	 0.065138741384854 
470	 6.52648017043939E-02 
471	 6.58476663758194E-02 
472	 0.065482170152039 
473	 6.52296235138602E-02 
474	 6.56991373573809E-02 
475	 6.59773872842268E-02 
476	 6.60704234836464E-02 
477	 6.62164700450085E-02 
478	 0.066275381313712 
479	 0.066265934665963 
480	 6.64252943235913E-02 
481	 6.65011073716031E-02 
482	 0.066314953913901 
483	 6.62957090208448E-02 
484	 6.64538287058862E-02 
485	 6.66343547314311E-02 
486	 6.67888032849089E-02 
487	 6.68926517414979E-02 
488	 6.70127982524183E-02 
489	 6.70807686013751E-02 
490	 6.70348093374672E-02 
491	 6.69843319064248E-02 
492	 0.067069107999351 
493	 0.067654660678898 
494	 0.067927321622158 
495	 6.76485148870728E-02 
496	 6.77845126211974E-02 
497	 6.81590867851759E-02 
498	 6.84279360842946E-02 
499	 6.83030711501113E-02 
500	 6.79217367649469E-02 
501	 6.80180467398999E-02 
502	 6.81221461693542E-02 
503	 6.80672425271755E-02 
504	 6.88797382540855E-02 
505	 6.99854978375251E-02 
506	 7.02731297326063E-02 
507	 7.03442760936194E-02 
508	 0.070417672810142 
509	 7.06191977187284E-02 
510	 7.10308035948379E-02 
511	 7.16841804968654E-02 
512	 7.22418630745953E-02 
513	 7.26917001081269E-02 
514	 7.31449135742066E-02 
515	 7.37101452120392E-02 
516	 0.074341809637022 
517	 7.45108202431108E-02 
518	 7.47370393895317E-02 
519	 7.55735679524366E-02 
520	 7.59454547997196E-02 
521	 7.60338514598765E-02 
522	 0.076962502801172 
523	 7.77848374395064E-02 
524	 7.81171910344182E-02 
525	 7.84870776544213E-02 
526	 7.88944476317686E-02 
527	 0.079250870541703 
528	 7.97665445071885E-02 
529	 8.03973821543175E-02 
530	 8.08343878071985E-02 
531	 8.12196085788812E-02 
532	 0.08166188961185 
533	 8.22271822967586E-02 
534	 8.27772167585223E-02 
535	 8.30083421122502E-02 
536	 8.33764035511208E-02 
537	 8.39639522735909E-02 
538	 8.44265127654253E-02 
539	 8.47698870814718E-02 
540	 8.50251239149071E-02 
541	 8.54091597649219E-02 
542	 8.58652689794636E-02 
543	 8.61375792956631E-02 
544	 8.62874324337874E-02 
545	 8.64079959741103E-02 
546	 8.69016845539054E-02 
547	 8.74309041998067E-02 
548	 8.75154136231492E-02 
549	 8.76864470577187E-02 
550	 8.80203403161245E-02 
551	 8.83018843745097E-02 
552	 8.85642101194461E-02 
553	 8.88345028105494E-02 
554	 8.91853159611443E-02 
555	 8.95590821523762E-02 
556	 8.98524523995423E-02 
557	 8.99319101209754E-02 
558	 8.98247992131705E-02 
559	 8.98434215036115E-02 
560	 9.00387745687175E-02 
561	 9.04170176486244E-02 
562	 9.06565507734114E-02 
563	 9.06761085590087E-02 
564	 9.04095433234443E-02 
565	 9.03175618016371E-02 
566	 9.05395236799941E-02 
567	 9.05372160688404E-02 
568	 9.04864938907071E-02 
569	 9.06701525908861E-02 
570	 0.090861249299412 
571	 9.09333159077976E-02 
572	 9.07110513726181E-02 
573	 9.03099692715915E-02 
574	 8.98747343252947E-02 
575	 8.99166846458372E-02 
576	 0.090161323243645 
577	 8.99765777117414E-02 
578	 8.98230232157264E-02 
579	 8.97671754939484E-02 
580	 8.94205218000085E-02 
581	 8.92722878092177E-02 
582	 8.97045832653665E-02 
583	 8.98120841382879E-02 
584	 8.95624019396399E-02 
585	 8.92890745217471E-02 
586	 8.91777432081682E-02 
587	 8.93110111421811E-02 
588	 8.95077738104106E-02 
589	 8.96628856059493E-02 
590	 8.96630839608025E-02 
591	 0.089507281538238 
592	 8.93010819518259E-02 
593	 8.93762921891498E-02 
594	 8.93003728247281E-02 
595	 8.89171336391672E-02 
596	 8.91620931470181E-02 
597	 8.96342056945234E-02 
598	 0.08941861011354 
599	 8.92201762717734E-02 
600	 8.92320372314775E-02 
601	 8.93152922658944E-02 
602	 8.93982543766867E-02 
603	 8.94132689647091E-02 
604	 8.93176154604629E-02 
605	 0.089143722386556 
606	 8.89702419151127E-02 
607	 8.89053088061917E-02 
608	 0.088909752664952 
609	 8.84134393826099E-02 
610	 8.79330029032855E-02 
611	 8.81613411200775E-02 
612	 8.78277804792024E-02 
613	 8.70431659713083E-02 
614	 8.72622894040213E-02 
615	 8.74806770650405E-02 
616	 8.71495540703895E-02 
617	 8.71301417694006E-02 
618	 8.72438825464423E-02 
619	 8.69788271575328E-02 
620	 0.086827689905133 
621	 8.68806205478479E-02 
622	 8.68787457523893E-02 
623	 8.67844977196856E-02 
624	 8.65904510160431E-02 
625	 8.65878512802641E-02 
626	 8.66884671137643E-02 
627	 0.086497645162004 
628	 8.63802521458876E-02 
629	 8.64622797648323E-02 
630	 8.65908267203189E-02 
631	 8.66066365940377E-02 
632	 8.63408002469382E-02 
633	 0.086264595507341 
634	 8.63246289313894E-02 
635	 8.58902180567694E-02 
636	 8.56787809967052E-02 
637	 8.60548570871802E-02 
638	 8.62994149896519E-02 
639	 8.62621608635248E-02 
640	 8.58470137180671E-02 
641	 8.55787219691717E-02 
642	 8.55484914322825E-02 
643	 8.52954749439812E-02 
644	 8.49641540279426E-02 
645	 8.47075284145668E-02 
646	 8.47068248625129E-02 
647	 8.47809409933594E-02 
648	 8.44156237179304E-02 
649	 8.37648955730743E-02 
650	 8.30211736917734E-02 
651	 8.28084529871637E-02 
652	 8.28892042652041E-02 
653	 8.29080935935213E-02 
654	 8.26416037456598E-02 
655	 8.21745087763744E-02 
656	 8.22183760496785E-02 
657	 8.18257675628353E-02 
658	 8.06330116223685E-02 
659	 8.00353964817395E-02 
660	 7.98652568755263E-02 
661	 7.96351574156519E-02 
662	 7.91679976171129E-02 
663	 7.84315479910385E-02 
664	 7.76270172567229E-02 
665	 0.07691277995572 
666	 7.64115959918676E-02 
667	 7.59824953763559E-02 
668	 7.55739673404866E-02 
669	 7.51210588839157E-02 
670	 7.47298093322186E-02 
671	 7.44401910214778E-02 
672	 7.42166170964982E-02 
673	 0.074062248263928 
674	 7.39819585026812E-02 
675	 7.40155444455778E-02 
676	 7.41672545096488E-02 
677	 7.44409939170358E-02 
678	 7.47063784613017E-02 
679	 7.49006665909982E-02 
680	 7.51542587850183E-02 
681	 7.54697294915391E-02 
682	 7.57994510852573E-02 
683	 7.66403978233979E-02 
684	 7.79413436690125E-02 
685	 7.89617705393691E-02 
686	 8.00480256487597E-02 
687	 8.14795898262003E-02 
688	 0.082887465526073 
689	 0.084292029126232 
690	 8.61843432363981E-02 
691	 8.80312209691856E-02 
692	 8.98013870231958E-02 
693	 9.20150444827979E-02 
694	 9.43681822776745E-02 
695	 9.64311669560759E-02 
696	 9.85007760258556E-02 
697	 0.100697046639088 
698	 0.10336882186317 
699	 0.105531578593069 
700	 0.106868940579116 
701	 0.10899460796919 
702	 0.111479725618347 
703	 0.113505072507483 
704	 0.115154633338927 
705	 0.116564906143291 
706	 0.118107116187074 
707	 0.11961129836555 
708	 0.1209547271636 
709	 0.122137461389317 
710	 0.123244664356491 
711	 0.124413564507904 
712	 0.125726177573609 
713	 0.127043965294082 
714	 0.127686438994143 
715	 0.128121759023241 
716	 0.128850795492138 
717	 0.129894808234124 
718	 0.131074351494768 
719	 0.131552769912569 
720	 0.132138869774767 
721	 0.133039720496063 
722	 0.133955204416694 
723	 0.134628332295725 
724	 0.134707439952813 
725	 0.134821299708705 
726	 0.135224506259287 
727	 0.13621398042171 
728	 0.137006652666648 
729	 0.1372362049412 
730	 0.137450061415053 
731	 0.137845082459714 
732	 0.138588714740783 
733	 0.139036353963448 
734	 0.139188025875476 
735	 0.139556694030673 
736	 0.140005010760365 
737	 0.140416743896558 
738	 0.14072335797861 
739	 0.140946187435899 
740	 0.141120132245401 
741	 0.141586922046877 
742	 0.142242337746038 
743	 0.142212938295601 
744	 0.141946883052649 
745	 0.141869862531255 
746	 0.142049857300648 
747	 0.14242857311519 
748	 0.142871454131768 
749	 0.14303331987727 
750	 0.142887035582934 
751	 0.143083805611263 
752	 0.143508011855177 
753	 0.143969338815779 
754	 0.144214256966403 
755	 0.144204344725822 
756	 0.143987211215204 
757	 0.143870600243076 
758	 0.144019763359176 
759	 0.144397393602041 
760	 0.145110075188791 
761	 0.145651354213861 
762	 0.145218499073017 
763	 0.144626405855548 
764	 0.14584626303019 
765	 0.146920387007806 
766	 0.147127037231214 
767	 0.14685001668681 
768	 0.146552172316858 
769	 0.146706198510033 
770	 0.146954598618317 
771	 0.147190670861474 
772	 0.147405016982168 
773	 0.147361870847886 
774	 0.146985808569176 
775	 0.147015517555385 
776	 0.147421050811089 
777	 0.147962576058061 
778	 0.148276434136336 
779	 0.148293247893383 
780	 0.148334347422614 
781	 0.14844958141704 
782	 0.148650744157704 
783	 0.148611926734136 
784	 0.148610992756165 
785	 0.149398107980072 
786	 0.149769811734057 
787	 0.149486840384751 
788	 0.149520946483384 
789	 0.149713694885475 
790	 0.149879989021664 
791	 0.150178972041561 
792	 0.150393348751669 
793	 0.149904793724455 
794	 0.149677070015504 
795	 0.149989208173878 
796	 0.150251736697536 
797	 0.15042929031827 
798	 0.150534411164359 
799	 0.150816683574273 
800	 0.15113883100521 
801	 0.150930741700265 
802	 0.151057735975292 
803	 0.1516791931913 
804	 0.151616019503721 
805	 0.151492018367963 
806	 0.152007188010804 
807	 0.151488428981445 
808	 0.150492654188498 
809	 0.15163026662317 
810	 0.152648956477202 
811	 0.152618298726615 
812	 0.152398052342733 
813	 0.152230026185889 
814	 0.15234800681883 
815	 0.152563283039853 
816	 0.152661134657721 
817	 0.152109186480646 
818	 0.151842479947565 
819	 0.152272553142811 
820	 0.153064931257268 
821	 0.154034806465721 
822	 0.154971973305884 
823	 0.1547316769049 
824	 0.153807655422528 
825	 0.154382178695174 
826	 0.154645363920301 
827	 0.154075906325238 
828	 0.154380609819229 
829	 0.155013161706764 
830	 0.155135055463323 
831	 0.155690152274688 
832	 0.156383304125378 
833	 0.155725555368143 
834	 0.155682439577772 
835	 0.15670782227845 
836	 0.156115753511146 
837	 0.155158950470577 
838	 0.155478528219203 
839	 0.156332447362697 
840	 0.157211908396078 
841	 0.157224238811663 
842	 0.156794172330814 
843	 0.156224556306663 
844	 0.155999114320254 
845	 0.156320235349464 
846	 0.157268049677549 
847	 0.156790277907491 
848	 0.155485998551544 
849	 0.156521857117092 
850	 0.156772878666229 
851	 0.155432351447098 
852	 0.155695124775665 
853	 0.156596316670072 
854	 0.156850117244554 
855	 0.157286040775482 
856	 0.157744079645931 
857	 0.157506188703003 
858	 0.157204371769167 
859	 0.157035442721706 
860	 0.156674182970681 
861	 0.156718751390226 
862	 0.157636768170606 
863	 0.157675262799361 
864	 0.157154380752876 
865	 0.157665380475722 
866	 0.157887907171522 
867	 0.157634747286519 
868	 0.158256320905349 
869	 0.158537101289779 
870	 0.157648895654193 
871	 0.157974798638489 
872	 0.158849202577728 
873	 0.158221945455801 
874	 0.158185369028307 
875	 0.15924255564932 
876	 0.160910461573466 
877	 0.161485676241348 
878	 0.160079697444771 
879	 0.159853870295859 
880	 0.160524645868105 
881	 0.160858399884388 
882	 0.161282639304254 
883	 0.161770648993169 
884	 0.162001701252782 
885	 0.162135341813961 
886	 0.16231242141809 
887	 0.16287028657437 
888	 0.163270002870274 
889	 0.162785105904117 
890	 0.162739678530681 
891	 0.163055666696328 
892	 0.162317449025932 
893	 0.162174049695094 
894	 0.163177193183032 
895	 0.163456045999877 
896	 0.163411610558195 
897	 0.163727361198265 
898	 0.164823849584065 
899	 0.165762521934292 
900	 0.16383895676837 
901	 0.163943548629981 
902	 0.166507540983945 
903	 0.165717795622505 
904	 0.164130115871243 
905	 0.163902141676533 
906	 0.164327545101766 
907	 0.165400316874596 
908	 0.16732300915679 
909	 0.167109884184985 
910	 0.164923038122277 
911	 0.164741443814499 
912	 0.166678666418201 
913	 0.169847089010351 
914	 0.168203678548565 
915	 0.16530553458822 
916	 0.166148261683292 
917	 0.167003631391743 
918	 0.166989511008365 
919	 0.165572738919324 
920	 0.165827319330301 
921	 0.168050331880521 
922	 0.167733054505688 
923	 0.166323140791948 
924	 0.16541850270229 
925	 0.166203023165672 
926	 0.167085550756691 
927	 0.164024866716826 
928	 0.161798970450467 
929	 0.162649303649287 
930	 0.168128169317282 
931	 0.170932545137863 
932	 0.165569300821106 
933	 0.162371120079806 
934	 0.163352203489883 
935	 0.168204056881842 
936	 0.168064491747684 
937	 0.163996038446696 
938	 0.164619064991656 
939	 0.167193758950483 
940	 0.169794103379395 
941	 0.168630415738435 
942	 0.166107408561981 
943	 0.16461970255987 
944	 0.167676272622166 
945	 0.169479246314656 
946	 0.160192179569817 
947	 0.159757732073023 
948	 0.167532652986673 
949	 0.163816409881882 
950	 0.162136687842832 
951	 0.166326690281331 
952	 0.164576995025005 
953	 0.162478551438746 
954	 0.16531262579044 
955	 0.165896180498829 
956	 0.163861660208795 
957	 0.160276338406615 
958	 0.163312177259062 
959	 0.171131337357444 
960	 0.170863543085306 
961	 0.170230122331895 
962	 0.17190654345236 
963	 0.168415982622708 
964	 0.165794930963983 
965	 0.169788737122887 
966	 0.170526027831534 
967	 0.168187603317631 
968	 0.166153232507894 
969	 0.167557506447346 
970	 0.171310725593268 
971	 0.170648513382025 
972	 0.167639629648051 
973	 0.164304573406006 
974	 0.164756958122254 
975	 0.1671720565522 
976	 0.168734452054727 
977	 0.165589362150223 
978	 0.161854006158744 
979	 0.168313749011237 
980	 0.169590058694289 
981	 0.164461340069553 
982	 0.166216086599011 
983	 0.168896435492765 
984	 0.169871072503609 
985	 0.174745911479359 
986	 0.177635287248933 
987	 0.172683667197587 
988	 0.169671711036344 
989	 0.169688378353419 
990	 0.170942947205079 
991	 0.171365244876315 
992	 0.170809534879369 
993	 0.172253698069646 
994	 0.16983903482892 
995	 0.163017391283007 
996	 0.167045253074036 
997	 0.171727079726848 
998	 0.166980289635462 
999	 0.165408983377837 
1000	 0.167391951152202 
1001	 0.170030195385579 
1002	 0.16737084781929 
1003	 0.160683599972267 
1004	 0.1595450018933 
1005	 0.161916158909054 
1006	 0.166633760832081 
1007	 0.172056784626945 
1008	 0.175000423827258 
1009	 0.173559863807126 
1010	 0.173095723631301 
1011	 0.170839154058043 
1012	 0.16245534467607 
1013	 0.159435274273383 
1014	 0.16339367613018 
1015	 0.170998868737377 
1016	 0.179338954212726 
1017	 0.18455386243964 
1018	 0.176595737552713 
1019	 0.17230094077199 
1020	 0.178266054020494 
1021	 0.169652019661708 
1022	 0.159460539284568 
1023	 0.162674955847465 
1024	 0.172312205999561 
1025	 0.180757992304783 
1026	 0.177843143701201 
1027	 0.178219545934249 
1028	 0.180734386044225 
1029	 0.170997636397795 
1030	 0.159470616175471 
1031	 0.152306015799213 
1032	 0.154813410559189 
1033	 0.161897390403251 
1034	 0.169032983652782 
1035	 0.17088977720482 
1036	 0.171618358630072 
1037	 0.175596183817457 
1038	 0.173704737268392 
1039	 0.167091825826174 
1040	 0.160771635991204 
1041	 0.164181030374568 
1042	 0.173836032009588 
1043	 0.172976442111623 
1044	 0.17006305178333 
1045	 0.169480413585226 
1046	 0.179269115041631 
1047	 0.17530873864833 
1048	 0.150730786599009 
1049	 0.159230925441349 
1050	 0.172673088611326 
1051	 0.162086287819101 
1052	 0.158276242101372 
1053	 0.167764416412531 
1054	 0.190158091056409 
1055	 0.171269597441539 
1056	 0.134483882197726 
1057	 0.166345026934297 
1058	 0.183058196936937 
1059	 0.168077794808244 
1060	 0.162899815072669 
1061	 0.155645180965001 
1062	 0.147512540919699 
1063	 0.165971363639612 
1064	 0.184031069740863 
1065	 0.179706767767843 
1066	 0.163001997951728 
1067	 0.145653661009593 
1068	 0.136057796882283 
1069	 0.112303411066944 
1070	 0.105277273349609 
1071	 0.164318252207031 
1072	 0.198691196526113 
1073	 0.19611154300531 
1074	 0.165046922486057 
1075	 0.160989034069296 
