Wavelength	SHSI00381.asd
325	 6.37102104721393E-02 
326	 7.29240222090115E-02 
327	 7.47242516514662E-02 
328	 0.073641985963701 
329	 0.074680353158895 
330	 7.84895264332874E-02 
331	 7.80425356697737E-02 
332	 0.075693649970196 
333	 7.41815342790492E-02 
334	 7.39990028458941E-02 
335	 7.34812936447147E-02 
336	 6.73861716385115E-02 
337	 6.74091058248475E-02 
338	 7.47042617255746E-02 
339	 7.81172238842394E-02 
340	 0.077337758303017 
341	 0.073024317951632 
342	 6.87476124637505E-02 
343	 6.71862496862505E-02 
344	 7.21662142502919E-02 
345	 7.43476870865406E-02 
346	 7.29825582048889E-02 
347	 7.66787176971514E-02 
348	 0.077590094618604 
349	 0.071777324780892 
350	 7.26981974895909E-02 
351	 7.58829651468935E-02 
352	 7.15575593889309E-02 
353	 7.11703886506162E-02 
354	 7.56065543999969E-02 
355	 0.077912007464158 
356	 0.077447548047686 
357	 7.45023825150876E-02 
358	 7.39845317116229E-02 
359	 7.45621425688643E-02 
360	 7.32753076037953E-02 
361	 7.22573370629656E-02 
362	 7.18073383840854E-02 
363	 7.10617071306984E-02 
364	 7.07733888944676E-02 
365	 0.071355251670612 
366	 7.32136068365347E-02 
367	 7.39653606675928E-02 
368	 7.04880487009322E-02 
369	 7.01137945283448E-02 
370	 7.27827165999231E-02 
371	 7.22112787447805E-02 
372	 7.17786733067595E-02 
373	 7.30165718027229E-02 
374	 7.38955545592519E-02 
375	 7.28944290260439E-02 
376	 6.84061955466856E-02 
377	 6.81139752124745E-02 
378	 0.071452090058511 
379	 7.00300770777944E-02 
380	 6.90746500535774E-02 
381	 7.07021276771659E-02 
382	 7.09925054626057E-02 
383	 7.07070354407321E-02 
384	 7.13022871232516E-02 
385	 7.19481372435423E-02 
386	 7.22455767902323E-02 
387	 7.17661325202137E-02 
388	 7.06654464704859E-02 
389	 6.92639302456936E-02 
390	 6.84581357078527E-02 
391	 6.87178901615717E-02 
392	 7.04059403368542E-02 
393	 7.12709313035486E-02 
394	 7.12270200691105E-02 
395	 7.20160258586554E-02 
396	 7.07797215171187E-02 
397	 6.73837227322664E-02 
398	 6.74824451198436E-02 
399	 0.068938201665033 
400	 6.91381162356576E-02 
401	 6.82485707439745E-02 
402	 6.72124796984312E-02 
403	 6.83458852134047E-02 
404	 6.92396267374312E-02 
405	 6.90521920509201E-02 
406	 0.069255365525187 
407	 6.96496555143292E-02 
408	 6.98327251607159E-02 
409	 6.91316041226793E-02 
410	 6.79632879822154E-02 
411	 6.77730328637325E-02 
412	 6.82786987963653E-02 
413	 6.91219636349564E-02 
414	 6.89152396459828E-02 
415	 0.068659301854733 
416	 6.97927068987894E-02 
417	 7.00239827335248E-02 
418	 6.93188513389686E-02 
419	 6.92678693282974E-02 
420	 6.93321337822825E-02 
421	 6.93376083445297E-02 
422	 7.02310173451782E-02 
423	 7.09158512493401E-02 
424	 6.96870482644252E-02 
425	 6.96246124569669E-02 
426	 7.08936961266333E-02 
427	 7.10627169236071E-02 
428	 7.10190884167988E-02 
429	 7.12572530368556E-02 
430	 0.070912548118232 
431	 7.04753260788013E-02 
432	 7.09406576454025E-02 
433	 7.07540326411411E-02 
434	 6.99630875337379E-02 
435	 7.02465782519894E-02 
436	 7.06744908689532E-02 
437	 7.06403325032251E-02 
438	 7.06613194617675E-02 
439	 7.07753763697913E-02 
440	 7.09246796044615E-02 
441	 0.071090114848262 
442	 7.12902764451151E-02 
443	 7.17084808112399E-02 
444	 7.18544424411974E-02 
445	 7.14284024256825E-02 
446	 7.16900484766668E-02 
447	 7.23898469958032E-02 
448	 7.25455124222572E-02 
449	 7.23718962159789E-02 
450	 7.20890095150391E-02 
451	 7.25195225792261E-02 
452	 7.29425097049974E-02 
453	 7.26400162078876E-02 
454	 7.25376374527064E-02 
455	 7.27565815130882E-02 
456	 7.31596277808826E-02 
457	 7.32465729545894E-02 
458	 7.29156920429518E-02 
459	 7.29597043547409E-02 
460	 7.32745747723661E-02 
461	 7.36441407212234E-02 
462	 7.36558012059993E-02 
463	 7.34379420712152E-02 
464	 0.073695801121759 
465	 7.40928354137482E-02 
466	 7.44071342499174E-02 
467	 0.074394784103256 
468	 7.42200921043092E-02 
469	 7.41684241667855E-02 
470	 0.074085889798578 
471	 7.39869907119596E-02 
472	 7.39942128151961E-02 
473	 7.41540211143507E-02 
474	 7.44633364063509E-02 
475	 7.46660879446717E-02 
476	 7.47907790528017E-02 
477	 7.49721608057664E-02 
478	 7.49304437801794E-02 
479	 7.47622726288271E-02 
480	 0.075222084753674 
481	 7.55714483128529E-02 
482	 7.52499513693708E-02 
483	 7.51477304653521E-02 
484	 7.52569790215653E-02 
485	 7.51742323927333E-02 
486	 7.51371364443079E-02 
487	 7.52189757682949E-02 
488	 7.53731094238931E-02 
489	 7.54539626624554E-02 
490	 7.53395387971844E-02 
491	 7.53970267020358E-02 
492	 7.55893692624082E-02 
493	 7.56079576666216E-02 
494	 7.56377492843501E-02 
495	 7.57724913963277E-02 
496	 7.60334665587372E-02 
497	 7.64543754306526E-02 
498	 7.70760991639751E-02 
499	 7.73078735689492E-02 
500	 7.71599474528867E-02 
501	 7.72190282856378E-02 
502	 7.72965556211999E-02 
503	 7.73313676950811E-02 
504	 7.77235481009932E-02 
505	 0.078217648024967 
506	 7.83313433273351E-02 
507	 7.83019649689157E-02 
508	 7.83512909000564E-02 
509	 7.90468435677318E-02 
510	 7.98245776546447E-02 
511	 8.02340369696781E-02 
512	 8.06604856802495E-02 
513	 8.10766191757068E-02 
514	 8.12569784034402E-02 
515	 8.15463107203862E-02 
516	 8.19711168811834E-02 
517	 8.18731406300287E-02 
518	 8.19295191770767E-02 
519	 8.28596249850161E-02 
520	 8.34968787882474E-02 
521	 8.37779635193227E-02 
522	 8.42162868487294E-02 
523	 0.084783888617073 
524	 8.54315697412624E-02 
525	 8.58457131586475E-02 
526	 8.61033434245418E-02 
527	 8.63586857272119E-02 
528	 8.66210502727943E-02 
529	 8.69267725227817E-02 
530	 8.73675561608446E-02 
531	 8.77933156567212E-02 
532	 8.81159274200611E-02 
533	 8.84664726110839E-02 
534	 0.08889242980712 
535	 8.94667771525476E-02 
536	 8.99003879743104E-02 
537	 9.01272674033802E-02 
538	 9.03465042669382E-02 
539	 9.05345980346377E-02 
540	 9.06689407722194E-02 
541	 0.090924413360513 
542	 9.12952014396683E-02 
543	 9.17019061685069E-02 
544	 9.19455162203243E-02 
545	 9.20031191577615E-02 
546	 9.23322916336413E-02 
547	 9.27135809264978E-02 
548	 9.28082943698397E-02 
549	 0.093071727418191 
550	 9.34774818664953E-02 
551	 9.35332197551026E-02 
552	 9.36367445905507E-02 
553	 9.40041088438306E-02 
554	 9.41859767162337E-02 
555	 0.094285237203206 
556	 9.46273301279198E-02 
557	 9.47690756200318E-02 
558	 9.46498687029246E-02 
559	 9.46654170076223E-02 
560	 9.47975112948859E-02 
561	 9.50041751740947E-02 
562	 9.51949031507859E-02 
563	 9.53048758584388E-02 
564	 9.52215259775576E-02 
565	 9.51545985775533E-02 
566	 9.51955429829972E-02 
567	 9.52891391261264E-02 
568	 9.53437173335426E-02 
569	 9.52515737733038E-02 
570	 9.51773277466495E-02 
571	 9.51321719530377E-02 
572	 9.49964123225579E-02 
573	 0.094859165379459 
574	 9.47849715739316E-02 
575	 9.48403500063332E-02 
576	 0.09488944209708 
577	 0.094658724275962 
578	 9.46151124580661E-02 
579	 9.47694668125657E-02 
580	 9.44419573395932E-02 
581	 9.42093207651275E-02 
582	 0.094560433243013 
583	 9.48112689107058E-02 
584	 9.48264598254703E-02 
585	 9.46034053817922E-02 
586	 0.094331414726435 
587	 0.094157460080948 
588	 0.094336895353615 
589	 9.46311208184356E-02 
590	 9.46908538432484E-02 
591	 9.44548473773653E-02 
592	 9.40666421441165E-02 
593	 9.39983747193678E-02 
594	 9.40134199804687E-02 
595	 9.39775812492952E-02 
596	 0.093955060040284 
597	 9.39941700055591E-02 
598	 9.41836226622422E-02 
599	 0.094216930128989 
600	 9.40779053526934E-02 
601	 9.41658642335132E-02 
602	 9.42726901181862E-02 
603	 9.42042733467474E-02 
604	 9.40434197149343E-02 
605	 9.38930547764743E-02 
606	 9.39881480909056E-02 
607	 9.40011730641134E-02 
608	 9.38181240034454E-02 
609	 9.36066916952231E-02 
610	 9.35534408978531E-02 
611	 9.38584636968075E-02 
612	 9.34004832578606E-02 
613	 9.24481452314333E-02 
614	 9.28511262903824E-02 
615	 9.33212846340387E-02 
616	 9.30886403785763E-02 
617	 9.27531585224502E-02 
618	 9.24521631596619E-02 
619	 9.22633381316101E-02 
620	 9.22736765184386E-02 
621	 9.24317305478821E-02 
622	 9.24462069700669E-02 
623	 9.22395517736694E-02 
624	 9.18102323452361E-02 
625	 9.20053537568225E-02 
626	 9.25536063602898E-02 
627	 9.23707742895386E-02 
628	 9.19198301466055E-02 
629	 9.14949640909633E-02 
630	 9.17137288844418E-02 
631	 9.21816643618383E-02 
632	 9.23396316841684E-02 
633	 9.24041347127844E-02 
634	 9.23060772641318E-02 
635	 0.091608556424088 
636	 0.091313930267552 
637	 9.19017083702904E-02 
638	 9.19820968252849E-02 
639	 9.17237096122561E-02 
640	 9.17792461607942E-02 
641	 9.16908827541214E-02 
642	 9.13776810151807E-02 
643	 9.10479165961956E-02 
644	 9.08171757855339E-02 
645	 0.090772818101971 
646	 9.07706006624268E-02 
647	 0.090741862640473 
648	 9.06388493335623E-02 
649	 9.02963158547034E-02 
650	 8.97656292615598E-02 
651	 8.97278266805249E-02 
652	 8.97332154693565E-02 
653	 8.91891661925363E-02 
654	 8.91864742981663E-02 
655	 0.089586313673565 
656	 8.89745969616952E-02 
657	 8.81415868394531E-02 
658	 8.76420096347558E-02 
659	 0.08748864789962 
660	 8.74070762484733E-02 
661	 8.69721432722605E-02 
662	 0.086551173198816 
663	 8.61646713087694E-02 
664	 8.54440089214155E-02 
665	 8.47299787788752E-02 
666	 8.43110005808888E-02 
667	 8.39531069728611E-02 
668	 8.36616725184232E-02 
669	 8.35637151076883E-02 
670	 8.34355027066114E-02 
671	 0.083202153066612 
672	 8.29675647558015E-02 
673	 8.28641438340207E-02 
674	 8.30184280287187E-02 
675	 8.29403743441098E-02 
676	 8.26912218472892E-02 
677	 8.27758257622169E-02 
678	 8.31153882309673E-02 
679	 8.36225836819283E-02 
680	 8.40035165301058E-02 
681	 8.41697523000482E-02 
682	 8.40236232255418E-02 
683	 8.44765748186117E-02 
684	 8.55446200181866E-02 
685	 8.61184398860503E-02 
686	 8.68686512757821E-02 
687	 8.83313245508025E-02 
688	 8.93846067370995E-02 
689	 9.01377276127839E-02 
690	 9.15454014383039E-02 
691	 9.28499281858897E-02 
692	 9.39630309587794E-02 
693	 9.54859219209579E-02 
694	 9.71452027434775E-02 
695	 9.85576144053245E-02 
696	 9.97753464613518E-02 
697	 0.101009129044923 
698	 0.102909353499878 
699	 0.104512860682891 
700	 0.105459270217364 
701	 0.106929868768775 
702	 0.108453168537812 
703	 0.109222614751475 
704	 0.110346374862367 
705	 0.11189185183391 
706	 0.113133672564159 
707	 0.114003581519374 
708	 0.114503667789021 
709	 0.115159015460119 
710	 0.115896629572689 
711	 0.116379102442378 
712	 0.117287802661294 
713	 0.118546824662878 
714	 0.118899964469884 
715	 0.11896397452547 
716	 0.119377905500111 
717	 0.120121410170146 
718	 0.121001327846802 
719	 0.12119675951596 
720	 0.12155351942035 
721	 0.122213527345521 
722	 0.122357141386855 
723	 0.122517253958002 
724	 0.123292972887166 
725	 0.1232496207201 
726	 0.122603263688961 
727	 0.123072585742112 
728	 0.123681150775605 
729	 0.123992349045451 
730	 0.12456966927487 
731	 0.125098663799324 
732	 0.125100782744962 
733	 0.12502467031595 
734	 0.125061776811894 
735	 0.125451966382116 
736	 0.125777400883169 
737	 0.12578594704415 
738	 0.125994080225994 
739	 0.126331658878046 
740	 0.12651910240175 
741	 0.126815495997398 
742	 0.127217014125262 
743	 0.127430780296283 
744	 0.127435457435265 
745	 0.127262261232248 
746	 0.127382402894283 
747	 0.127748091731803 
748	 0.128095853224728 
749	 0.128064012075947 
750	 0.127642481482577 
751	 0.127593399457012 
752	 0.127908033707512 
753	 0.128474864296221 
754	 0.128559829752407 
755	 0.128199664896887 
756	 0.12791906250771 
757	 0.12798272500592 
758	 0.128462243557051 
759	 0.128445273699204 
760	 0.128179923846017 
761	 0.128887970911637 
762	 0.128737522169372 
763	 0.128051575214491 
764	 0.128593548523736 
765	 0.129587926506684 
766	 0.130445937230082 
767	 0.130066674243725 
768	 0.129484326286552 
769	 0.129951172796038 
770	 0.130346432527096 
771	 0.130431810817019 
772	 0.130373196610037 
773	 0.130267017522251 
774	 0.130198611677339 
775	 0.130200402335314 
776	 0.130416125390924 
777	 0.131135577159073 
778	 0.131282380825221 
779	 0.130695460094271 
780	 0.130192490140903 
781	 0.130079560317838 
782	 0.130520951382722 
783	 0.13067612771031 
784	 0.130714060305087 
785	 0.131362007937006 
786	 0.131672142052867 
787	 0.131437775495983 
788	 0.131288548722531 
789	 0.131313156815065 
790	 0.131569567970809 
791	 0.132125860830043 
792	 0.132557646167809 
793	 0.131763839594768 
794	 0.131457459815508 
795	 0.132094627757715 
796	 0.132511243795969 
797	 0.132574921520031 
798	 0.132261937091334 
799	 0.13216955085583 
800	 0.132317912566905 
801	 0.132351808507171 
802	 0.132649422042152 
803	 0.13315147974341 
804	 0.132783156788613 
805	 0.132235650720879 
806	 0.132308471519047 
807	 0.132094427274553 
808	 0.131865327344472 
809	 0.133004353686064 
810	 0.133751090739977 
811	 0.133399871237281 
812	 0.132939457081515 
813	 0.13263073455784 
814	 0.132717513542624 
815	 0.133122638957821 
816	 0.133586156380339 
817	 0.133400045071886 
818	 0.133255679229135 
819	 0.133487022198603 
820	 0.134057328395865 
821	 0.134628174971015 
822	 0.134817021709807 
823	 0.135134107050212 
824	 0.135457450022676 
825	 0.135227889292171 
826	 0.134590415086674 
827	 0.133790684836194 
828	 0.133982468684328 
829	 0.134342397518601 
830	 0.133775242794562 
831	 0.133946858129143 
832	 0.134751849991499 
833	 0.134828947254683 
834	 0.134985390908498 
835	 0.135369230318317 
836	 0.134832609623293 
837	 0.134205926690478 
838	 0.134499015138651 
839	 0.134839793690121 
840	 0.134999831608026 
841	 0.134853759977906 
842	 0.134919084618678 
843	 0.135282658561467 
844	 0.134912898602261 
845	 0.134769781016406 
846	 0.135924961525778 
847	 0.136092387943263 
848	 0.135330856100514 
849	 0.135234615581354 
850	 0.135359706431146 
851	 0.135413522010019 
852	 0.13446291343194 
853	 0.133893888977639 
854	 0.135134943938128 
855	 0.13583979068916 
856	 0.135798034179431 
857	 0.135683934246219 
858	 0.136063068313575 
859	 0.136797158236403 
860	 0.135890608277215 
861	 0.135052427536858 
862	 0.135919905403969 
863	 0.136675209069032 
864	 0.136927773319889 
865	 0.136624332702575 
866	 0.135953247500314 
867	 0.135357874989227 
868	 0.136364167879717 
869	 0.136993827387887 
870	 0.135842281280778 
871	 0.136154891669487 
872	 0.13716760851622 
873	 0.136371146708887 
874	 0.136409070130888 
875	 0.137640476204946 
876	 0.138345928558736 
877	 0.137866377908467 
878	 0.13611223442095 
879	 0.136259488424726 
880	 0.137268997171556 
881	 0.136683527499705 
882	 0.137509775507167 
883	 0.139248429505386 
884	 0.137323549905657 
885	 0.135629431919903 
886	 0.136308225778917 
887	 0.137530035209846 
888	 0.138267452476216 
889	 0.137473678994238 
890	 0.136647464533286 
891	 0.136297426103166 
892	 0.136777000267576 
893	 0.137029304765654 
894	 0.136711477941249 
895	 0.137309279000043 
896	 0.13791777529687 
897	 0.137369033094173 
898	 0.136643043391179 
899	 0.136387111829357 
900	 0.137658997203536 
901	 0.138220011676863 
902	 0.137678461828343 
903	 0.138111947326814 
904	 0.13839691091573 
905	 0.137796594006867 
906	 0.138440510719076 
907	 0.139370337972276 
908	 0.1383167716997 
909	 0.138451123511111 
910	 0.14000253984427 
911	 0.140172118293812 
912	 0.140015038832993 
913	 0.140107207277213 
914	 0.139958415482327 
915	 0.139897261534563 
916	 0.140319554904158 
917	 0.139994910697695 
918	 0.139160490163153 
919	 0.139210971935756 
920	 0.13885287767315 
921	 0.137928331117556 
922	 0.138112955321987 
923	 0.137841914310191 
924	 0.135980475998563 
925	 0.137145412228362 
926	 0.139601668135803 
927	 0.137809528364691 
928	 0.136704976956488 
929	 0.137837914467476 
930	 0.139820657818875 
931	 0.140050088879175 
932	 0.136761003214893 
933	 0.135479425962287 
934	 0.136436666194446 
935	 0.138274791342266 
936	 0.139705144897941 
937	 0.140238206237216 
938	 0.139379128721326 
939	 0.142739748576927 
940	 0.148654123281709 
941	 0.142343403283001 
942	 0.1390187434741 
943	 0.148108652661748 
944	 0.144391920296565 
945	 0.134560962482326 
946	 0.134505549266327 
947	 0.139798412928681 
948	 0.146285823085515 
949	 0.145068699068194 
950	 0.138783788977779 
951	 0.131233139851961 
952	 0.134442571258075 
953	 0.140337549068221 
954	 0.14086687906608 
955	 0.141134473874095 
956	 0.140696380463056 
957	 0.137177572777536 
958	 0.139360572790544 
959	 0.145992751506255 
960	 0.145697429755182 
961	 0.144096353524838 
962	 0.143859772887836 
963	 0.143575040984944 
964	 0.142944779918893 
965	 0.141758450094355 
966	 0.139499787713027 
967	 0.13760550107322 
968	 0.138928868206748 
969	 0.141198862232575 
970	 0.143028341600309 
971	 0.142720853591073 
972	 0.142092185571285 
973	 0.142004345455634 
974	 0.140399772299855 
975	 0.140080656513534 
976	 0.143874385622335 
977	 0.144131182858361 
978	 0.14127773064824 
979	 0.139415999979782 
980	 0.138571352834376 
981	 0.139744515094617 
982	 0.146866913820196 
983	 0.147604651271729 
984	 0.138362415293422 
985	 0.141453744093088 
986	 0.149104699177444 
987	 0.150878241223273 
988	 0.146904567920419 
989	 0.14064470885743 
990	 0.13920432840017 
991	 0.138183748751917 
992	 0.137539350215841 
993	 0.141760203899937 
994	 0.143662449979703 
995	 0.140843755586805 
996	 0.143472696784836 
997	 0.14454212417259 
998	 0.137716653532198 
999	 0.136772433165029 
1000	 0.140168768459622 
1001	 0.141090488349492 
1002	 0.145152007167409 
1003	 0.150112863350216 
1004	 0.144321842558294 
1005	 0.140043320149121 
1006	 0.141844583318612 
1007	 0.144679675106512 
1008	 0.147381213158368 
1009	 0.148700869261705 
1010	 0.146315984711649 
1011	 0.141096765949796 
1012	 0.134952066241451 
1013	 0.134105840096461 
1014	 0.137930899848119 
1015	 0.141033187237966 
1016	 0.142942023033411 
1017	 0.142953386278194 
1018	 0.13944014248069 
1019	 0.140026733362765 
1020	 0.146386777203411 
1021	 0.140804649623944 
1022	 0.131858335515164 
1023	 0.13068449631557 
1024	 0.143724873230349 
1025	 0.157503955093783 
1026	 0.14889752236222 
1027	 0.14933816532097 
1028	 0.15721774323757 
1029	 0.143893169434028 
1030	 0.132818233782074 
1031	 0.132188248917641 
1032	 0.135380563528603 
1033	 0.137624444408335 
1034	 0.136463981052796 
1035	 0.136400968945907 
1036	 0.142234143416928 
1037	 0.156313605456426 
1038	 0.157231353318695 
1039	 0.147412317753297 
1040	 0.138401421815224 
1041	 0.137282589304261 
1042	 0.143182482116328 
1043	 0.147940906549374 
1044	 0.148436434506959 
1045	 0.145173744539872 
1046	 0.14950090176555 
1047	 0.14454394169858 
1048	 0.126141637969756 
1049	 0.134205143637981 
1050	 0.14626905506846 
1051	 0.140171242331805 
1052	 0.149275347297797 
1053	 0.161149154421957 
1054	 0.151933242203239 
1055	 0.135231206055373 
1056	 0.125451463054244 
1057	 0.149928386996518 
1058	 0.152841513693885 
1059	 0.131242662405427 
1060	 0.144744267840617 
1061	 0.160379405673109 
1062	 0.162121187209949 
1063	 0.152664871683092 
1064	 0.144817720847303 
1065	 0.145898237905018 
1066	 0.133299179493127 
1067	 0.114327792379153 
1068	 9.85752757781345E-02 
1069	 9.68724331837998E-02 
1070	 0.116603947292061 
1071	 0.157813778272009 
1072	 0.149072150437589 
1073	 0.108118645381459 
1074	 0.123268713479588 
1075	 0.155999640614316 
