Wavelength	SHSI00140.asd
325	 0.049740227640771 
326	 5.27565908406606E-02 
327	 6.52319944544956E-02 
328	 6.01191611082913E-02 
329	 5.65800727931185E-02 
330	 5.99949091212558E-02 
331	 6.03010820111416E-02 
332	 5.79945513594216E-02 
333	 5.45155678385694E-02 
334	 5.62752598384436E-02 
335	 0.060112583634175 
336	 5.58837605528648E-02 
337	 0.05489405142039 
338	 5.85128082923531E-02 
339	 5.64712419971492E-02 
340	 5.35544062707902E-02 
341	 5.37817545070109E-02 
342	 5.35155174421327E-02 
343	 5.31310758797225E-02 
344	 5.44942264442281E-02 
345	 5.41999532707734E-02 
346	 5.26205503157246E-02 
347	 5.51511214281564E-02 
348	 5.60672161450201E-02 
349	 0.052326362823229 
350	 0.05237573731519 
351	 0.054817007112596 
352	 5.58937326185385E-02 
353	 5.54810168005722E-02 
354	 5.39273662777727E-02 
355	 5.25213414281492E-02 
356	 5.27035999439895E-02 
357	 5.49391584952742E-02 
358	 5.61892395586644E-02 
359	 0.056040863309127 
360	 5.44975529788812E-02 
361	 5.41765244217974E-02 
362	 5.50379768445164E-02 
363	 5.44950195586487E-02 
364	 5.38455972689899E-02 
365	 5.38032772068584E-02 
366	 5.40917620944327E-02 
367	 0.054269648564333 
368	 5.38016237406683E-02 
369	 5.39709010554869E-02 
370	 5.46534569301846E-02 
371	 5.45287626681734E-02 
372	 5.39079055832758E-02 
373	 5.30881515877694E-02 
374	 5.29354520448106E-02 
375	 5.31035840211857E-02 
376	 5.29811029445764E-02 
377	 5.25631847470438E-02 
378	 5.21494930238427E-02 
379	 5.28089183022669E-02 
380	 5.30436547501269E-02 
381	 5.23111079192067E-02 
382	 5.24928556069961E-02 
383	 5.28606669693827E-02 
384	 5.22745468261712E-02 
385	 5.09496668908596E-02 
386	 4.98517590969542E-02 
387	 5.16732245112256E-02 
388	 5.29728825974109E-02 
389	 0.052227210967446 
390	 5.08606634135942E-02 
391	 5.00383784228322E-02 
392	 5.08563415551072E-02 
393	 5.20671690706098E-02 
394	 5.27380013928489E-02 
395	 5.11081648723753E-02 
396	 5.01408238584002E-02 
397	 5.08092139940682E-02 
398	 5.07429105602701E-02 
399	 5.06264927375634E-02 
400	 5.13205392200758E-02 
401	 5.10568894128455E-02 
402	 5.02459124927593E-02 
403	 5.06160207732833E-02 
404	 5.11578767543209E-02 
405	 5.13853010620391E-02 
406	 5.10037802920146E-02 
407	 5.04574765176415E-02 
408	 5.03111127968562E-02 
409	 5.04363066665313E-02 
410	 5.05799213730222E-02 
411	 5.00310785869144E-02 
412	 4.98347384874018E-02 
413	 5.03626052365488E-02 
414	 5.06630263999897E-02 
415	 5.05400725015034E-02 
416	 4.98820747686298E-02 
417	 0.049848027918362 
418	 5.03295090128074E-02 
419	 5.00436910775103E-02 
420	 4.98622799237191E-02 
421	 5.01747177220779E-02 
422	 5.02286599971219E-02 
423	 5.01040210574458E-02 
424	 5.00325013919376E-02 
425	 5.02270837354494E-02 
426	 5.04985651036193E-02 
427	 4.99117380583389E-02 
428	 4.95405133928301E-02 
429	 4.99788117653676E-02 
430	 4.99925831407447E-02 
431	 4.96627123243958E-02 
432	 4.93792056985676E-02 
433	 4.95573015496635E-02 
434	 5.00786704415961E-02 
435	 5.00977673292263E-02 
436	 4.99130566289858E-02 
437	 4.97720112336648E-02 
438	 4.99574517384434E-02 
439	 0.050233420187511 
440	 5.00866063308163E-02 
441	 5.00034838295774E-02 
442	 5.00572572598134E-02 
443	 4.98842804423133E-02 
444	 4.98037154839205E-02 
445	 5.00410930011487E-02 
446	 5.00248758158007E-02 
447	 4.98772447506822E-02 
448	 0.050078194469814 
449	 5.03267828206633E-02 
450	 5.04877346164957E-02 
451	 5.04049522050413E-02 
452	 5.03934259113343E-02 
453	 5.07441851621202E-02 
454	 5.08721565838889E-02 
455	 5.07712499851651E-02 
456	 5.07219787434535E-02 
457	 0.050885187128899 
458	 5.12211914100409E-02 
459	 5.10311299868639E-02 
460	 5.06957319205828E-02 
461	 0.050726689968639 
462	 5.07973936058274E-02 
463	 5.08675886377914E-02 
464	 5.10603639564921E-02 
465	 5.11215253620791E-02 
466	 5.09726154564702E-02 
467	 5.10566527151682E-02 
468	 5.13052320080168E-02 
469	 5.15436651354289E-02 
470	 5.16156404639581E-02 
471	 5.15183608821986E-02 
472	 0.051391790786239 
473	 0.051434569157017 
474	 5.17472317689511E-02 
475	 5.20471029976876E-02 
476	 5.22141789300119E-02 
477	 5.21284366442535E-02 
478	 5.20005457958198E-02 
479	 5.18922611949512E-02 
480	 5.17149724896843E-02 
481	 5.16260142637047E-02 
482	 5.17442136271253E-02 
483	 5.19483347582599E-02 
484	 5.20529748594349E-02 
485	 5.16309503669001E-02 
486	 5.15598396688749E-02 
487	 5.19840775229628E-02 
488	 5.17680476099304E-02 
489	 5.14115935021871E-02 
490	 5.14988176799883E-02 
491	 0.051954980784832 
492	 5.24311704655519E-02 
493	 5.19927349209511E-02 
494	 5.18456987367252E-02 
495	 0.052390652381434 
496	 5.25569729425728E-02 
497	 5.25115842104314E-02 
498	 5.25990977275858E-02 
499	 5.28887756566111E-02 
500	 5.32749526956166E-02 
501	 5.33846806762929E-02 
502	 5.31457765750967E-02 
503	 5.26540787586779E-02 
504	 0.052953745533916 
505	 5.36005691772878E-02 
506	 5.36447352419849E-02 
507	 5.35543310467219E-02 
508	 5.35286222819106E-02 
509	 5.38314181470252E-02 
510	 5.42090497648137E-02 
511	 5.44411196933241E-02 
512	 5.44614917824303E-02 
513	 5.44940208881017E-02 
514	 5.51448315024195E-02 
515	 5.54634948897302E-02 
516	 5.52386083369361E-02 
517	 5.54275434115655E-02 
518	 5.56262666959685E-02 
519	 5.53537822551012E-02 
520	 5.52998549444617E-02 
521	 5.55532188128045E-02 
522	 5.59893344670179E-02 
523	 5.62603918381976E-02 
524	 5.62411491515517E-02 
525	 5.63242345424207E-02 
526	 0.056532682137071 
527	 5.68337374409862E-02 
528	 5.71012432352497E-02 
529	 5.72803898168108E-02 
530	 5.73240797027912E-02 
531	 5.74458940602767E-02 
532	 0.057768823960133 
533	 5.80461521438587E-02 
534	 0.058183599621056 
535	 5.80608094220377E-02 
536	 5.80495934991486E-02 
537	 5.82332859520356E-02 
538	 5.83489008159078E-02 
539	 0.058429123468338 
540	 5.85213740254192E-02 
541	 5.86963487452976E-02 
542	 0.058922895424364 
543	 5.90954123516449E-02 
544	 5.91951392934953E-02 
545	 5.92453130586089E-02 
546	 5.94668381812318E-02 
547	 5.96787326355488E-02 
548	 5.96232283715605E-02 
549	 5.96179817752478E-02 
550	 5.97164918070489E-02 
551	 5.97840833828447E-02 
552	 5.99496937043338E-02 
553	 6.02564394853733E-02 
554	 6.03585333801876E-02 
555	 0.060357429043389 
556	 6.05313081325069E-02 
557	 6.07417802751568E-02 
558	 6.09054938088935E-02 
559	 0.060824453254505 
560	 6.08253760274491E-02 
561	 6.11729599968768E-02 
562	 6.11319769135459E-02 
563	 6.08245535891699E-02 
564	 6.08943742240958E-02 
565	 6.11530749886286E-02 
566	 6.15037535172141E-02 
567	 6.17908681689896E-02 
568	 6.19195938263805E-02 
569	 6.18016280712001E-02 
570	 6.17696929522425E-02 
571	 6.18407448507561E-02 
572	 0.061741178265848 
573	 6.16090964967949E-02 
574	 6.15565730852406E-02 
575	 6.17623844198132E-02 
576	 6.20579954209535E-02 
577	 6.20982188246868E-02 
578	 6.20816217748245E-02 
579	 6.21037205590955E-02 
580	 6.23132082961384E-02 
581	 6.24847995300721E-02 
582	 6.24294934009174E-02 
583	 6.24243659610246E-02 
584	 6.24860811237693E-02 
585	 6.24993134928633E-02 
586	 6.26330494893523E-02 
587	 6.28812078098296E-02 
588	 6.27695148730315E-02 
589	 6.25857045821235E-02 
590	 0.06275740839244 
591	 0.062880109723938 
592	 6.29214338327236E-02 
593	 6.31486656027593E-02 
594	 6.31871591848096E-02 
595	 6.29139408104026E-02 
596	 6.32602625306392E-02 
597	 6.37529516271654E-02 
598	 6.33272351085735E-02 
599	 6.32450128385778E-02 
600	 6.36645860323831E-02 
601	 6.34616971413591E-02 
602	 6.32204442697913E-02 
603	 6.34712133076712E-02 
604	 6.37784510331927E-02 
605	 6.39853982920319E-02 
606	 6.39067764073871E-02 
607	 6.37955404496281E-02 
608	 0.063798855896194 
609	 6.40983272154893E-02 
610	 0.064365927488076 
611	 6.41792750633634E-02 
612	 0.064087235647638 
613	 6.41737653039017E-02 
614	 6.42584441853575E-02 
615	 0.06419005762998 
616	 6.39306730516916E-02 
617	 6.40267701473307E-02 
618	 6.42322856619282E-02 
619	 6.39715683783631E-02 
620	 6.39496968142461E-02 
621	 6.42757355237838E-02 
622	 6.44649800141394E-02 
623	 6.45784865742156E-02 
624	 6.46694206820607E-02 
625	 0.064522256506382 
626	 6.42621504766754E-02 
627	 6.42898343445264E-02 
628	 6.43558876880255E-02 
629	 6.43669843184827E-02 
630	 6.43367297776384E-02 
631	 0.064425286283235 
632	 6.48201549746241E-02 
633	 6.50233121234178E-02 
634	 6.49752273696263E-02 
635	 6.48850477525496E-02 
636	 6.49752649623843E-02 
637	 6.53367901135034E-02 
638	 6.55308434184261E-02 
639	 6.55094922087197E-02 
640	 6.52877791859568E-02 
641	 6.51868317002374E-02 
642	 6.53075619371246E-02 
643	 6.55698707204506E-02 
644	 6.56594616695732E-02 
645	 6.53471697551829E-02 
646	 6.53854062128656E-02 
647	 6.56588581059764E-02 
648	 6.54277590913747E-02 
649	 6.54476373792148E-02 
650	 6.58706929394058E-02 
651	 6.57750690220592E-02 
652	 0.065525770955695 
653	 6.56406361170286E-02 
654	 6.56070908256099E-02 
655	 6.54422558835229E-02 
656	 6.56526042340977E-02 
657	 6.58148370774193E-02 
658	 6.56993715418223E-02 
659	 6.56755224633637E-02 
660	 6.56217096852181E-02 
661	 6.52824665393396E-02 
662	 6.47873267477585E-02 
663	 6.42848725782625E-02 
664	 0.064177481295798 
665	 6.41683024219216E-02 
666	 6.39990114258891E-02 
667	 6.37897632359364E-02 
668	 6.36533384717677E-02 
669	 6.38678957741716E-02 
670	 6.38507534640578E-02 
671	 6.34620186160327E-02 
672	 6.32637343201244E-02 
673	 6.32337527438123E-02 
674	 6.32871983995308E-02 
675	 0.063314167614667 
676	 6.33477034829584E-02 
677	 0.063593930808635 
678	 6.38507127724564E-02 
679	 6.40122666357137E-02 
680	 6.41045463164544E-02 
681	 6.44317019535296E-02 
682	 6.54856607986725E-02 
683	 6.60614931978387E-02 
684	 6.60470735422406E-02 
685	 6.64974226243133E-02 
686	 6.72454786015252E-02 
687	 6.81270758293349E-02 
688	 6.90570346912607E-02 
689	 6.98249247404768E-02 
690	 0.070162920420325 
691	 7.10821050857824E-02 
692	 7.27023224231893E-02 
693	 7.38068572363328E-02 
694	 7.46324578932344E-02 
695	 7.54711376077427E-02 
696	 7.65155830606755E-02 
697	 0.077684286396674 
698	 7.86851259147136E-02 
699	 0.079576683473845 
700	 8.03840753248678E-02 
701	 8.12444144739459E-02 
702	 8.21210450632112E-02 
703	 8.29398377820735E-02 
704	 8.38113244885843E-02 
705	 8.46612335314671E-02 
706	 8.50898901980675E-02 
707	 8.55919869691952E-02 
708	 8.64382654335963E-02 
709	 0.086995109112878 
710	 0.087408714512425 
711	 8.81210173149531E-02 
712	 8.87283891035674E-02 
713	 8.92171666884179E-02 
714	 9.01034979496823E-02 
715	 9.10316944371281E-02 
716	 9.16964960310543E-02 
717	 9.22366496064455E-02 
718	 9.27828253240745E-02 
719	 9.35898782538464E-02 
720	 9.42375541931587E-02 
721	 9.45689708874573E-02 
722	 9.47617686821513E-02 
723	 9.49859397677794E-02 
724	 9.53927900174083E-02 
725	 9.56748781434705E-02 
726	 9.59962499206412E-02 
727	 9.72182331590707E-02 
728	 9.80577418114349E-02 
729	 9.79740295196095E-02 
730	 9.81845226227902E-02 
731	 9.86300704230224E-02 
732	 9.90275485443666E-02 
733	 9.93424248362675E-02 
734	 9.95976091736351E-02 
735	 9.98898023557002E-02 
736	 0.100243298336467 
737	 0.100666829585267 
738	 0.101170359457189 
739	 0.101657280025089 
740	 0.101937197493719 
741	 0.102385069742293 
742	 0.102993849245164 
743	 0.103230282044908 
744	 0.103356584207629 
745	 0.103636704768709 
746	 0.104313875551659 
747	 0.105124961767499 
748	 0.105355532913439 
749	 0.105560099801197 
750	 0.105909292890867 
751	 0.106200389329024 
752	 0.106456194341349 
753	 0.106712044513921 
754	 0.10686942503503 
755	 0.107059487251325 
756	 0.107737958307741 
757	 0.1082537175734 
758	 0.108372590990159 
759	 0.108606329241959 
760	 0.1093435832845 
761	 0.110677193186574 
762	 0.110839135629222 
763	 0.110288154130163 
764	 0.111013408960287 
765	 0.111911473795315 
766	 0.112493265769553 
767	 0.112673839253282 
768	 0.112769189325187 
769	 0.113125804161675 
770	 0.113530455608866 
771	 0.113894166096906 
772	 0.114082639625079 
773	 0.114259470504374 
774	 0.114574910787621 
775	 0.115310503655665 
776	 0.116134967176902 
777	 0.116409206996656 
778	 0.116560624976415 
779	 0.116803219573082 
780	 0.117424873619776 
781	 0.118126070704141 
782	 0.118651447987201 
783	 0.119052043541687 
784	 0.119325150615632 
785	 0.119426651667399 
786	 0.119717154729869 
787	 0.120277522041252 
788	 0.120780817478378 
789	 0.121307129903731 
790	 0.121902523103828 
791	 0.122047717666691 
792	 0.1219897977295 
793	 0.122541572552752 
794	 0.123170415580062 
795	 0.123689755361856 
796	 0.124190944101946 
797	 0.124523642006162 
798	 0.12458253331997 
799	 0.1251163455258 
800	 0.125997814116542 
801	 0.126507267468577 
802	 0.126734294354782 
803	 0.126774933923625 
804	 0.127027122548094 
805	 0.127530410308112 
806	 0.12827760724134 
807	 0.129084184883314 
808	 0.129806506817052 
809	 0.130189636478131 
810	 0.130574584580417 
811	 0.131062116357116 
812	 0.131204027496484 
813	 0.13142382765283 
814	 0.132284985194511 
815	 0.13258127137796 
816	 0.132445650690249 
817	 0.133312530222021 
818	 0.134248195992265 
819	 0.134810802556246 
820	 0.135068312474794 
821	 0.13519470672219 
822	 0.135400164992677 
823	 0.136432265280064 
824	 0.137839465176714 
825	 0.137950688160416 
826	 0.138126395991901 
827	 0.138865212650726 
828	 0.139375147415889 
829	 0.139628620726539 
830	 0.139694261574209 
831	 0.140204135915085 
832	 0.140969600088074 
833	 0.140970966926189 
834	 0.141250850341549 
835	 0.142139482268003 
836	 0.142754278858909 
837	 0.143279406033337 
838	 0.143992323604994 
839	 0.144353900777252 
840	 0.144508485004304 
841	 0.145210392253943 
842	 0.14575197152606 
843	 0.145936966414926 
844	 0.146557335111809 
845	 0.147075688692008 
846	 0.146870835247509 
847	 0.147085777143008 
848	 0.147714741983129 
849	 0.147989367622269 
850	 0.148351983807889 
851	 0.148969409121366 
852	 0.149782845047035 
853	 0.15041695086136 
854	 0.150505926576576 
855	 0.150458763296995 
856	 0.150473922017901 
857	 0.15070377772862 
858	 0.151438564968883 
859	 0.152624101117707 
860	 0.153605140307698 
861	 0.153842430548561 
862	 0.15300466658345 
863	 0.153222845366039 
864	 0.154231086835158 
865	 0.154322118711643 
866	 0.154876547583551 
867	 0.156071173515781 
868	 0.156573097112083 
869	 0.157094017011103 
870	 0.158145532909447 
871	 0.158333299888658 
872	 0.158172074852822 
873	 0.159027325107739 
874	 0.160147706883717 
875	 0.161074609168612 
876	 0.160923577342324 
877	 0.160864781429848 
878	 0.16171768025313 
879	 0.162777422490813 
880	 0.163832464157912 
881	 0.164733441614383 
882	 0.164931625361731 
883	 0.164883292834242 
884	 0.166689815702222 
885	 0.168526183409861 
886	 0.169293802811183 
887	 0.169303316382764 
888	 0.169123754717684 
889	 0.16946002901815 
890	 0.169660134998292 
891	 0.170080275243749 
892	 0.172362185917902 
893	 0.174286095132957 
894	 0.174755974423596 
895	 0.174409616775633 
896	 0.174358627615875 
897	 0.175780925086241 
898	 0.17710519123842 
899	 0.177947712287442 
900	 0.178392959955427 
901	 0.178406358945697 
902	 0.178192373677514 
903	 0.178437727877095 
904	 0.179044504968446 
905	 0.179841031660953 
906	 0.180094944634717 
907	 0.180493411171979 
908	 0.182462305924493 
909	 0.183766777178585 
910	 0.184112672826948 
911	 0.185350266097774 
912	 0.18542971911628 
913	 0.183673552327827 
914	 0.183512826268129 
915	 0.184760100153117 
916	 0.186610772247079 
917	 0.187495525010715 
918	 0.18737485300589 
919	 0.187075976475267 
920	 0.187679982350899 
921	 0.189094515543599 
922	 0.188523650254305 
923	 0.187692633979869 
924	 0.188128198456652 
925	 0.187224383944627 
926	 0.186423190180228 
927	 0.189915565274361 
928	 0.191325747037195 
929	 0.188952243175938 
930	 0.187282710778532 
931	 0.186243844509282 
932	 0.18625760648374 
933	 0.189732543363541 
934	 0.193268959798499 
935	 0.191672105734095 
936	 0.188737426461798 
937	 0.18646524930063 
938	 0.186784421187029 
939	 0.189706237105606 
940	 0.193930953468043 
941	 0.195157686439366 
942	 0.193147506510149 
943	 0.189115214212645 
944	 0.194782389882979 
945	 0.201065411034852 
946	 0.191391148798509 
947	 0.187362645277598 
948	 0.191315648456805 
949	 0.19140448575797 
950	 0.192052046308767 
951	 0.193963286377314 
952	 0.191502102045713 
953	 0.189404328310267 
954	 0.191800970446308 
955	 0.192475750838877 
956	 0.191834935041284 
957	 0.192474443874531 
958	 0.192889120241375 
959	 0.192482419555664 
960	 0.190263944316649 
961	 0.189496118376595 
962	 0.191615047986973 
963	 0.195377189957866 
964	 0.19799072714654 
965	 0.197081711336282 
966	 0.195287664753129 
967	 0.193542576752166 
968	 0.192167443808193 
969	 0.195341036949777 
970	 0.20129115141447 
971	 0.199435187447512 
972	 0.198608831626209 
973	 0.202392815853163 
974	 0.199642440560341 
975	 0.196493542312475 
976	 0.200419829619245 
977	 0.202527965549291 
978	 0.201215406103333 
979	 0.196536979549938 
980	 0.195742149758454 
981	 0.19939382516709 
982	 0.200228438228125 
983	 0.201198533359353 
984	 0.203637466127035 
985	 0.205135227523674 
986	 0.2070181783651 
987	 0.210544102325187 
988	 0.210013075634512 
989	 0.207019114195402 
990	 0.206849920762268 
991	 0.206579992627388 
992	 0.205834319664357 
993	 0.20583651412434 
994	 0.206780648443116 
995	 0.208284462700933 
996	 0.207622189812863 
997	 0.206426114449695 
998	 0.20653477638588 
999	 0.207684898640285 
1000	 0.210045177442816 
1001	 0.213890908351552 
1002	 0.217044805778704 
1003	 0.218564490485008 
1004	 0.217740681912618 
1005	 0.217740991267764 
1006	 0.219252662629958 
1007	 0.218066995944013 
1008	 0.216898407256397 
1009	 0.21753190538528 
1010	 0.214825894012298 
1011	 0.211856343275963 
1012	 0.213644047286489 
1013	 0.217516968981876 
1014	 0.220628920997884 
1015	 0.217963243379762 
1016	 0.212309732648145 
1017	 0.207558128496099 
1018	 0.21378862930352 
1019	 0.220950532338249 
1020	 0.222896568626067 
1021	 0.222639239753999 
1022	 0.222861462413717 
1023	 0.225692892970259 
1024	 0.226998667377399 
1025	 0.227161452550731 
1026	 0.227955548109678 
1027	 0.22864345079115 
1028	 0.227640121160365 
1029	 0.219609584652182 
1030	 0.21885328953614 
1031	 0.226813114187268 
1032	 0.225193173071467 
1033	 0.224497931755434 
1034	 0.230917301914413 
1035	 0.238363169474079 
1036	 0.240541908508536 
1037	 0.23262258721063 
1038	 0.229284349324101 
1039	 0.233023534326265 
1040	 0.243305006505918 
1041	 0.238104540422525 
1042	 0.22243153669522 
1043	 0.230556351870463 
1044	 0.233431759867758 
1045	 0.225618255883628 
1046	 0.228104597108933 
1047	 0.231127249488986 
1048	 0.230559888119351 
1049	 0.242264142548884 
1050	 0.24770026947177 
1051	 0.231374324582476 
1052	 0.233893509492784 
1053	 0.242103398421651 
1054	 0.22709759026227 
1055	 0.224206557284703 
1056	 0.2349267294962 
1057	 0.244904909843922 
1058	 0.234403805434009 
1059	 0.209775192885908 
1060	 0.22215881643464 
1061	 0.246573537304752 
1062	 0.264284038263008 
1063	 0.253885790875354 
1064	 0.232094310749525 
1065	 0.216035520996427 
1066	 0.219379440953667 
1067	 0.226144747677233 
1068	 0.218000919041176 
1069	 0.214630508056922 
1070	 0.216869283122356 
1071	 0.220177807274564 
1072	 0.208745962545892 
1073	 0.192658665151923 
1074	 0.207236818003977 
1075	 0.231857745235968 
