Wavelength	SHSI00164.asd
325	 5.37949174833482E-02 
326	 0.049416938080851 
327	 3.80817120911472E-02 
328	 5.87072456306356E-02 
329	 6.61167844449963E-02 
330	 4.94393791768196E-02 
331	 4.71361929265056E-02 
332	 5.19953222838923E-02 
333	 5.44636837504823E-02 
334	 5.33053409998903E-02 
335	 5.00235377025445E-02 
336	 4.89894219924998E-02 
337	 4.71740057637355E-02 
338	 4.49007265830278E-02 
339	 4.73328987187375E-02 
340	 5.09205028887044E-02 
341	 5.25663677189875E-02 
342	 5.21062758618298E-02 
343	 0.052163468724776 
344	 5.84368865671939E-02 
345	 5.74261852730913E-02 
346	 4.97860471297987E-02 
347	 5.17016866126213E-02 
348	 5.67155995314408E-02 
349	 0.059628237477764 
350	 5.83599172257588E-02 
351	 5.59923944918735E-02 
352	 5.78411225108327E-02 
353	 5.73937055718955E-02 
354	 0.054943922209229 
355	 5.75919191120253E-02 
356	 6.03604045486957E-02 
357	 6.02879729277679E-02 
358	 6.05970487371636E-02 
359	 6.00028019377368E-02 
360	 5.60028719508778E-02 
361	 5.51209793460696E-02 
362	 5.73482012979131E-02 
363	 5.71836731962394E-02 
364	 0.056103931933067 
365	 5.50158809816524E-02 
366	 5.38019080891771E-02 
367	 5.44377277734862E-02 
368	 5.95279127945011E-02 
369	 0.061876252132834 
370	 6.06089635496556E-02 
371	 5.87272617305202E-02 
372	 5.93839882273888E-02 
373	 6.32223611505553E-02 
374	 0.061320164218976 
375	 5.72225748906557E-02 
376	 5.69916135713825E-02 
377	 5.70501877708565E-02 
378	 0.056852347394954 
379	 5.71886053934595E-02 
380	 5.75871848354029E-02 
381	 5.79615052872099E-02 
382	 5.98164106295115E-02 
383	 0.060719767977011 
384	 5.74821927248863E-02 
385	 5.73315551560759E-02 
386	 5.97550541882926E-02 
387	 5.79321576889306E-02 
388	 0.055850433098847 
389	 5.54233681766413E-02 
390	 5.68604805548639E-02 
391	 5.84056275188247E-02 
392	 0.058017882902559 
393	 5.66993923682459E-02 
394	 5.54160840964562E-02 
395	 5.63676118705571E-02 
396	 5.65497904041767E-02 
397	 5.49827318979867E-02 
398	 5.33379756365841E-02 
399	 5.21814434748375E-02 
400	 5.18530282414581E-02 
401	 0.052438432158996 
402	 0.053445351803624 
403	 5.36738554574122E-02 
404	 5.41262999786882E-02 
405	 5.51491124809694E-02 
406	 5.61993320219842E-02 
407	 5.68187601707429E-02 
408	 5.65547591673969E-02 
409	 0.055438634396609 
410	 0.054271164191318 
411	 5.51351216756637E-02 
412	 0.056024575252781 
413	 0.056023979642959 
414	 5.59738660233787E-02 
415	 5.59529690683867E-02 
416	 5.59628257979174E-02 
417	 0.055629933920658 
418	 0.055268685558945 
419	 5.62294263915687E-02 
420	 0.056644428275996 
421	 5.57218061632396E-02 
422	 5.55543635870451E-02 
423	 5.59240032942563E-02 
424	 5.61694446394594E-02 
425	 5.59146161060188E-02 
426	 5.54506693461682E-02 
427	 5.62484012514512E-02 
428	 0.057159504469218 
429	 5.73664865493991E-02 
430	 5.69893694594164E-02 
431	 5.64291907053661E-02 
432	 5.63222926201735E-02 
433	 5.59018131439312E-02 
434	 5.52138205418862E-02 
435	 5.49693438133435E-02 
436	 5.54026695241746E-02 
437	 5.65421527134857E-02 
438	 5.73463223107773E-02 
439	 5.75506650975496E-02 
440	 0.057005967076802 
441	 5.62959704166167E-02 
442	 5.58150232848683E-02 
443	 5.60477881466785E-02 
444	 0.056912303286132 
445	 5.81640668643376E-02 
446	 5.80600769231425E-02 
447	 5.71375074806442E-02 
448	 5.72606845005719E-02 
449	 5.73093233189009E-02 
450	 5.70798079050295E-02 
451	 5.72505420791951E-02 
452	 5.77526486377022E-02 
453	 5.84475804376825E-02 
454	 5.88102037075136E-02 
455	 5.87826251984946E-02 
456	 5.85604354943947E-02 
457	 5.82502077887298E-02 
458	 5.80157299474844E-02 
459	 5.82786358683817E-02 
460	 0.058800127003404 
461	 5.92378239600936E-02 
462	 5.87383881255482E-02 
463	 5.77933309387987E-02 
464	 5.85266319492739E-02 
465	 5.93322424806306E-02 
466	 5.94014333875919E-02 
467	 5.94766379940016E-02 
468	 0.059289899350758 
469	 5.83583243999064E-02 
470	 5.77992424685131E-02 
471	 5.79439915984777E-02 
472	 5.87753537085382E-02 
473	 5.94609312164448E-02 
474	 5.94596840475336E-02 
475	 5.91632738380806E-02 
476	 5.88021195567101E-02 
477	 0.058662384513811 
478	 5.85336051746288E-02 
479	 5.84292844085173E-02 
480	 5.85774877195561E-02 
481	 0.059003082673423 
482	 0.059660481496318 
483	 0.059814112077515 
484	 5.96553706079287E-02 
485	 6.00230600271045E-02 
486	 6.00553057021689E-02 
487	 0.059551689744921 
488	 5.91689945971291E-02 
489	 5.88658540987354E-02 
490	 5.85872752860494E-02 
491	 5.92364544904449E-02 
492	 6.02004251144247E-02 
493	 5.93834097518576E-02 
494	 5.86466002018617E-02 
495	 5.87662947332189E-02 
496	 5.90192573699886E-02 
497	 5.94093563752083E-02 
498	 6.00229747928739E-02 
499	 6.05089620914856E-02 
500	 6.07016010342963E-02 
501	 6.04023476482405E-02 
502	 6.01943616518449E-02 
503	 6.03894169376065E-02 
504	 6.03895082788494E-02 
505	 6.01965283145224E-02 
506	 5.98946090636787E-02 
507	 6.02130850349338E-02 
508	 0.061156516792451 
509	 0.061805488925772 
510	 6.23996745752856E-02 
511	 6.30897573933832E-02 
512	 6.30542218357809E-02 
513	 6.28215204762576E-02 
514	 6.40238808071682E-02 
515	 6.46587669284338E-02 
516	 6.42037522806774E-02 
517	 6.41101437061665E-02 
518	 6.43636694485304E-02 
519	 6.47952262735708E-02 
520	 6.46879159640784E-02 
521	 6.42993160363088E-02 
522	 6.47090889103079E-02 
523	 6.52291974744435E-02 
524	 6.56012640095666E-02 
525	 6.62837597133705E-02 
526	 6.70653644792933E-02 
527	 6.76060127324452E-02 
528	 6.74952749493326E-02 
529	 6.70248385461193E-02 
530	 6.74532905160085E-02 
531	 6.83356878562156E-02 
532	 6.92342709433032E-02 
533	 6.90665599765839E-02 
534	 6.83922807900789E-02 
535	 6.85980203079823E-02 
536	 6.89906644142824E-02 
537	 6.93957273540055E-02 
538	 6.99712814909888E-02 
539	 7.05004326034087E-02 
540	 7.07595106670779E-02 
541	 7.06128549419836E-02 
542	 7.03188504780789E-02 
543	 7.05469881822845E-02 
544	 7.10527575676288E-02 
545	 7.16464032470292E-02 
546	 0.071811892246783 
547	 7.18893998444237E-02 
548	 7.23859252241941E-02 
549	 0.072392086599415 
550	 7.19985580300781E-02 
551	 7.23137922834304E-02 
552	 0.072504272342293 
553	 7.21648786035713E-02 
554	 7.25906142805489E-02 
555	 7.33883039274308E-02 
556	 7.34995513403105E-02 
557	 7.37333636320922E-02 
558	 7.41005969287374E-02 
559	 7.34822613023028E-02 
560	 7.29508644399954E-02 
561	 7.34771424345961E-02 
562	 7.39876012532823E-02 
563	 7.42791014538502E-02 
564	 7.44100979772023E-02 
565	 7.44351669413356E-02 
566	 7.43714418469979E-02 
567	 7.40955673595252E-02 
568	 0.07393365621943 
569	 7.42972753065336E-02 
570	 7.43230028584324E-02 
571	 0.073927038761323 
572	 0.073551701441815 
573	 7.35668051251084E-02 
574	 7.41085253719305E-02 
575	 7.41977482216395E-02 
576	 7.40685962695747E-02 
577	 7.44385631221518E-02 
578	 7.44931242139051E-02 
579	 7.41306021580882E-02 
580	 7.40418973232057E-02 
581	 7.41298962607974E-02 
582	 7.42849360245262E-02 
583	 0.074582956836758 
584	 7.48211743729382E-02 
585	 7.44287507211394E-02 
586	 7.42221149717641E-02 
587	 7.45105553964446E-02 
588	 7.49253439301906E-02 
589	 7.51380033450882E-02 
590	 7.47782507580601E-02 
591	 7.46699606532135E-02 
592	 0.074854237123208 
593	 7.47252315041307E-02 
594	 7.46757502027094E-02 
595	 7.48937862396065E-02 
596	 7.49005301459192E-02 
597	 7.49456114876113E-02 
598	 7.56346916073938E-02 
599	 7.55883640495719E-02 
600	 7.47652646426937E-02 
601	 7.49902320462499E-02 
602	 0.075379523600156 
603	 7.51539866533199E-02 
604	 7.54206579784113E-02 
605	 7.59517853145288E-02 
606	 7.56624417782229E-02 
607	 7.54775792433778E-02 
608	 7.56880620111001E-02 
609	 7.56305179241595E-02 
610	 7.56327157075491E-02 
611	 7.61592348817913E-02 
612	 7.61556169151844E-02 
613	 7.55664921011113E-02 
614	 0.075043736014324 
615	 7.49365275201172E-02 
616	 7.53704884788043E-02 
617	 7.53379641325178E-02 
618	 7.50358236185668E-02 
619	 7.50401231252278E-02 
620	 7.53017907831014E-02 
621	 7.57143709170597E-02 
622	 7.58765453081643E-02 
623	 7.58083216280776E-02 
624	 7.55682234487534E-02 
625	 7.55009341800771E-02 
626	 0.075634315609088 
627	 7.57959518746958E-02 
628	 7.62202107217776E-02 
629	 7.68311278684296E-02 
630	 0.076732637194806 
631	 7.63270806882983E-02 
632	 7.62107801451757E-02 
633	 7.63010362004825E-02 
634	 7.64473983350705E-02 
635	 7.61401407190675E-02 
636	 7.60287979687964E-02 
637	 7.64473195245589E-02 
638	 7.67643914259493E-02 
639	 7.68573671483554E-02 
640	 0.076649033962905 
641	 7.67344768630725E-02 
642	 7.70522179383067E-02 
643	 7.64610724284225E-02 
644	 7.57109238889639E-02 
645	 7.54845385717387E-02 
646	 7.53747792020956E-02 
647	 7.53743993315151E-02 
648	 0.07567610881643 
649	 7.58789322234889E-02 
650	 7.57834556124898E-02 
651	 7.53207349424407E-02 
652	 7.50084680325856E-02 
653	 7.54464974125533E-02 
654	 7.59610025975778E-02 
655	 7.61731668272287E-02 
656	 7.54263464532163E-02 
657	 7.44545024430318E-02 
658	 7.38436948000086E-02 
659	 7.38814361230907E-02 
660	 0.074131222939813 
661	 7.38625733097097E-02 
662	 7.37566488004754E-02 
663	 7.38482254958431E-02 
664	 7.34466440761748E-02 
665	 7.30860525876208E-02 
666	 7.32013307354727E-02 
667	 7.32846084795036E-02 
668	 7.32379577372359E-02 
669	 7.30761605172616E-02 
670	 7.27392959952329E-02 
671	 7.23547276992766E-02 
672	 7.27271695024916E-02 
673	 7.30696062829704E-02 
674	 7.24554608037152E-02 
675	 7.27436626339212E-02 
676	 7.37553763783272E-02 
677	 7.36101259787123E-02 
678	 7.34935464537223E-02 
679	 7.39740347594277E-02 
680	 7.43162351008098E-02 
681	 7.45300297157952E-02 
682	 7.47415320182708E-02 
683	 7.54166579414795E-02 
684	 7.66463093850815E-02 
685	 7.83405154657072E-02 
686	 7.97609613406252E-02 
687	 8.02641454123338E-02 
688	 8.12981864431329E-02 
689	 8.27152278389761E-02 
690	 8.37174696086863E-02 
691	 8.50933181725906E-02 
692	 8.71122734022383E-02 
693	 8.97866016425247E-02 
694	 9.21834968329836E-02 
695	 9.33056514273849E-02 
696	 9.46957026798374E-02 
697	 9.66009110721645E-02 
698	 9.88386327977151E-02 
699	 0.101092529453397 
700	 0.103202433962591 
701	 0.105662721492173 
702	 0.10795698429045 
703	 0.109343497310506 
704	 0.111395175002313 
705	 0.114054096802143 
706	 0.115640695957949 
707	 0.117075989918668 
708	 0.118892248379543 
709	 0.120298727774582 
710	 0.121513376413751 
711	 0.123065197934246 
712	 0.125108797759917 
713	 0.127427822118775 
714	 0.128988628933139 
715	 0.129912445246284 
716	 0.130450506718821 
717	 0.131654117293668 
718	 0.133662094327251 
719	 0.135722577402386 
720	 0.137019140421374 
721	 0.137429052028323 
722	 0.138022670350994 
723	 0.139340494095803 
724	 0.141879426401822 
725	 0.143464744241018 
726	 0.143831594307441 
727	 0.144318132283281 
728	 0.145134233535312 
729	 0.146354086159737 
730	 0.147350327270064 
731	 0.148066084969485 
732	 0.148534735549598 
733	 0.149501799620247 
734	 0.150889240409843 
735	 0.151813535010767 
736	 0.152477376021452 
737	 0.153068518809118 
738	 0.154276258412476 
739	 0.155731438073074 
740	 0.156573116110843 
741	 0.157286142346378 
742	 0.157945007717358 
743	 0.158183432407286 
744	 0.158723948524136 
745	 0.160073930647078 
746	 0.160512546736494 
747	 0.160429857197185 
748	 0.16155860030289 
749	 0.162317771440681 
750	 0.162419099399444 
751	 0.16351264568984 
752	 0.164720295580326 
753	 0.165036600341304 
754	 0.165596783344753 
755	 0.166498692789229 
756	 0.167612925104665 
757	 0.16721514647433 
758	 0.164949076075902 
759	 0.165539354261862 
760	 0.16996375848421 
761	 0.174744493178929 
762	 0.175590596568035 
763	 0.173975083520007 
764	 0.175721824441083 
765	 0.177044195836777 
766	 0.17687259641729 
767	 0.177185146368219 
768	 0.177743563299641 
769	 0.178123571206841 
770	 0.178469812546728 
771	 0.178882503457105 
772	 0.179558504906166 
773	 0.180553990699508 
774	 0.181809794314059 
775	 0.182474526542552 
776	 0.182891144414836 
777	 0.183931913867182 
778	 0.184764523932761 
779	 0.185314125218549 
780	 0.18630866604768 
781	 0.187516066638497 
782	 0.188666903359755 
783	 0.189110107202862 
784	 0.189296294114036 
785	 0.190461555186049 
786	 0.191075523828382 
787	 0.190963789141391 
788	 0.191829733133605 
789	 0.192870282891612 
790	 0.193308868889937 
791	 0.194128772948849 
792	 0.195331001740313 
793	 0.196544515094292 
794	 0.197419159508514 
795	 0.197901955780094 
796	 0.198587913936759 
797	 0.199193115996868 
798	 0.199470996801173 
799	 0.200719657646627 
800	 0.20256877647152 
801	 0.203304042253398 
802	 0.204087026019875 
803	 0.205190197647112 
804	 0.205663063195103 
805	 0.205841587714804 
806	 0.206179382370676 
807	 0.206938669931535 
808	 0.207927155717242 
809	 0.208265060028123 
810	 0.209395171571194 
811	 0.211491147549389 
812	 0.21136072107855 
813	 0.210904194568381 
814	 0.212918255616626 
815	 0.215026739273405 
816	 0.216524077628114 
817	 0.217256989339253 
818	 0.218263538233185 
819	 0.219681655930867 
820	 0.219265865615827 
821	 0.219040411235773 
822	 0.2214810092507 
823	 0.22409774884889 
824	 0.225723424887014 
825	 0.22509926972915 
826	 0.224915510381064 
827	 0.226216772187908 
828	 0.227415266260825 
829	 0.228211215384398 
830	 0.228458513912969 
831	 0.229598843678953 
832	 0.231526127351123 
833	 0.2330419637063 
834	 0.234179662448504 
835	 0.234919351175862 
836	 0.235239993238017 
837	 0.235637983578075 
838	 0.236656737282876 
839	 0.23816368261507 
840	 0.239782578376525 
841	 0.240696272799119 
842	 0.241011825667474 
843	 0.240914423438028 
844	 0.241142020329338 
845	 0.241849423636188 
846	 0.24307124309086 
847	 0.243601205545411 
848	 0.24365184189579 
849	 0.244593774308721 
850	 0.245596386055296 
851	 0.246546748578906 
852	 0.248740575933819 
853	 0.250825069881226 
854	 0.251369356093876 
855	 0.252895668298457 
856	 0.254595934338637 
857	 0.253016239356992 
858	 0.252781054569771 
859	 0.254842016223265 
860	 0.255179840933832 
861	 0.255279374732127 
862	 0.256591783291574 
863	 0.256306551618925 
864	 0.255533956242142 
865	 0.257907209744095 
866	 0.261377470102878 
867	 0.264385409136997 
868	 0.263595121183462 
869	 0.262930348419296 
870	 0.265348313826615 
871	 0.265797421742719 
872	 0.265104929495742 
873	 0.26627322177485 
874	 0.268227942533237 
875	 0.27047590249619 
876	 0.272219647898587 
877	 0.273885624902573 
878	 0.275713804687788 
879	 0.276727963344834 
880	 0.277736548504757 
881	 0.280260636937664 
882	 0.2815533225397 
883	 0.281499467962244 
884	 0.282420432433084 
885	 0.283628327029702 
886	 0.284807536965884 
887	 0.286678370131474 
888	 0.287777618615164 
889	 0.286226126331171 
890	 0.285665428239942 
891	 0.286672527627431 
892	 0.288159521833569 
893	 0.289039944324386 
894	 0.289000977735352 
895	 0.290078267993687 
896	 0.292272966683167 
897	 0.295250063518791 
898	 0.297886482058442 
899	 0.300046250882168 
900	 0.302440019230143 
901	 0.303143595857395 
902	 0.302293322515725 
903	 0.303405290860619 
904	 0.303864806327292 
905	 0.302133129151475 
906	 0.303824812847671 
907	 0.307988371120261 
908	 0.311489699502344 
909	 0.312066683196072 
910	 0.310072619474771 
911	 0.309832684038566 
912	 0.311600077720283 
913	 0.315042898087964 
914	 0.316617319359495 
915	 0.318342362692049 
916	 0.322915494670693 
917	 0.322409024553916 
918	 0.318268815878009 
919	 0.318756801468809 
920	 0.319393752140426 
921	 0.318879710969501 
922	 0.318608422455933 
923	 0.317599884531665 
924	 0.315072696048225 
925	 0.312854084444091 
926	 0.311673064178527 
927	 0.312312122244421 
928	 0.313940610695761 
929	 0.316094496667766 
930	 0.318146021415546 
931	 0.320349775267628 
932	 0.323140212060954 
933	 0.328621327031457 
934	 0.334389728818324 
935	 0.336785215753083 
936	 0.337481025027834 
937	 0.335243885489487 
938	 0.325941626417363 
939	 0.31824085698009 
940	 0.315604179081237 
941	 0.31871047492577 
942	 0.323694976371374 
943	 0.326964089991283 
944	 0.32359303557449 
945	 0.319633273424869 
946	 0.325567877908983 
947	 0.331757426238632 
948	 0.334399784609304 
949	 0.331127263941076 
950	 0.325449293344449 
951	 0.319966838223251 
952	 0.318212321871372 
953	 0.319869149248264 
954	 0.323764394605324 
955	 0.324361234131331 
956	 0.32523953156131 
957	 0.33454473120719 
958	 0.34157684992434 
959	 0.343022375401281 
960	 0.338394155612907 
961	 0.334807284186675 
962	 0.335545797436659 
963	 0.336420687874149 
964	 0.336171630525298 
965	 0.334300749379464 
966	 0.337748097968096 
967	 0.341672233285502 
968	 0.334312840562799 
969	 0.331413626168062 
970	 0.334387543828415 
971	 0.330664691028379 
972	 0.330227534312863 
973	 0.337517505024925 
974	 0.344349995247135 
975	 0.346196799329675 
976	 0.340034784024806 
977	 0.342610331794626 
978	 0.348585650516359 
979	 0.339196161213596 
980	 0.335771926472238 
981	 0.341680263355733 
982	 0.343656302921532 
983	 0.346207675576225 
984	 0.349821538621069 
985	 0.34226397675603 
986	 0.335236575626399 
987	 0.341830679520737 
988	 0.350502360400721 
989	 0.355480192283198 
990	 0.349845629279021 
991	 0.350712531018141 
992	 0.358793939609243 
993	 0.357640897681625 
994	 0.353795952436458 
995	 0.351011743692648 
996	 0.350752498816763 
997	 0.349162522921201 
998	 0.343540115877173 
999	 0.349696825682144 
1000	 0.360162944900827 
1001	 0.358238265108942 
1002	 0.354305658279846 
1003	 0.352985248839329 
1004	 0.360629131343677 
1005	 0.363421744678302 
1006	 0.357649099265128 
1007	 0.35610306086829 
1008	 0.358718728922036 
1009	 0.364084038467964 
1010	 0.366152201089734 
1011	 0.36617387086508 
1012	 0.367025576427665 
1013	 0.367661564928724 
1014	 0.368255208895443 
1015	 0.369471286385314 
1016	 0.370514303458448 
1017	 0.370846454929984 
1018	 0.36879775548222 
1019	 0.369885658185787 
1020	 0.376383021013316 
1021	 0.383525152614442 
1022	 0.38051864185616 
1023	 0.361186511188722 
1024	 0.368196000266009 
1025	 0.388822532013362 
1026	 0.390689552893609 
1027	 0.381927913757558 
1028	 0.371320970081005 
1029	 0.381060327195426 
1030	 0.384250546454811 
1031	 0.375369352576212 
1032	 0.374659440716992 
1033	 0.376911806355049 
1034	 0.379554099377448 
1035	 0.391875542615819 
1036	 0.40034880613747 
1037	 0.391572476989823 
1038	 0.399694846311724 
1039	 0.414027016106927 
1040	 0.40678535426952 
1041	 0.396953543553543 
1042	 0.389827239451563 
1043	 0.387228214196704 
1044	 0.389144743418499 
1045	 0.391543329366479 
1046	 0.377175208221183 
1047	 0.367458842123324 
1048	 0.374114472588647 
1049	 0.379072862181998 
1050	 0.3797742954962 
1051	 0.376961630525562 
1052	 0.389986208649597 
1053	 0.403531008360383 
1054	 0.389288311252457 
1055	 0.380936315375062 
1056	 0.381832377036573 
1057	 0.38378322148309 
1058	 0.386951799971621 
1059	 0.389015283869607 
1060	 0.383427305912716 
1061	 0.380088165455061 
1062	 0.383648580912423 
1063	 0.391611535619992 
1064	 0.385607393783823 
1065	 0.360504979877849 
1066	 0.387839621638192 
1067	 0.397605259579349 
1068	 0.316690365456563 
1069	 0.307112806056564 
1070	 0.347072704815894 
1071	 0.34812250420322 
1072	 0.36338697862599 
1073	 0.377764991101754 
1074	 0.336725721253741 
1075	 0.323991836942262 
