Wavelength	SHSI00124.asd
325	 3.79245363434594E-02 
326	 3.87588156744072E-02 
327	 4.55726332298928E-02 
328	 4.94557606176166E-02 
329	 4.63775691828573E-02 
330	 3.75107203777371E-02 
331	 3.48768768894572E-02 
332	 3.92749518651118E-02 
333	 4.95351030532319E-02 
334	 0.049298063524443 
335	 4.18441530334183E-02 
336	 4.09531774057712E-02 
337	 4.23764936704472E-02 
338	 4.42211181539567E-02 
339	 4.34169629020781E-02 
340	 4.24467155317232E-02 
341	 0.043096336679588 
342	 3.95075068354664E-02 
343	 3.54188309054317E-02 
344	 3.91522784157512E-02 
345	 4.46417598573955E-02 
346	 4.81882439547535E-02 
347	 4.29884004951848E-02 
348	 3.71143594907986E-02 
349	 3.62133574090908E-02 
350	 3.92503680519876E-02 
351	 4.23915048588131E-02 
352	 4.01560681853625E-02 
353	 3.89187436312052E-02 
354	 3.97861421094069E-02 
355	 4.04487847652811E-02 
356	 0.04153476108919 
357	 4.28481461815546E-02 
358	 0.039937924934983 
359	 3.63187866075808E-02 
360	 3.80081197342632E-02 
361	 3.87351974318519E-02 
362	 3.77543010487524E-02 
363	 3.77869464049729E-02 
364	 3.88632409892112E-02 
365	 4.06261560907284E-02 
366	 4.11556770812255E-02 
367	 4.02044082732973E-02 
368	 0.037720817766784 
369	 3.73208294936136E-02 
370	 3.89467282829347E-02 
371	 3.94750855204235E-02 
372	 3.90674613693506E-02 
373	 3.78662270150222E-02 
374	 3.66337915581188E-02 
375	 3.59268252490543E-02 
376	 3.62868846258987E-02 
377	 3.67191965810561E-02 
378	 3.67688592639222E-02 
379	 0.03588599192354 
380	 3.54126691572078E-02 
381	 3.58936842009019E-02 
382	 3.59645893540734E-02 
383	 0.035647589939633 
384	 3.51592944337968E-02 
385	 3.52769787908975E-02 
386	 3.59169588691354E-02 
387	 3.64837718889472E-02 
388	 3.51559869171601E-02 
389	 3.21523468163822E-02 
390	 0.034155610040773 
391	 3.68153157470504E-02 
392	 3.47256936948854E-02 
393	 3.33505908292676E-02 
394	 3.34697475970903E-02 
395	 3.37200873820153E-02 
396	 3.39313670472367E-02 
397	 3.41439343130918E-02 
398	 0.035393056569447 
399	 3.63527627587425E-02 
400	 3.57198868856668E-02 
401	 3.55853769760993E-02 
402	 3.59762809273105E-02 
403	 3.59843085215892E-02 
404	 3.58355718000189E-02 
405	 0.03558460467735 
406	 3.49597046695489E-02 
407	 3.45876888121466E-02 
408	 3.52249662653814E-02 
409	 3.55850289118023E-02 
410	 3.54458067862431E-02 
411	 3.50456179719701E-02 
412	 3.49851880086398E-02 
413	 3.53882523912469E-02 
414	 3.49379988597491E-02 
415	 0.034449612755389 
416	 3.51054644268145E-02 
417	 3.57961707370369E-02 
418	 3.60452383619704E-02 
419	 3.52302432699784E-02 
420	 3.45425906723014E-02 
421	 3.46030185338871E-02 
422	 3.47007283745353E-02 
423	 0.034672801183634 
424	 3.43877493267926E-02 
425	 3.48561806223555E-02 
426	 3.58357994474304E-02 
427	 3.54938944769502E-02 
428	 3.50866755311776E-02 
429	 3.54183008702055E-02 
430	 3.59867058033775E-02 
431	 3.62403718451147E-02 
432	 3.53725385103176E-02 
433	 3.49463915922864E-02 
434	 3.51768713944805E-02 
435	 3.50716176457334E-02 
436	 3.50098561573147E-02 
437	 0.035158452524769 
438	 3.44583635991553E-02 
439	 3.38025747780296E-02 
440	 3.51721037681099E-02 
441	 0.03571573690717 
442	 3.49574624590703E-02 
443	 3.48962299395308E-02 
444	 3.49466933096377E-02 
445	 3.46518378550627E-02 
446	 3.50118346014237E-02 
447	 3.57196518244962E-02 
448	 3.57713254641403E-02 
449	 3.57306991277177E-02 
450	 3.57144901052673E-02 
451	 0.035358892616606 
452	 3.51144875215235E-02 
453	 3.54076866708484E-02 
454	 3.54573208683218E-02 
455	 3.53636243900426E-02 
456	 3.58941670700806E-02 
457	 3.62270560323388E-02 
458	 3.60486446585843E-02 
459	 3.56782014614991E-02 
460	 3.55241746259651E-02 
461	 3.60096435748328E-02 
462	 3.63738558343273E-02 
463	 3.63340171478391E-02 
464	 3.55675600581626E-02 
465	 3.51671683140999E-02 
466	 3.56398314873118E-02 
467	 3.60502134963634E-02 
468	 3.61161929075425E-02 
469	 3.56051607111544E-02 
470	 3.52887073750904E-02 
471	 3.54541118655444E-02 
472	 3.63265278001056E-02 
473	 3.68046777681126E-02 
474	 3.62504349344866E-02 
475	 3.56881700048537E-02 
476	 3.54119474270413E-02 
477	 3.56405836063646E-02 
478	 3.60283797998699E-02 
479	 3.63653822302333E-02 
480	 3.63288905327327E-02 
481	 3.63882380869477E-02 
482	 3.68734606958522E-02 
483	 3.69129754949901E-02 
484	 3.66354061173554E-02 
485	 3.66644810264851E-02 
486	 3.69580680663611E-02 
487	 3.74050334067357E-02 
488	 3.74826664704694E-02 
489	 3.72237555368991E-02 
490	 3.67412621428229E-02 
491	 3.64522272793076E-02 
492	 3.65341937028511E-02 
493	 0.037329915448446 
494	 3.74117315596762E-02 
495	 3.64488676485525E-02 
496	 3.67237828228747E-02 
497	 3.75098678445076E-02 
498	 0.037596336859463 
499	 3.74422729619607E-02 
500	 3.71895739790488E-02 
501	 3.69263927924607E-02 
502	 3.69805617782732E-02 
503	 3.74691954835224E-02 
504	 3.76767522305508E-02 
505	 3.75613702554096E-02 
506	 3.71743902740701E-02 
507	 3.75679222331152E-02 
508	 3.86584842352405E-02 
509	 3.88646239719902E-02 
510	 3.85941231534815E-02 
511	 3.82808334736478E-02 
512	 3.86687474898092E-02 
513	 3.93743737736293E-02 
514	 3.92133543886478E-02 
515	 3.88363448860073E-02 
516	 3.86089968487373E-02 
517	 0.039212662747602 
518	 3.97879508971953E-02 
519	 3.94055590326763E-02 
520	 3.95751678855368E-02 
521	 4.02337436951088E-02 
522	 4.03471842732227E-02 
523	 0.04048546873415 
524	 4.08370043148267E-02 
525	 4.09387484277395E-02 
526	 4.07983118155415E-02 
527	 4.04842978941965E-02 
528	 4.04892299207083E-02 
529	 4.08829057007966E-02 
530	 4.14373145143233E-02 
531	 4.17301172605541E-02 
532	 4.15501743446989E-02 
533	 4.16991193173585E-02 
534	 0.042144616098405 
535	 4.26205010842035E-02 
536	 4.27404074914729E-02 
537	 4.24874659521197E-02 
538	 4.25264217121323E-02 
539	 4.24865634786274E-02 
540	 4.20440708634739E-02 
541	 4.25116227065776E-02 
542	 4.34972387021652E-02 
543	 4.32672387813506E-02 
544	 4.30984648698661E-02 
545	 4.34255207520057E-02 
546	 0.043443398897773 
547	 0.043379100729504 
548	 4.36151118399805E-02 
549	 0.04363878447371 
550	 4.34251995597038E-02 
551	 4.32817645915222E-02 
552	 4.33901711681039E-02 
553	 4.38255668796412E-02 
554	 4.41811874077961E-02 
555	 4.43184187611418E-02 
556	 4.40956302486914E-02 
557	 4.39515548568443E-02 
558	 4.40663574907678E-02 
559	 4.45078282539326E-02 
560	 0.044751749833446 
561	 4.43541751499565E-02 
562	 4.39999783797337E-02 
563	 4.39330845492256E-02 
564	 4.43990978486211E-02 
565	 4.49867361644004E-02 
566	 4.53689482521871E-02 
567	 4.48304790541514E-02 
568	 4.42916576261951E-02 
569	 4.49884724809567E-02 
570	 0.045405673335574 
571	 4.52096083835787E-02 
572	 4.46234489422926E-02 
573	 4.43092749095003E-02 
574	 4.46097275879236E-02 
575	 4.45401030733271E-02 
576	 4.44283527617613E-02 
577	 4.51534921459822E-02 
578	 4.55773822369515E-02 
579	 4.54471399898302E-02 
580	 4.54640092851619E-02 
581	 4.52649493868375E-02 
582	 4.46001044683604E-02 
583	 4.47292889753629E-02 
584	 4.54831645502845E-02 
585	 4.58667010004571E-02 
586	 4.60593718718178E-02 
587	 4.60782704418137E-02 
588	 4.58816231319518E-02 
589	 4.56400992196285E-02 
590	 4.55808717959233E-02 
591	 4.57299260796814E-02 
592	 4.58291179409064E-02 
593	 4.48864577796134E-02 
594	 4.47299195997241E-02 
595	 4.61885452045099E-02 
596	 4.66207042276978E-02 
597	 4.61816504203588E-02 
598	 4.57550809992046E-02 
599	 4.57538887384893E-02 
600	 4.62193050531528E-02 
601	 4.64492426436582E-02 
602	 4.66995220838444E-02 
603	 4.71851564914857E-02 
604	 4.74681321194402E-02 
605	 4.75210504825912E-02 
606	 4.75626279081414E-02 
607	 4.70712268412337E-02 
608	 4.61162563384515E-02 
609	 4.63374377281916E-02 
610	 4.70546046785593E-02 
611	 4.72196276412953E-02 
612	 4.70033116734392E-02 
613	 4.67089003573341E-02 
614	 4.72957889607457E-02 
615	 4.77474965031213E-02 
616	 4.75354556272539E-02 
617	 4.78685911412022E-02 
618	 4.83370849713878E-02 
619	 4.79467234669097E-02 
620	 4.76249734199772E-02 
621	 4.76711257995846E-02 
622	 4.80792831685283E-02 
623	 4.84557139410745E-02 
624	 4.84212578379057E-02 
625	 4.77365627631833E-02 
626	 4.70981147184793E-02 
627	 4.84522419444899E-02 
628	 4.95835819186993E-02 
629	 4.95964882336283E-02 
630	 0.04911518162871 
631	 4.88638089675212E-02 
632	 4.96408531914587E-02 
633	 4.97922737927055E-02 
634	 4.92726128384804E-02 
635	 4.92992910990517E-02 
636	 4.94920359519666E-02 
637	 4.96052416016027E-02 
638	 4.95135005762975E-02 
639	 4.92986259133479E-02 
640	 4.91102000373392E-02 
641	 4.93036234204997E-02 
642	 4.98885945849844E-02 
643	 5.05519214906241E-02 
644	 5.03228908672635E-02 
645	 4.85682638737812E-02 
646	 4.86616487165754E-02 
647	 5.00593730782532E-02 
648	 4.94555761279692E-02 
649	 0.0491345440319 
650	 4.97418135142903E-02 
651	 4.97369877337377E-02 
652	 4.94102277441425E-02 
653	 4.92533244711399E-02 
654	 4.96129485726533E-02 
655	 5.02277247165687E-02 
656	 4.97807247274201E-02 
657	 4.92735831100249E-02 
658	 4.93055247485736E-02 
659	 4.93727734062789E-02 
660	 4.92834478458054E-02 
661	 4.87862685435654E-02 
662	 4.87876113729129E-02 
663	 4.93559605542379E-02 
664	 4.96731395708047E-02 
665	 4.94181753953278E-02 
666	 4.84560029785686E-02 
667	 4.83158062223405E-02 
668	 4.87133384753185E-02 
669	 4.81520976681158E-02 
670	 4.79938983361239E-02 
671	 4.86295888916529E-02 
672	 4.93596717734554E-02 
673	 4.97508349815208E-02 
674	 4.94149190597212E-02 
675	 4.96414902838905E-02 
676	 5.02488875985257E-02 
677	 4.96568832170254E-02 
678	 4.92177684897737E-02 
679	 4.96558693722211E-02 
680	 5.04792102581404E-02 
681	 5.13275190232291E-02 
682	 5.17503481878345E-02 
683	 5.19546430745247E-02 
684	 0.052187025741776 
685	 0.053147662897723 
686	 5.43789824752511E-02 
687	 5.54680930748546E-02 
688	 5.67814362847123E-02 
689	 5.80275612071694E-02 
690	 5.88135828524073E-02 
691	 5.94373124545119E-02 
692	 5.99769627449582E-02 
693	 6.00098127725169E-02 
694	 6.05881377395219E-02 
695	 6.26867980719103E-02 
696	 6.39739180826559E-02 
697	 6.45971598502553E-02 
698	 6.64716566272241E-02 
699	 6.77536250330276E-02 
700	 6.78371390701687E-02 
701	 6.91374895034682E-02 
702	 7.09052824845298E-02 
703	 0.071762578074967 
704	 0.072768570388753 
705	 7.40164240525051E-02 
706	 7.50410938530837E-02 
707	 7.53787553813019E-02 
708	 7.49610998383711E-02 
709	 7.59083711369199E-02 
710	 7.75870825873364E-02 
711	 7.82553857024024E-02 
712	 7.90497587681959E-02 
713	 8.01578316989508E-02 
714	 8.09399703313817E-02 
715	 0.081701553785837 
716	 8.27791222006257E-02 
717	 8.35691578339175E-02 
718	 8.42957025556484E-02 
719	 8.60491139346549E-02 
720	 0.087230939470952 
721	 8.73536414595914E-02 
722	 8.72077997026228E-02 
723	 8.73591300615055E-02 
724	 8.83952028751404E-02 
725	 8.94954093625992E-02 
726	 9.03337146342774E-02 
727	 9.09017553842942E-02 
728	 9.14275307974096E-02 
729	 9.20394508537475E-02 
730	 9.26887303088443E-02 
731	 9.32724772180775E-02 
732	 9.36617606099201E-02 
733	 0.094057306444525 
734	 9.44540341361628E-02 
735	 0.094468288518075 
736	 9.51691759098184E-02 
737	 9.69698960638535E-02 
738	 9.70317909285792E-02 
739	 9.60569775979879E-02 
740	 0.096016478422799 
741	 9.67110114555971E-02 
742	 9.79463248215502E-02 
743	 9.90593383342951E-02 
744	 9.95951238682501E-02 
745	 9.93267889911059E-02 
746	 0.100040042934752 
747	 0.101358323155286 
748	 0.101625476088059 
749	 0.101728226114815 
750	 0.102022194534054 
751	 0.102631351557449 
752	 0.103621891469042 
753	 0.104983289359065 
754	 0.10541708623485 
755	 0.105164535356846 
756	 0.105712323736345 
757	 0.106265452666977 
758	 0.106635921327789 
759	 0.107834995233218 
760	 0.110784074235293 
761	 0.114220360297735 
762	 0.114877029564664 
763	 0.11319662222884 
764	 0.11148987433846 
765	 0.111448776474778 
766	 0.112995739101934 
767	 0.113418353412704 
768	 0.11320424718311 
769	 0.113009472708409 
770	 0.113206608212924 
771	 0.113979173694934 
772	 0.115634933456115 
773	 0.116662971932874 
774	 0.116206493997019 
775	 0.116239566182643 
776	 0.116926789850582 
777	 0.118010882458631 
778	 0.119123497663323 
779	 0.120005642013085 
780	 0.120321292944911 
781	 0.120583008595769 
782	 0.12119907934354 
783	 0.121854583558447 
784	 0.122409766157932 
785	 0.122634720264393 
786	 0.12319654016173 
787	 0.124192284362928 
788	 0.124829970224861 
789	 0.125434262772414 
790	 0.126319341293207 
791	 0.127299180471637 
792	 0.127762526495392 
793	 0.126020390692487 
794	 0.126214890468919 
795	 0.129165420212208 
796	 0.130584546768845 
797	 0.130886226000187 
798	 0.130827800398271 
799	 0.131320394698594 
800	 0.132175679962904 
801	 0.132093307824413 
802	 0.132859579539881 
803	 0.134778256405766 
804	 0.135509594156739 
805	 0.13572900972533 
806	 0.136330686629348 
807	 0.136453870787729 
808	 0.136691606870687 
809	 0.139262092330614 
810	 0.141495070944324 
811	 0.14212906741857 
812	 0.14162996673422 
813	 0.141280621407597 
814	 0.142725707515578 
815	 0.144060288169632 
816	 0.144859101773808 
817	 0.145475206168588 
818	 0.146569732821584 
819	 0.148225031108287 
820	 0.14914377142939 
821	 0.149935636351949 
822	 0.15134872392661 
823	 0.151413670311205 
824	 0.15040353310455 
825	 0.15025345072474 
826	 0.150487526308754 
827	 0.15120833063773 
828	 0.154152161617641 
829	 0.156299273329747 
830	 0.154039560126941 
831	 0.15452517969223 
832	 0.1576116825765 
833	 0.158283716213405 
834	 0.158227326301425 
835	 0.158210075832595 
836	 0.158619762348381 
837	 0.159491867039696 
838	 0.160767493476087 
839	 0.161751427389967 
840	 0.16222123337622 
841	 0.162049780599872 
842	 0.161804591176748 
843	 0.161900933955327 
844	 0.162741130599029 
845	 0.164352774945389 
846	 0.166630918512176 
847	 0.167451278220784 
848	 0.167105965000464 
849	 0.167834626552285 
850	 0.168596694180291 
851	 0.169037085341454 
852	 0.169283770133899 
853	 0.169885991751274 
854	 0.171339373863268 
855	 0.172321727879884 
856	 0.172646177473626 
857	 0.172539671420461 
858	 0.172618143868692 
859	 0.17325861551803 
860	 0.174828098051904 
861	 0.176645326385209 
862	 0.17798014219107 
863	 0.178068345780429 
864	 0.177772671369012 
865	 0.179440745152032 
866	 0.181263805238154 
867	 0.182434524263984 
868	 0.182525226116581 
869	 0.18222888596321 
870	 0.182356388270963 
871	 0.184903840559069 
872	 0.18797182375606 
873	 0.187317327994238 
874	 0.187147840283284 
875	 0.188299221141561 
876	 0.188503443104101 
877	 0.189051573111079 
878	 0.190724639211089 
879	 0.191882906379351 
880	 0.192909876542031 
881	 0.194831219955461 
882	 0.195303395123579 
883	 0.194701543599278 
884	 0.19674925342357 
885	 0.198436782423599 
886	 0.198231743405389 
887	 0.197924237556187 
888	 0.198496631730726 
889	 0.200902006102559 
890	 0.202209164695947 
891	 0.202708707374582 
892	 0.205789664448745 
893	 0.208577093235964 
894	 0.209860962381895 
895	 0.211578181692414 
896	 0.212433479386825 
897	 0.210962227033568 
898	 0.211797139074306 
899	 0.214722471057716 
900	 0.216800682681806 
901	 0.216591952847139 
902	 0.214134925567214 
903	 0.211773682469684 
904	 0.212187985641443 
905	 0.21679254803369 
906	 0.219270713626624 
907	 0.219387384780883 
908	 0.218526287397224 
909	 0.218946357533311 
910	 0.220501405369997 
911	 0.219199237035287 
912	 0.218870461904974 
913	 0.221639558536975 
914	 0.225679601267807 
915	 0.228507046576242 
916	 0.227724135248438 
917	 0.227497244081834 
918	 0.228728353346022 
919	 0.231556936009119 
920	 0.23198893972908 
921	 0.229448842094357 
922	 0.228687341096707 
923	 0.229604383300524 
924	 0.231705343119218 
925	 0.232244515226015 
926	 0.230876275655477 
927	 0.228023254142759 
928	 0.227780652786676 
929	 0.231124777732242 
930	 0.233071263983767 
931	 0.235292587768328 
932	 0.238776864337206 
933	 0.241216375234989 
934	 0.241920988106115 
935	 0.240830130243376 
936	 0.242941282646199 
937	 0.245765020465341 
938	 0.239755217493627 
939	 0.232234132205157 
940	 0.228207277172923 
941	 0.239022467311925 
942	 0.244391713342376 
943	 0.232925971599703 
944	 0.239466654632714 
945	 0.251945895621447 
946	 0.244488599645978 
947	 0.236958844004402 
948	 0.237242445673182 
949	 0.253963668188958 
950	 0.261277873989467 
951	 0.250583010145465 
952	 0.23623262211643 
953	 0.228991033315785 
954	 0.237253604669466 
955	 0.242478674530362 
956	 0.246372478461867 
957	 0.258110307795507 
958	 0.257439781214696 
959	 0.246115446638982 
960	 0.246670117417541 
961	 0.250504442369716 
962	 0.253099588369828 
963	 0.254296090679229 
964	 0.250587884383983 
965	 0.2401712555798 
966	 0.24211891670027 
967	 0.249173279672752 
968	 0.240599769930101 
969	 0.245109750726463 
970	 0.261496965244338 
971	 0.257280213637552 
972	 0.251245107387066 
973	 0.252907315893669 
974	 0.249703522428147 
975	 0.249558061176138 
976	 0.26113990954139 
977	 0.265137171479181 
978	 0.261286528768472 
979	 0.257788646676075 
980	 0.250203663437629 
981	 0.242117541667353 
982	 0.25053530940389 
983	 0.261660528168187 
984	 0.266877163149435 
985	 0.261725428676695 
986	 0.254446432720397 
987	 0.254052530102115 
988	 0.25718047695503 
989	 0.259629850396391 
990	 0.253869367511794 
991	 0.256715273605504 
992	 0.267370825737853 
993	 0.266654837891051 
994	 0.2609091138541 
995	 0.255383156618614 
996	 0.259509464015043 
997	 0.265316100644901 
998	 0.265082432019662 
999	 0.269046823156429 
1000	 0.271214278266697 
1001	 0.258990115254073 
1002	 0.259046171952967 
1003	 0.269521922891534 
1004	 0.257819669740686 
1005	 0.257971066755618 
1006	 0.277434796580239 
1007	 0.281858948630254 
1008	 0.277955100179707 
1009	 0.272703979084261 
1010	 0.268684791421846 
1011	 0.268323166813806 
1012	 0.27334954665173 
1013	 0.277083110325605 
1014	 0.276798825609434 
1015	 0.269417933513504 
1016	 0.267834078945477 
1017	 0.275613358596854 
1018	 0.290102449775474 
1019	 0.29437721045427 
1020	 0.281751088832636 
1021	 0.278504551361842 
1022	 0.283081569745853 
1023	 0.289684589717294 
1024	 0.278635055679602 
1025	 0.262099530791984 
1026	 0.266359859312339 
1027	 0.275256068293366 
1028	 0.283263003726273 
1029	 0.288622673677835 
1030	 0.280902328019052 
1031	 0.265480565089546 
1032	 0.284144015113809 
1033	 0.290686167088067 
1034	 0.263665462618396 
1035	 0.269773440150927 
1036	 0.283625981038536 
1037	 0.27362725567715 
1038	 0.258828407444766 
1039	 0.25331172037701 
1040	 0.274885378292932 
1041	 0.279480117453657 
1042	 0.269346210982253 
1043	 0.292870091189037 
1044	 0.295872550668312 
1045	 0.266414089769601 
1046	 0.241521485975027 
1047	 0.236411078865638 
1048	 0.25722916639399 
1049	 0.286138119125878 
1050	 0.311034044849996 
1051	 0.320260600445505 
1052	 0.278343127252587 
1053	 0.237442927977285 
1054	 0.289629224311527 
1055	 0.306495876007486 
1056	 0.278328333195196 
1057	 0.24587428364154 
1058	 0.26029333729843 
1059	 0.311261670961693 
1060	 0.301364929466756 
1061	 0.277194452755757 
1062	 0.267254936838402 
1063	 0.324500604920016 
1064	 0.343926740586103 
1065	 0.27204057310579 
1066	 0.236351324807973 
1067	 0.245425439341568 
1068	 0.276017779037028 
1069	 0.265060715199465 
1070	 0.241849370080105 
1071	 0.279023424315384 
1072	 0.272002018159643 
1073	 0.222372311476268 
1074	 0.216845703789018 
1075	 0.235766868363515 
