Wavelength	SHSI00390.asd
325	 0.072180304018679 
326	 7.54272574103779E-02 
327	 7.74530996432705E-02 
328	 9.04269409372408E-02 
329	 0.096526875903282 
330	 9.09788847925931E-02 
331	 8.29474577254802E-02 
332	 7.74126066640566E-02 
333	 7.80590640430667E-02 
334	 7.94446201761351E-02 
335	 7.95576962242143E-02 
336	 7.59352882250664E-02 
337	 0.075573119617206 
338	 7.85593143614702E-02 
339	 7.46898337249532E-02 
340	 0.07107359906245 
341	 7.33133211278763E-02 
342	 7.32573498574966E-02 
343	 7.16324032527254E-02 
344	 7.20292326608757E-02 
345	 7.34457253378198E-02 
346	 7.48068928596132E-02 
347	 7.30829795180643E-02 
348	 0.071550671795028 
349	 7.24056970833181E-02 
350	 0.074790884120774 
351	 7.67402400498974E-02 
352	 7.55564598000343E-02 
353	 7.45044617854085E-02 
354	 7.46402656439777E-02 
355	 7.66039873622522E-02 
356	 7.75117473795187E-02 
357	 7.59194407099839E-02 
358	 0.074808352637113 
359	 0.074234096974173 
360	 7.36554141345148E-02 
361	 7.32745505858358E-02 
362	 7.30872611765237E-02 
363	 7.30007423928035E-02 
364	 7.27697981946234E-02 
365	 0.072406192327641 
366	 7.30065761168884E-02 
367	 7.34691485940807E-02 
368	 7.22170832968015E-02 
369	 0.072353187799556 
370	 7.36976173614124E-02 
371	 0.073286271539735 
372	 7.23806619651395E-02 
373	 7.16270079700344E-02 
374	 7.05600563731999E-02 
375	 6.96197162274741E-02 
376	 6.94062886263495E-02 
377	 6.83926359780573E-02 
378	 6.71201225991168E-02 
379	 6.85673060349247E-02 
380	 6.96811927532781E-02 
381	 6.92131367432611E-02 
382	 6.97857737398248E-02 
383	 7.11812678915129E-02 
384	 7.27623833803486E-02 
385	 7.30302364305588E-02 
386	 7.18937432198555E-02 
387	 7.03440730786079E-02 
388	 0.069247485729101 
389	 6.90535342581597E-02 
390	 6.94512449078578E-02 
391	 7.02132952151775E-02 
392	 7.11068510084906E-02 
393	 7.03705014295759E-02 
394	 6.89906160541214E-02 
395	 0.071183824760281 
396	 7.13790639949179E-02 
397	 6.81818435045154E-02 
398	 6.74026470001415E-02 
399	 6.80173225853541E-02 
400	 6.84170866800505E-02 
401	 6.82910248170649E-02 
402	 6.79119588779504E-02 
403	 6.82571048599361E-02 
404	 6.82083992315257E-02 
405	 6.75452224353427E-02 
406	 6.78545144904061E-02 
407	 6.86678927223882E-02 
408	 6.92318368158714E-02 
409	 6.93969694292738E-02 
410	 6.90889115753203E-02 
411	 0.06815168949116 
412	 6.76554573961018E-02 
413	 6.80390221011687E-02 
414	 6.84808571283486E-02 
415	 6.88890029087693E-02 
416	 6.92761471544657E-02 
417	 6.92860219608664E-02 
418	 6.89443318923712E-02 
419	 6.85102197929521E-02 
420	 6.84138494449428E-02 
421	 6.88450884797258E-02 
422	 6.93509303431325E-02 
423	 0.069592587101745 
424	 6.91778600844485E-02 
425	 6.92379372830693E-02 
426	 6.98382429812843E-02 
427	 7.00551845376751E-02 
428	 7.02499992965648E-02 
429	 7.05850859014604E-02 
430	 7.04738230613897E-02 
431	 7.01219805155271E-02 
432	 6.99975666674595E-02 
433	 6.97313339927369E-02 
434	 6.94042612718898E-02 
435	 6.95079560259475E-02 
436	 7.00762343987503E-02 
437	 7.09426526168102E-02 
438	 0.070436084001482 
439	 6.93860164425636E-02 
440	 6.97170804943889E-02 
441	 0.070341989745982 
442	 7.08561214262695E-02 
443	 7.09951851858634E-02 
444	 7.09903077052047E-02 
445	 7.10424550988023E-02 
446	 0.071062229619857 
447	 7.10960511701148E-02 
448	 0.071244153466676 
449	 7.15320135277429E-02 
450	 7.18749776524495E-02 
451	 7.17975383873043E-02 
452	 7.18350374192682E-02 
453	 7.24886179587568E-02 
454	 7.26131156585497E-02 
455	 0.072343454893778 
456	 7.27393549746924E-02 
457	 7.28747049780029E-02 
458	 7.25214679100901E-02 
459	 7.26436781951786E-02 
460	 7.29018414811602E-02 
461	 7.28153898626191E-02 
462	 7.29699301083933E-02 
463	 7.33471986459324E-02 
464	 0.073512202011796 
465	 7.35838640668998E-02 
466	 7.35913270726407E-02 
467	 7.33756500106247E-02 
468	 7.30625313239758E-02 
469	 7.28416945291648E-02 
470	 7.31426908763677E-02 
471	 0.073769123956258 
472	 0.073663319646176 
473	 7.33985251194522E-02 
474	 7.33605749316077E-02 
475	 7.34588167043259E-02 
476	 7.37007152652936E-02 
477	 7.41580727101281E-02 
478	 7.39661914616387E-02 
479	 7.32433127022814E-02 
480	 7.35912575998429E-02 
481	 7.41055933483266E-02 
482	 7.40435335780694E-02 
483	 7.39562011160234E-02 
484	 7.40489586484311E-02 
485	 7.46398640616234E-02 
486	 7.49647292697774E-02 
487	 0.074836028552617 
488	 7.50229295217924E-02 
489	 7.51111846566163E-02 
490	 7.46830722683885E-02 
491	 7.46655399922038E-02 
492	 7.49879811427385E-02 
493	 7.49168247042961E-02 
494	 7.50190900394397E-02 
495	 7.54817535292908E-02 
496	 7.59461657272441E-02 
497	 0.076174414164187 
498	 7.59174613212387E-02 
499	 7.58183877263209E-02 
500	 7.59974409344224E-02 
501	 7.61989309863795E-02 
502	 7.65193201488649E-02 
503	 7.69621658590789E-02 
504	 7.71703658375615E-02 
505	 7.72511988812193E-02 
506	 7.74719623375862E-02 
507	 7.75055189901521E-02 
508	 7.74633208908655E-02 
509	 7.81222847274547E-02 
510	 7.88540869006744E-02 
511	 7.91723041464246E-02 
512	 7.96945347315511E-02 
513	 0.080309605144694 
514	 8.05010563534695E-02 
515	 8.08597769173437E-02 
516	 8.14793221481864E-02 
517	 8.16315730707264E-02 
518	 8.16890822694862E-02 
519	 8.20996662776717E-02 
520	 8.26229857661972E-02 
521	 8.32149469501006E-02 
522	 8.39406297242676E-02 
523	 8.45495570473277E-02 
524	 8.49355868500666E-02 
525	 8.52690943493362E-02 
526	 8.55688554020149E-02 
527	 8.58263866291107E-02 
528	 8.61401318048493E-02 
529	 8.64894280217864E-02 
530	 0.086685823947421 
531	 0.086992423224901 
532	 0.087567835258518 
533	 8.81538752676035E-02 
534	 8.86378442880212E-02 
535	 8.88695324477333E-02 
536	 8.92745142368387E-02 
537	 8.98874978125763E-02 
538	 9.02054131248543E-02 
539	 9.02754568060798E-02 
540	 9.01991819122739E-02 
541	 9.05239371386458E-02 
542	 9.11388562031233E-02 
543	 9.14752189076713E-02 
544	 9.15991553513899E-02 
545	 9.15945333957605E-02 
546	 9.18330297871683E-02 
547	 9.22833266110045E-02 
548	 9.28513915030388E-02 
549	 9.32540711539143E-02 
550	 9.34025160263347E-02 
551	 9.32850394582593E-02 
552	 0.093283598686529 
553	 9.36024837064215E-02 
554	 9.36814456372746E-02 
555	 9.36994562491116E-02 
556	 9.41495424060858E-02 
557	 9.44584029390216E-02 
558	 9.45120740266058E-02 
559	 9.47038368314537E-02 
560	 9.49277174116582E-02 
561	 9.50702210815983E-02 
562	 9.51539259773178E-02 
563	 9.51537662179424E-02 
564	 9.49797203883941E-02 
565	 9.48674274630867E-02 
566	 9.48831360592831E-02 
567	 9.47180061454398E-02 
568	 9.45766356740193E-02 
569	 9.47476919678475E-02 
570	 9.48125006377118E-02 
571	 9.47392421773463E-02 
572	 9.48271320429482E-02 
573	 0.094822384789266 
574	 9.45967138208489E-02 
575	 9.44344324243175E-02 
576	 9.43519516248629E-02 
577	 0.094298743216608 
578	 9.43060007728262E-02 
579	 9.43255917012812E-02 
580	 9.41212918038882E-02 
581	 9.39602250705123E-02 
582	 9.40594495180399E-02 
583	 9.39411811410182E-02 
584	 9.37582121848441E-02 
585	 9.41962613264151E-02 
586	 0.094309697515059 
587	 9.38442690725067E-02 
588	 9.37967679106205E-02 
589	 9.40590000571419E-02 
590	 9.43538484358563E-02 
591	 9.40422569123366E-02 
592	 9.33344030238841E-02 
593	 9.33920912223244E-02 
594	 9.35889886462952E-02 
595	 9.35910298361857E-02 
596	 9.38425950015047E-02 
597	 9.40680657903275E-02 
598	 9.36782860274332E-02 
599	 0.093602595457787 
600	 9.39411168751864E-02 
601	 9.37463529629957E-02 
602	 9.35601439481028E-02 
603	 9.38398451588964E-02 
604	 9.37359548795291E-02 
605	 0.093376136072806 
606	 9.34834519323489E-02 
607	 9.35322269273116E-02 
608	 9.33433011232655E-02 
609	 9.31555074030139E-02 
610	 9.29747809922046E-02 
611	 0.092782905566345 
612	 9.24438670496463E-02 
613	 9.20808504263342E-02 
614	 9.21939428659487E-02 
615	 9.23643862854134E-02 
616	 9.23301829618971E-02 
617	 9.22805604656965E-02 
618	 9.21023797868338E-02 
619	 9.15241227976252E-02 
620	 9.14206829437486E-02 
621	 9.18261918652913E-02 
622	 0.091638003260728 
623	 9.13064422240889E-02 
624	 9.12783004416877E-02 
625	 9.15237351715205E-02 
626	 9.18502007927215E-02 
627	 9.18087105498955E-02 
628	 9.15580714803683E-02 
629	 0.091254032144585 
630	 0.091382560166727 
631	 9.17854659385382E-02 
632	 9.22010287745973E-02 
633	 9.20286160380289E-02 
634	 9.13655800116499E-02 
635	 9.09812020084297E-02 
636	 9.09460532866437E-02 
637	 9.12707990160881E-02 
638	 0.091602438932934 
639	 9.17038857850618E-02 
640	 9.12629132802154E-02 
641	 9.08404817963056E-02 
642	 9.06193795329429E-02 
643	 9.04489312886201E-02 
644	 9.03167578427125E-02 
645	 9.02126825071338E-02 
646	 9.01538518308081E-02 
647	 9.00768132821373E-02 
648	 8.98400752306533E-02 
649	 8.94806404699765E-02 
650	 8.90574915237063E-02 
651	 8.87537935635475E-02 
652	 8.85688532011322E-02 
653	 8.84740137066034E-02 
654	 8.84017942600177E-02 
655	 8.82910573369322E-02 
656	 8.80763939250816E-02 
657	 8.76833173424409E-02 
658	 8.71639592289559E-02 
659	 0.08708212545146 
660	 8.69806758215364E-02 
661	 8.60072536239758E-02 
662	 8.54718792515123E-02 
663	 0.085460705711133 
664	 8.46069859782215E-02 
665	 8.36939005404437E-02 
666	 8.33894205634621E-02 
667	 8.31463173182285E-02 
668	 8.28914162600911E-02 
669	 8.26962262158148E-02 
670	 8.24297519029314E-02 
671	 8.21034872145174E-02 
672	 8.20586028688303E-02 
673	 8.21432399423219E-02 
674	 8.21498140899349E-02 
675	 8.20062006362673E-02 
676	 8.18063128305648E-02 
677	 8.18396906933928E-02 
678	 8.21870158047734E-02 
679	 8.27836155069106E-02 
680	 8.28160433702526E-02 
681	 8.26492040469301E-02 
682	 8.29984689057172E-02 
683	 8.36715337572158E-02 
684	 8.45342960118307E-02 
685	 8.52565535171587E-02 
686	 8.61479533268247E-02 
687	 0.087447786420608 
688	 8.86216886544772E-02 
689	 8.96338556618093E-02 
690	 9.08796736279224E-02 
691	 9.22367899245018E-02 
692	 9.36698062523972E-02 
693	 9.49763050070882E-02 
694	 9.64366650635478E-02 
695	 9.82638620170937E-02 
696	 9.98283005628417E-02 
697	 0.101187816065781 
698	 0.102992640505458 
699	 0.104409763058597 
700	 0.10521458040866 
701	 0.106899481995597 
702	 0.108880054028082 
703	 0.110141138505812 
704	 0.11156594176404 
705	 0.113071627989594 
706	 0.113548694795005 
707	 0.11421440684631 
708	 0.115711968189622 
709	 0.116328329177509 
710	 0.116451789023661 
711	 0.117218171470751 
712	 0.118179408470985 
713	 0.119108940177898 
714	 0.119598390271936 
715	 0.119955884183415 
716	 0.120507498201717 
717	 0.12115275324167 
718	 0.121777496383332 
719	 0.121873612900432 
720	 0.12257955010179 
721	 0.123910525350308 
722	 0.124257408685208 
723	 0.124343431163839 
724	 0.124993948490757 
725	 0.125224874527636 
726	 0.12499798458097 
727	 0.124894074581802 
728	 0.125139845594982 
729	 0.125799586918954 
730	 0.126295442067315 
731	 0.126681048677841 
732	 0.127150687190264 
733	 0.127090627111996 
734	 0.126710800790743 
735	 0.12713764349366 
736	 0.127673787224952 
737	 0.127878243974387 
738	 0.128371831232734 
739	 0.128898875752598 
740	 0.12882928356582 
741	 0.128832938555904 
742	 0.129069833008692 
743	 0.12931338505548 
744	 0.129272927238094 
745	 0.128796947634416 
746	 0.129075116615008 
747	 0.129848957697923 
748	 0.130028262308265 
749	 0.129960897004807 
750	 0.129847068480469 
751	 0.13021526432783 
752	 0.130596843310182 
753	 0.13047177216236 
754	 0.130287512976781 
755	 0.130184770379538 
756	 0.130276851255209 
757	 0.130381374227463 
758	 0.130399732536788 
759	 0.130164440902961 
760	 0.130059762344393 
761	 0.131317024266515 
762	 0.131887159386401 
763	 0.131555385240549 
764	 0.131408630741515 
765	 0.131568568663215 
766	 0.131978372628967 
767	 0.132227380776631 
768	 0.132319234072457 
769	 0.132261251014748 
770	 0.132554344622173 
771	 0.133049497550053 
772	 0.132743621683564 
773	 0.132333261849378 
774	 0.13229621598463 
775	 0.132423016496874 
776	 0.132567071684636 
777	 0.132503217651483 
778	 0.132594640284048 
779	 0.132883269210441 
780	 0.133059463621125 
781	 0.133213088884466 
782	 0.133386699986562 
783	 0.13313964438441 
784	 0.132838479121835 
785	 0.133424129606215 
786	 0.13378868833744 
787	 0.133676445285559 
788	 0.13380427635347 
789	 0.133948917721716 
790	 0.13390241265112 
791	 0.134140209917478 
792	 0.134506130077125 
793	 0.134435755937828 
794	 0.134189257908983 
795	 0.133968850590506 
796	 0.134300638765475 
797	 0.134623027376119 
798	 0.134386014274478 
799	 0.13445587122041 
800	 0.134825627083636 
801	 0.135042548095447 
802	 0.135055466700384 
803	 0.134907957817363 
804	 0.1350961093151 
805	 0.135218422837382 
806	 0.134850719874933 
807	 0.135131921134456 
808	 0.135837029563654 
809	 0.135618690571361 
810	 0.135471310438733 
811	 0.135702358240767 
812	 0.135374895313289 
813	 0.135073879472954 
814	 0.135645660420692 
815	 0.136170133489762 
816	 0.136343495033949 
817	 0.135996149920062 
818	 0.136021714415999 
819	 0.136680907342471 
820	 0.136984051521154 
821	 0.137034465706699 
822	 0.137044814491786 
823	 0.137201109347819 
824	 0.137442277455099 
825	 0.137496179277592 
826	 0.137338332881907 
827	 0.137025827803078 
828	 0.137049856079477 
829	 0.137057943479735 
830	 0.136587219893935 
831	 0.136259046266119 
832	 0.136304770472147 
833	 0.136956509211419 
834	 0.137610652310565 
835	 0.13787110808685 
836	 0.13725304687551 
837	 0.136782624638409 
838	 0.137610011310343 
839	 0.138399081107574 
840	 0.13864491643767 
841	 0.137743179103242 
842	 0.137180074665008 
843	 0.13752195487086 
844	 0.137625587937667 
845	 0.138013948833881 
846	 0.139267581345499 
847	 0.138817343581494 
848	 0.137157880787252 
849	 0.137244369507023 
850	 0.137725526880712 
851	 0.138032464063109 
852	 0.13798971732004 
853	 0.137820150288398 
854	 0.137809090334869 
855	 0.138137662530571 
856	 0.138591648996795 
857	 0.138554016752593 
858	 0.138477920036446 
859	 0.138542237705779 
860	 0.138795941402846 
861	 0.139117839977892 
862	 0.139362715892051 
863	 0.139288926341118 
864	 0.138964863032842 
865	 0.138666690079996 
866	 0.13827928656329 
867	 0.137982391801785 
868	 0.138680207498383 
869	 0.139170595538498 
870	 0.138581178631894 
871	 0.13867492668109 
872	 0.139111405808519 
873	 0.138644311250604 
874	 0.138925978393637 
875	 0.14005025288887 
876	 0.140383932827888 
877	 0.140052458589855 
878	 0.139374912490957 
879	 0.140076576554367 
880	 0.141176297349278 
881	 0.14071194141342 
882	 0.140438858261095 
883	 0.140643727064761 
884	 0.140567599791796 
885	 0.140684649227912 
886	 0.141127340739751 
887	 0.140906264585214 
888	 0.140548196395904 
889	 0.140869499126543 
890	 0.140890446640026 
891	 0.140663784650882 
892	 0.141211116429439 
893	 0.141005652191775 
894	 0.139833425750339 
895	 0.141307516202138 
896	 0.142800706026851 
897	 0.141080188662201 
898	 0.141129269348459 
899	 0.142606392528364 
900	 0.141857454953083 
901	 0.142066101775475 
902	 0.143626329649519 
903	 0.143798612713624 
904	 0.142677346483276 
905	 0.140719349005568 
906	 0.14066971687771 
907	 0.142068616587198 
908	 0.14335108423632 
909	 0.143191261419026 
910	 0.142004909772514 
911	 0.143224611866135 
912	 0.14459110237033 
913	 0.144781369192842 
914	 0.144647646043576 
915	 0.144265537683328 
916	 0.143621624336834 
917	 0.141445698428077 
918	 0.139479221174798 
919	 0.143305249496756 
920	 0.14482374524964 
921	 0.142234632386641 
922	 0.142575460810039 
923	 0.143374245872869 
924	 0.142346309651362 
925	 0.142665845549481 
926	 0.143892705715896 
927	 0.143924519300638 
928	 0.144237921385791 
929	 0.145095405249815 
930	 0.145331041363236 
931	 0.145372713820583 
932	 0.145501407967831 
933	 0.145526998425971 
934	 0.143802374225633 
935	 0.138495387611697 
936	 0.137761825744894 
937	 0.141161787963213 
938	 0.141401784639049 
939	 0.146201674690128 
940	 0.154265755143752 
941	 0.151839176642654 
942	 0.147942990240689 
943	 0.14888349022084 
944	 0.144612299133982 
945	 0.13862220902765 
946	 0.138441222192732 
947	 0.140802046684223 
948	 0.143667385093257 
949	 0.143645274042188 
950	 0.142030166425987 
951	 0.140566686475283 
952	 0.145089733598116 
953	 0.149082366591086 
954	 0.14666737308532 
955	 0.144944785370038 
956	 0.144210237419735 
957	 0.142426884585531 
958	 0.146919659947102 
959	 0.154923817582493 
960	 0.15206045800202 
961	 0.149294872002912 
962	 0.151257414377713 
963	 0.151673049314087 
964	 0.150941891764234 
965	 0.149943356071616 
966	 0.149071104470879 
967	 0.147637415991661 
968	 0.14378328070467 
969	 0.144038452394719 
970	 0.147250520899804 
971	 0.141987228661124 
972	 0.13969335315916 
973	 0.145329524992841 
974	 0.145973081228287 
975	 0.143472717569648 
976	 0.141387950468082 
977	 0.138859343087889 
978	 0.138651523083053 
979	 0.14719629278007 
980	 0.147686469650231 
981	 0.140437303682945 
982	 0.147001966585688 
983	 0.15108067486469 
984	 0.145966088733246 
985	 0.149488844471473 
986	 0.153617525174765 
987	 0.14904476800442 
988	 0.147650019703004 
989	 0.148961876556673 
990	 0.147609375568802 
991	 0.14527664200044 
992	 0.143838893343102 
993	 0.148876649194695 
994	 0.150860602465345 
995	 0.146315167283705 
996	 0.14650384515382 
997	 0.147116871184271 
998	 0.143667665358731 
999	 0.142718726181755 
1000	 0.143859421848139 
1001	 0.144463485642105 
1002	 0.146311560461017 
1003	 0.147931072614314 
1004	 0.142633635864043 
1005	 0.142564462742669 
1006	 0.150245846995028 
1007	 0.151362640541599 
1008	 0.150204499636702 
1009	 0.150316141311468 
1010	 0.147748313165377 
1011	 0.143438313449435 
1012	 0.139455215758712 
1013	 0.140477773600974 
1014	 0.144384880583787 
1015	 0.142636692874296 
1016	 0.148352286257606 
1017	 0.159648316072528 
1018	 0.151968672193761 
1019	 0.146639479588946 
1020	 0.153443056222605 
1021	 0.151619960036063 
1022	 0.14251367747814 
1023	 0.131590364870424 
1024	 0.141107087837921 
1025	 0.156903597352395 
1026	 0.150056793076804 
1027	 0.157225066537353 
1028	 0.174127674384394 
1029	 0.162489489348865 
1030	 0.146641244061263 
1031	 0.137792238039728 
1032	 0.140352590465701 
1033	 0.147421616555002 
1034	 0.153510192830345 
1035	 0.155309016117909 
1036	 0.156254254274948 
1037	 0.159927988651461 
1038	 0.159646268414531 
1039	 0.154039146634535 
1040	 0.143206916287616 
1041	 0.148648919453263 
1042	 0.164623912310708 
1043	 0.159338455567204 
1044	 0.150478972131315 
1045	 0.147056537980385 
1046	 0.158940442536042 
1047	 0.170831509402358 
1048	 0.170764807996772 
1049	 0.153780964159929 
1050	 0.137687910186378 
1051	 0.139820744362067 
1052	 0.158451402492322 
1053	 0.173376074299972 
1054	 0.159803012095631 
1055	 0.152080413334433 
1056	 0.153414400078468 
1057	 0.151653452772545 
1058	 0.152215850605558 
1059	 0.156860243282025 
1060	 0.166939746610925 
1061	 0.174332977656565 
1062	 0.175776230360059 
1063	 0.178096435998771 
1064	 0.17825674745492 
1065	 0.172018216158655 
1066	 0.146044568365269 
1067	 0.131324311727083 
1068	 0.156503702936454 
1069	 0.157409050576752 
1070	 0.14914045627852 
1071	 0.177149211543455 
1072	 0.15769591183171 
1073	 0.110948791961914 
1074	 0.140959636174228 
1075	 0.173595537083235 
