Wavelength	SHSI00214.asd
325	 0.12655868014431 
326	 0.120007035393038 
327	 9.38134010725164E-02 
328	 0.106487384156184 
329	 0.114540226757889 
330	 0.10461705785559 
331	 9.77947009016302E-02 
332	 0.097266470311771 
333	 0.103911585663062 
334	 0.110308490137403 
335	 0.112206409790731 
336	 0.103636660466501 
337	 9.76701683606092E-02 
338	 9.74000695637029E-02 
339	 9.49386805710306E-02 
340	 9.59480559474268E-02 
341	 0.104082773960684 
342	 0.106240960282473 
343	 0.104347594111336 
344	 0.105529989675817 
345	 0.110165436554235 
346	 0.115483183259501 
347	 0.109774721324361 
348	 0.106778132651931 
349	 0.11371306691056 
350	 0.108894433404314 
351	 0.100717063970365 
352	 0.106481041154702 
353	 0.109671722186784 
354	 0.10794655623444 
355	 0.108105025800017 
356	 0.11069224973214 
357	 0.115050752264346 
358	 0.113727019088043 
359	 0.109828143959393 
360	 0.10916992497034 
361	 0.111178248068537 
362	 0.114025210999306 
363	 0.112179279390815 
364	 0.110893816528426 
365	 0.11247781225676 
366	 0.111991254065927 
367	 0.111315607314152 
368	 0.113587485535473 
369	 0.116738241845521 
370	 0.119290826667683 
371	 0.1178748366417 
372	 0.117627298288053 
373	 0.120661496880784 
374	 0.120778336540177 
375	 0.118234970823617 
376	 0.114416898995432 
377	 0.112064394893828 
378	 0.111708776126857 
379	 0.112363011187805 
380	 0.113280237384438 
381	 0.114043307984175 
382	 0.115706491699933 
383	 0.116247372121962 
384	 0.113068518478226 
385	 0.112912307714011 
386	 0.115166049417192 
387	 0.113000103068063 
388	 0.110919777397679 
389	 0.11079321882418 
390	 0.110833308745957 
391	 0.111620281022964 
392	 0.11391820838266 
393	 0.113918573907486 
394	 0.111581130483865 
395	 0.109298405866568 
396	 0.108005797608394 
397	 0.107759431320588 
398	 0.106561521818557 
399	 0.105370789437389 
400	 0.105242207919917 
401	 0.10520005867165 
402	 0.105632840988215 
403	 0.108310683191684 
404	 0.109998453061373 
405	 0.109553475327338 
406	 0.109141347612092 
407	 0.109216841229994 
408	 0.110032239650751 
409	 0.109252792390916 
410	 0.107466446452842 
411	 0.107724867003077 
412	 0.108656467245981 
413	 0.109381950661042 
414	 0.108784228431545 
415	 0.10794752035811 
416	 0.108385837716613 
417	 0.108739317877671 
418	 0.108724035511809 
419	 0.108491705884457 
420	 0.108233662977901 
421	 0.108097569815926 
422	 0.108167336639136 
423	 0.108555152783203 
424	 0.109424748679275 
425	 0.109656507831951 
426	 0.109248308242262 
427	 0.109310085538318 
428	 0.109667331028932 
429	 0.110060364636919 
430	 0.109488888148172 
431	 0.108351255839933 
432	 0.107493246283765 
433	 0.107156793803813 
434	 0.107300785372701 
435	 0.107390082288753 
436	 0.107756786097333 
437	 0.10853236810157 
438	 0.108829604826793 
439	 0.10874262537588 
440	 0.108678323420246 
441	 0.108666513647512 
442	 0.108829135194292 
443	 0.109409331132746 
444	 0.110434593872719 
445	 0.111761054531391 
446	 0.111528798453015 
447	 0.110559194758668 
448	 0.111341600193641 
449	 0.11218155020971 
450	 0.112615530389992 
451	 0.113177962356925 
452	 0.113902757889083 
453	 0.114790809474219 
454	 0.115751466780196 
455	 0.116500498627962 
456	 0.116371742199019 
457	 0.116194376339985 
458	 0.116319224179624 
459	 0.116416875416771 
460	 0.116736897476363 
461	 0.117568023042974 
462	 0.117797829690142 
463	 0.11751593300099 
464	 0.117779225199868 
465	 0.118371278693617 
466	 0.119151451843692 
467	 0.119955618617384 
468	 0.120288581789031 
469	 0.119497126222748 
470	 0.119396955573018 
471	 0.120215340042438 
472	 0.120871838906895 
473	 0.121364972557467 
474	 0.121659590505987 
475	 0.121550141863832 
476	 0.121505330730069 
477	 0.122383338638925 
478	 0.122920014131282 
479	 0.122929152311869 
480	 0.123276173430288 
481	 0.12387055510207 
482	 0.124616149434085 
483	 0.125467571925173 
484	 0.126196557042881 
485	 0.126403770549662 
486	 0.125880482655989 
487	 0.124839367607354 
488	 0.124630446793186 
489	 0.12481961102992 
490	 0.124893391223801 
491	 0.125775932194187 
492	 0.12686094687498 
493	 0.126022503667195 
494	 0.125601458338913 
495	 0.126541071193413 
496	 0.127753208407089 
497	 0.128785056767972 
498	 0.129205151309544 
499	 0.129651098225049 
500	 0.130264343382502 
501	 0.130926158655806 
502	 0.131524575373797 
503	 0.131995514996358 
504	 0.132411920964407 
505	 0.132980939371942 
506	 0.134019010382373 
507	 0.13497124559919 
508	 0.13583559694777 
509	 0.137298067998817 
510	 0.138809500796533 
511	 0.139912650636805 
512	 0.140693579677193 
513	 0.141470093099882 
514	 0.142923192459507 
515	 0.14447503740979 
516	 0.14582082848638 
517	 0.146630779795956 
518	 0.147292935942684 
519	 0.14822790869192 
520	 0.148709053163773 
521	 0.149068476360577 
522	 0.15053896878901 
523	 0.152061559997891 
524	 0.153245627233244 
525	 0.154988255555659 
526	 0.156657579443921 
527	 0.157252364879327 
528	 0.157523281210113 
529	 0.157960783943835 
530	 0.159391422635774 
531	 0.161141636989265 
532	 0.162685246997272 
533	 0.16369447039366 
534	 0.164359707770215 
535	 0.165132430099214 
536	 0.166138628433442 
537	 0.167429901369971 
538	 0.168925633808845 
539	 0.170249150108494 
540	 0.171043379054215 
541	 0.171407078839986 
542	 0.171762508829513 
543	 0.173125282527351 
544	 0.174475691492143 
545	 0.175392772630689 
546	 0.176184018045657 
547	 0.177047006870268 
548	 0.178195841715364 
549	 0.179059461027409 
550	 0.179627220428587 
551	 0.180334524544594 
552	 0.181264571579175 
553	 0.182439653989823 
554	 0.18352826657682 
555	 0.184521660131699 
556	 0.185523192760981 
557	 0.186452166646114 
558	 0.187218078282554 
559	 0.187558467148909 
560	 0.187892344132886 
561	 0.188599288003318 
562	 0.189270527367984 
563	 0.189952515497997 
564	 0.191076312727233 
565	 0.191655315874349 
566	 0.191455486246656 
567	 0.191791077202322 
568	 0.192475563472288 
569	 0.193109821783961 
570	 0.193147432305213 
571	 0.192834074613781 
572	 0.19354889648178 
573	 0.194152255877891 
574	 0.19403580855188 
575	 0.194238245920779 
576	 0.194744647660848 
577	 0.195249666355327 
578	 0.195990754351584 
579	 0.196772713113038 
580	 0.196511402779626 
581	 0.196305823147052 
582	 0.197108603716178 
583	 0.197830899610299 
584	 0.19829376547464 
585	 0.198555809109832 
586	 0.198905406518189 
587	 0.199440302136198 
588	 0.199904276570524 
589	 0.200185844931568 
590	 0.200171150089853 
591	 0.199905961474204 
592	 0.199704072250137 
593	 0.200492878443119 
594	 0.201001441538519 
595	 0.200624038231327 
596	 0.200948817256984 
597	 0.201821249598447 
598	 0.20263482828272 
599	 0.203087913033356 
600	 0.203105683310245 
601	 0.203009976581649 
602	 0.202835590640111 
603	 0.202647264838819 
604	 0.203006278744341 
605	 0.203601671517051 
606	 0.203410497650719 
607	 0.203116938469634 
608	 0.202981882021249 
609	 0.202916664197345 
610	 0.202678355535529 
611	 0.201982071685248 
612	 0.201711924259145 
613	 0.201747099577912 
614	 0.200896212779405 
615	 0.200069458719545 
616	 0.199813285623745 
617	 0.199645541157272 
618	 0.19949624944116 
619	 0.199363365812005 
620	 0.199149473840943 
621	 0.198880804968327 
622	 0.198798562241511 
623	 0.19881740639756 
624	 0.198856749477651 
625	 0.198975215344761 
626	 0.1991977713433 
627	 0.199535806495492 
628	 0.200189503253901 
629	 0.200981940358357 
630	 0.200444159455499 
631	 0.199760967104721 
632	 0.200518902231957 
633	 0.200640940870369 
634	 0.20006633417167 
635	 0.200247911911543 
636	 0.200570909226385 
637	 0.200757545184131 
638	 0.201637145358989 
639	 0.202624856231941 
640	 0.202499470964563 
641	 0.202577078644513 
642	 0.203132967730028 
643	 0.203461146345641 
644	 0.203724111723352 
645	 0.20406340912794 
646	 0.204132926867445 
647	 0.203989831124946 
648	 0.20393663827982 
649	 0.20396283375092 
650	 0.203975947354677 
651	 0.203499779445594 
652	 0.202670816601339 
653	 0.201697691527407 
654	 0.20103487051468 
655	 0.200398564140206 
656	 0.198638055335264 
657	 0.196183264203803 
658	 0.193571317434645 
659	 0.191558112840519 
660	 0.189988912581591 
661	 0.188577521173228 
662	 0.186517835607216 
663	 0.183768534725684 
664	 0.181388867757156 
665	 0.179005309132116 
666	 0.176351462764394 
667	 0.174492815257556 
668	 0.173207247096076 
669	 0.17144395239373 
670	 0.169940960938167 
671	 0.168954205825954 
672	 0.168383601204886 
673	 0.167974895467982 
674	 0.167448604024635 
675	 0.167037543130763 
676	 0.166994068469478 
677	 0.167934352734972 
678	 0.168861744966897 
679	 0.169349212051015 
680	 0.170528883248182 
681	 0.172286180258061 
682	 0.174209517965069 
683	 0.176826650993979 
684	 0.180105688230863 
685	 0.18351260245917 
686	 0.187484304403178 
687	 0.192341087004157 
688	 0.197743758437055 
689	 0.203060222853767 
690	 0.208284289081479 
691	 0.213811737767997 
692	 0.219900876972563 
693	 0.226604700993912 
694	 0.233223835818576 
695	 0.238781126846285 
696	 0.244375973091003 
697	 0.250234661491541 
698	 0.256674903491182 
699	 0.26245863056552 
700	 0.266993778737567 
701	 0.271653009615867 
702	 0.276313175611223 
703	 0.280630784686745 
704	 0.284582662585253 
705	 0.288222602862663 
706	 0.291574249502324 
707	 0.294750218665671 
708	 0.297832158384367 
709	 0.300955019046624 
710	 0.303970543619661 
711	 0.306535023009364 
712	 0.309151599463004 
713	 0.311925709564462 
714	 0.31468922805874 
715	 0.316976037993714 
716	 0.318533809420551 
717	 0.320791963388414 
718	 0.323837171167407 
719	 0.326437495678444 
720	 0.328135264302207 
721	 0.328911106091085 
722	 0.329584333783582 
723	 0.330889998052375 
724	 0.333532440123759 
725	 0.33546388924064 
726	 0.336471203267223 
727	 0.338109277072254 
728	 0.339482609209191 
729	 0.340335784104296 
730	 0.342059588951864 
731	 0.343936750783523 
732	 0.344814889645554 
733	 0.345266951538583 
734	 0.345742715499092 
735	 0.347184382436567 
736	 0.348627443867627 
737	 0.349408086034746 
738	 0.35016233952843 
739	 0.351013740639652 
740	 0.352009139824086 
741	 0.353052158208128 
742	 0.354017366465846 
743	 0.354566484588905 
744	 0.355059803735499 
745	 0.355812746949864 
746	 0.356625875842356 
747	 0.357488183605344 
748	 0.358485331164393 
749	 0.359407826654463 
750	 0.360168298067546 
751	 0.360795250826374 
752	 0.361519680414564 
753	 0.362550701904296 
754	 0.363077167942489 
755	 0.363333648284354 
756	 0.364784945266282 
757	 0.364467583480421 
758	 0.361587927199408 
759	 0.362105270451347 
760	 0.367285750000447 
761	 0.373318590442767 
762	 0.375783797798508 
763	 0.375473988931021 
764	 0.377700034423092 
765	 0.378620929559308 
766	 0.37742897147324 
767	 0.376806863509113 
768	 0.376671424935218 
769	 0.376725742804024 
770	 0.37691592415525 
771	 0.377343185307968 
772	 0.378447252249882 
773	 0.379628280408095 
774	 0.38049347977969 
775	 0.381533545244204 
776	 0.382283638527169 
777	 0.381761362698741 
778	 0.38201939805656 
779	 0.383373047544605 
780	 0.384149789129786 
781	 0.385033992695817 
782	 0.386493398470601 
783	 0.387246783760554 
784	 0.387542640328093 
785	 0.388360253599443 
786	 0.389038118113231 
787	 0.389480887249952 
788	 0.390166684158803 
789	 0.391078209626314 
790	 0.392120901247439 
791	 0.392609189326348 
792	 0.392847653009478 
793	 0.393951461134431 
794	 0.394727512350574 
795	 0.394939324217884 
796	 0.395701367795702 
797	 0.396456663665259 
798	 0.396645959065916 
799	 0.397340976841512 
800	 0.398614574674425 
801	 0.400174831261295 
802	 0.401142312835133 
803	 0.401324249121752 
804	 0.402110850916124 
805	 0.402814526486734 
806	 0.402645727547617 
807	 0.402770431590548 
808	 0.403527509151173 
809	 0.405274000982401 
810	 0.406344012698508 
811	 0.406132057161922 
812	 0.406130127193085 
813	 0.406734574998982 
814	 0.408263730158244 
815	 0.409650329164191 
816	 0.411104196636336 
817	 0.414516192674387 
818	 0.416676848028955 
819	 0.416374136937051 
820	 0.41552184919556 
821	 0.415216553710739 
822	 0.416538696762066 
823	 0.419702776129234 
824	 0.422785993632515 
825	 0.420652661620008 
826	 0.419300242159813 
827	 0.420865767132433 
828	 0.421503541836211 
829	 0.421817577013781 
830	 0.422935933358594 
831	 0.424575182543534 
832	 0.426294764785663 
833	 0.427228304481051 
834	 0.427430008178078 
835	 0.427026144410999 
836	 0.426502795190091 
837	 0.426404768985636 
838	 0.427212198693733 
839	 0.427267968814144 
840	 0.426770686797886 
841	 0.427211360834508 
842	 0.428608618593876 
843	 0.430447404409277 
844	 0.429759878799094 
845	 0.428170432303212 
846	 0.427791232804492 
847	 0.42827821459721 
848	 0.429213591136831 
849	 0.429591148215387 
850	 0.429416999852967 
851	 0.429074844618798 
852	 0.430784336692696 
853	 0.432976559898812 
854	 0.433797414627718 
855	 0.434364252870947 
856	 0.434589509258997 
857	 0.433756748503436 
858	 0.432782415698753 
859	 0.432245338062597 
860	 0.433102863634609 
861	 0.433848973186001 
862	 0.433114211134369 
863	 0.433068987228021 
864	 0.433674981424354 
865	 0.433711240586121 
866	 0.435129746913379 
867	 0.437913626499263 
868	 0.438806408075238 
869	 0.439730705689396 
870	 0.442083218162741 
871	 0.442395954865568 
872	 0.441498924147408 
873	 0.44189337882125 
874	 0.44335241015913 
875	 0.445473417008428 
876	 0.446625942512328 
877	 0.447600369818907 
878	 0.449102526444758 
879	 0.451875950892504 
880	 0.454680427158998 
881	 0.455417819979261 
882	 0.455945408500565 
883	 0.45688699307032 
884	 0.458527292721617 
885	 0.459940862693648 
886	 0.46059707423498 
887	 0.460953905423695 
888	 0.461119951270779 
889	 0.461176445131711 
890	 0.460883232946173 
891	 0.460819739764048 
892	 0.46307702152748 
893	 0.464194283068379 
894	 0.463335654873375 
895	 0.466705108007126 
896	 0.47057582848986 
897	 0.470248119670333 
898	 0.473408413578102 
899	 0.479083605494341 
900	 0.480894100846429 
901	 0.481100791188616 
902	 0.48039124493073 
903	 0.478505798983754 
904	 0.476739191185861 
905	 0.47632144637416 
906	 0.478586198905467 
907	 0.482748977216749 
908	 0.487229878905466 
909	 0.486221829850004 
910	 0.481118380024032 
911	 0.48445888463447 
912	 0.487803263969825 
913	 0.487206376712586 
914	 0.491519544580134 
915	 0.495866574599719 
916	 0.493528027664751 
917	 0.490815619819611 
918	 0.489368004364384 
919	 0.489449970660762 
920	 0.490488488432196 
921	 0.491500986124054 
922	 0.489342257730955 
923	 0.486405372316217 
924	 0.484784644798279 
925	 0.482116247437412 
926	 0.478766166020354 
927	 0.476164124543674 
928	 0.47692161261305 
929	 0.481625825520569 
930	 0.487102431331647 
931	 0.491303407605446 
932	 0.492794166956215 
933	 0.498819513091134 
934	 0.505040149252773 
935	 0.504061617614504 
936	 0.505492610054839 
937	 0.506833114154542 
938	 0.495526249832753 
939	 0.487673595008092 
940	 0.488178134984683 
941	 0.494200767979189 
942	 0.499929633196237 
943	 0.500931056203137 
944	 0.498086955013882 
945	 0.494616202774297 
946	 0.495230354396509 
947	 0.499509317445497 
948	 0.504434954269258 
949	 0.501392016080933 
950	 0.497335243216065 
951	 0.49557053867573 
952	 0.495645867466364 
953	 0.497712082114649 
954	 0.501143752106983 
955	 0.497092442514386 
956	 0.49245960427001 
957	 0.501999215329354 
958	 0.506422103217946 
959	 0.503224559487568 
960	 0.502245702051466 
961	 0.501695750937195 
962	 0.501100241904681 
963	 0.502896895300675 
964	 0.500958264923848 
965	 0.490446879608383 
966	 0.489600512702674 
967	 0.495457270760538 
968	 0.495928383508579 
969	 0.496326113502325 
970	 0.496769756491991 
971	 0.492619855598843 
972	 0.491397520707099 
973	 0.496484099559392 
974	 0.501266681837429 
975	 0.503251262395666 
976	 0.501060063395558 
977	 0.505181459648484 
978	 0.51025071434256 
979	 0.500288771125841 
980	 0.496771806657083 
981	 0.502649543191628 
982	 0.502798518188205 
983	 0.501227324475216 
984	 0.500746368025188 
985	 0.50488945996765 
986	 0.50795626326913 
987	 0.503864423207823 
988	 0.499424310303313 
989	 0.498342316606578 
990	 0.50525143361813 
991	 0.507526571430348 
992	 0.503651175189025 
993	 0.502434720736675 
994	 0.503353909150913 
995	 0.505581246633296 
996	 0.506069990233704 
997	 0.502581399615787 
998	 0.49458870962985 
999	 0.498454300625022 
1000	 0.507864752336069 
1001	 0.5074270100374 
1002	 0.506188964825362 
1003	 0.506862400519679 
1004	 0.511548232270613 
1005	 0.511278373999493 
1006	 0.504332869562633 
1007	 0.502175200305681 
1008	 0.502271416052305 
1009	 0.502459073810207 
1010	 0.505491738760862 
1011	 0.508334240435756 
1012	 0.506475388513326 
1013	 0.507883477887599 
1014	 0.512535203427243 
1015	 0.515944677052995 
1016	 0.518757908628653 
1017	 0.519342982567795 
1018	 0.510052827415875 
1019	 0.507654768979219 
1020	 0.518214111804591 
1021	 0.516326206259863 
1022	 0.511482194892193 
1023	 0.515022846733614 
1024	 0.521467027871784 
1025	 0.525076887935613 
1026	 0.518311143565575 
1027	 0.512355221257657 
1028	 0.509486972330383 
1029	 0.50685900281184 
1030	 0.501838902019021 
1031	 0.499341368654255 
1032	 0.527856654350184 
1033	 0.545338406055701 
1034	 0.528743965498364 
1035	 0.518313951182727 
1036	 0.516775108586861 
1037	 0.522564489315979 
1038	 0.527877670053239 
1039	 0.526359620537331 
1040	 0.511331000247256 
1041	 0.502606432632351 
1042	 0.501405490952163 
1043	 0.494963525575949 
1044	 0.500868907884448 
1045	 0.516592947448182 
1046	 0.503769252016686 
1047	 0.494349545454735 
1048	 0.503910255086944 
1049	 0.493375471882658 
1050	 0.485948860955235 
1051	 0.504287250939569 
1052	 0.510189736576961 
1053	 0.501767782903499 
1054	 0.487114050788679 
1055	 0.49750493128668 
1056	 0.523155853565136 
1057	 0.52281483547067 
1058	 0.511048611904774 
1059	 0.497116482711734 
1060	 0.494187263130973 
1061	 0.504651080708391 
1062	 0.524773270473206 
1063	 0.530970111039328 
1064	 0.519474178652235 
1065	 0.49514876006194 
1066	 0.509157020289541 
1067	 0.524207748029454 
1068	 0.497115215532662 
1069	 0.468614459557966 
1070	 0.464206022432767 
1071	 0.50565037159401 
1072	 0.496417293032864 
1073	 0.458264261620959 
1074	 0.500887046394663 
1075	 0.518157341336922 
