Wavelength	SHSI00232.asd
325	 8.54591102582873E-02 
326	 9.06826439880259E-02 
327	 9.91428035780247E-02 
328	 0.095232183360236 
329	 8.57110945918248E-02 
330	 7.60919046480496E-02 
331	 0.079111384080279 
332	 8.43739204532369E-02 
333	 8.18204532291533E-02 
334	 7.95722813229511E-02 
335	 8.04643919461592E-02 
336	 8.92059958453041E-02 
337	 8.91897411019059E-02 
338	 7.87225781904833E-02 
339	 7.48395929024621E-02 
340	 7.47705705399576E-02 
341	 7.55970002263647E-02 
342	 8.02546989188758E-02 
343	 8.56591281269411E-02 
344	 8.57981896839613E-02 
345	 8.48100597864124E-02 
346	 0.08410300988808 
347	 8.41236910507547E-02 
348	 8.50262492017374E-02 
349	 0.086278785793125 
350	 8.26096818308068E-02 
351	 7.82929577476707E-02 
352	 8.09571268040866E-02 
353	 8.25335800343475E-02 
354	 8.17602456876379E-02 
355	 8.17162680189055E-02 
356	 8.27401437901312E-02 
357	 8.47523383070304E-02 
358	 8.55265870525855E-02 
359	 8.55850144959754E-02 
360	 8.61735576773636E-02 
361	 8.65226462710026E-02 
362	 8.61659482380912E-02 
363	 8.39255524985507E-02 
364	 8.28975034974249E-02 
365	 8.44053215798631E-02 
366	 8.52105800165474E-02 
367	 0.086074529326621 
368	 8.84612458550212E-02 
369	 9.04215884069541E-02 
370	 9.12604531858244E-02 
371	 0.090119846959463 
372	 9.01039880451385E-02 
373	 9.22487520275383E-02 
374	 9.10367126803419E-02 
375	 8.78934225332869E-02 
376	 8.55907405219724E-02 
377	 8.43468526944864E-02 
378	 8.46077797041445E-02 
379	 8.74071904626052E-02 
380	 8.97802710391496E-02 
381	 9.01766314923552E-02 
382	 0.090477969613658 
383	 9.01621747524864E-02 
384	 8.83611740935962E-02 
385	 8.74841042238931E-02 
386	 8.75489256498171E-02 
387	 8.68278050831549E-02 
388	 8.51084241080103E-02 
389	 8.28253069432247E-02 
390	 8.28511958819863E-02 
391	 8.46346727943545E-02 
392	 8.71336273756053E-02 
393	 8.87360265712753E-02 
394	 8.85077249289103E-02 
395	 8.52441701817457E-02 
396	 8.22585368667239E-02 
397	 8.07965769976362E-02 
398	 7.88666696015792E-02 
399	 7.80731358778597E-02 
400	 0.079963270597405 
401	 8.04829240019553E-02 
402	 8.03090190881092E-02 
403	 8.36916374163091E-02 
404	 8.47632673920547E-02 
405	 8.20565234330789E-02 
406	 8.28399250744773E-02 
407	 8.50313764526564E-02 
408	 8.53056736961433E-02 
409	 8.42172013341883E-02 
410	 8.26946435843934E-02 
411	 8.29721546608954E-02 
412	 8.36972838435446E-02 
413	 8.40761594253166E-02 
414	 8.34620317938285E-02 
415	 0.082869006637779 
416	 8.36558963052697E-02 
417	 8.40927765018763E-02 
418	 8.41088686746861E-02 
419	 8.49436442852382E-02 
420	 8.52280980431455E-02 
421	 8.44434475433317E-02 
422	 8.44593271047665E-02 
423	 8.49857454399404E-02 
424	 8.53020749618637E-02 
425	 8.49753541962063E-02 
426	 8.43326445624932E-02 
427	 8.50273508982507E-02 
428	 8.58281179767518E-02 
429	 8.58525241095677E-02 
430	 0.085081293942992 
431	 8.42473536814258E-02 
432	 8.45456127842164E-02 
433	 8.42900737985346E-02 
434	 8.34836678142326E-02 
435	 8.36839043690829E-02 
436	 8.44340716196804E-02 
437	 8.53205439776141E-02 
438	 8.57517658760357E-02 
439	 8.57462339943548E-02 
440	 8.54910873321728E-02 
441	 8.55984037180955E-02 
442	 8.60690842357792E-02 
443	 8.58519519967694E-02 
444	 8.60272790736925E-02 
445	 8.73699883975764E-02 
446	 8.81827823746633E-02 
447	 8.82322529170917E-02 
448	 8.75380726338446E-02 
449	 8.76980030392988E-02 
450	 8.89352128196887E-02 
451	 8.91077499240279E-02 
452	 8.93064029322353E-02 
453	 9.06527987416026E-02 
454	 9.13973412642784E-02 
455	 9.14086137425214E-02 
456	 9.13278061844125E-02 
457	 9.11885127600289E-02 
458	 9.11114963284747E-02 
459	 0.091373316391932 
460	 9.17855355072824E-02 
461	 9.20951762447006E-02 
462	 9.21660595192816E-02 
463	 9.22017737542072E-02 
464	 9.29632734481268E-02 
465	 9.35954107250524E-02 
466	 9.37352984496152E-02 
467	 9.43352640952153E-02 
468	 9.48373524392777E-02 
469	 9.43059655981681E-02 
470	 9.37548055478074E-02 
471	 9.36081976450579E-02 
472	 9.42115262821671E-02 
473	 9.50749764813468E-02 
474	 9.57456759738992E-02 
475	 9.53861058830255E-02 
476	 9.47181802150089E-02 
477	 0.095191853119249 
478	 9.55053590017172E-02 
479	 9.55101213516058E-02 
480	 9.62171299605379E-02 
481	 9.69469872046305E-02 
482	 9.71625995531145E-02 
483	 9.74787178349864E-02 
484	 9.78935190334571E-02 
485	 9.82153466423589E-02 
486	 9.80406486459063E-02 
487	 9.74273079259034E-02 
488	 9.75529648847563E-02 
489	 9.76075554193974E-02 
490	 9.68024124356147E-02 
491	 9.73586895611911E-02 
492	 9.88721791086881E-02 
493	 9.91610464078218E-02 
494	 0.099116964769029 
495	 9.91449031948791E-02 
496	 9.93506897233123E-02 
497	 9.98474268461399E-02 
498	 0.100745862122385 
499	 0.101693115524202 
500	 0.102376522554687 
501	 0.102166191061038 
502	 0.101970973792442 
503	 0.102296265499683 
504	 0.102295198057915 
505	 0.102308046500299 
506	 0.103041270710929 
507	 0.1040207646995 
508	 0.105045087055937 
509	 0.105917568098026 
510	 0.106800758052425 
511	 0.107774133213156 
512	 0.108032393290246 
513	 0.108166284295127 
514	 0.109930455334161 
515	 0.111281937783675 
516	 0.111587041523828 
517	 0.1118796626063 
518	 0.112303308568874 
519	 0.112906790993296 
520	 0.113086331137408 
521	 0.11314501656551 
522	 0.114190964595726 
523	 0.115397262411664 
524	 0.116384200587883 
525	 0.117336916990857 
526	 0.118208870696337 
527	 0.118914279222251 
528	 0.119497929054659 
529	 0.120036592980952 
530	 0.120706125164247 
531	 0.121526339545468 
532	 0.122454600227066 
533	 0.122996591175831 
534	 0.123268047152933 
535	 0.123610019537896 
536	 0.124166791175462 
537	 0.125029194164347 
538	 0.126295565906243 
539	 0.12743497985 
540	 0.127930953823279 
541	 0.127859566409758 
542	 0.127775683254311 
543	 0.129078628808712 
544	 0.130222687972947 
545	 0.130617123326321 
546	 0.131066423566381 
547	 0.131560955572762 
548	 0.131991343068652 
549	 0.132430881911615 
550	 0.132905287389983 
551	 0.133462497109386 
552	 0.133858774788828 
553	 0.134052140309078 
554	 0.135120991262977 
555	 0.136429293255056 
556	 0.136505461164717 
557	 0.136915809330021 
558	 0.137851143047076 
559	 0.137776324155323 
560	 0.137606016989622 
561	 0.138199243075239 
562	 0.13870545215714 
563	 0.139112250671346 
564	 0.13987367615656 
565	 0.140278381341623 
566	 0.140172464142134 
567	 0.140567640453637 
568	 0.14115190653251 
569	 0.141412691023569 
570	 0.141490990123922 
571	 0.141451154357592 
572	 0.141404778807069 
573	 0.141387602617591 
574	 0.141464011500615 
575	 0.141890669919352 
576	 0.142486755613713 
577	 0.142866628465202 
578	 0.143237341014545 
579	 0.143611965717576 
580	 0.14378342930761 
581	 0.14406470791408 
582	 0.14468853776644 
583	 0.144873974483169 
584	 0.144782588266408 
585	 0.145180235124318 
586	 0.145726954966707 
587	 0.146203514900849 
588	 0.146086227889991 
589	 0.145872085551943 
590	 0.146265096870641 
591	 0.146322930453324 
592	 0.146139877131241 
593	 0.14678471193918 
594	 0.147302000466428 
595	 0.147192064861539 
596	 0.147207284731866 
597	 0.147604499652684 
598	 0.148719098701822 
599	 0.148982973319191 
600	 0.148323649345074 
601	 0.148875412786004 
602	 0.149312928636513 
603	 0.148533987905141 
604	 0.148642674437936 
605	 0.149495550705171 
606	 0.149800935060086 
607	 0.149864691113551 
608	 0.149801904998391 
609	 0.149850193619206 
610	 0.149878468675101 
611	 0.149695160760226 
612	 0.149989193720556 
613	 0.150478746999716 
614	 0.149605803187103 
615	 0.148975049321193 
616	 0.149461208335362 
617	 0.149542669506771 
618	 0.149255983043778 
619	 0.149016908501764 
620	 0.148929392607905 
621	 0.149048100023754 
622	 0.149383818922718 
623	 0.149603811872943 
624	 0.149446933739135 
625	 0.149586348931824 
626	 0.149978721398818 
627	 0.150150683467435 
628	 0.150442079238135 
629	 0.150922259431324 
630	 0.151256934598753 
631	 0.151405079938897 
632	 0.151362053744742 
633	 0.1512478913564 
634	 0.151241539926889 
635	 0.151761481650864 
636	 0.152297100948756 
637	 0.152556814344539 
638	 0.152962630210773 
639	 0.15324957305243 
640	 0.152826793881442 
641	 0.152711679903507 
642	 0.153141312345916 
643	 0.153588906399394 
644	 0.153950595132553 
645	 0.15414930808766 
646	 0.154216775158076 
647	 0.154201493799116 
648	 0.154196345768777 
649	 0.154249959467883 
650	 0.15428552712374 
651	 0.153669613364877 
652	 0.153212917442684 
653	 0.153904326981659 
654	 0.153691326788787 
655	 0.15247977938898 
656	 0.152030824666176 
657	 0.151264881134091 
658	 0.149777139264932 
659	 0.149072664614034 
660	 0.148728738160202 
661	 0.147863904836017 
662	 0.146548619287547 
663	 0.145031229415791 
664	 0.144360355924169 
665	 0.143634151930868 
666	 0.142135423055203 
667	 0.140992219098669 
668	 0.140263355283666 
669	 0.139602161012947 
670	 0.138842833361867 
671	 0.13804243969049 
672	 0.137978173217415 
673	 0.138174461569881 
674	 0.138024253455911 
675	 0.137952413313679 
676	 0.138125623617427 
677	 0.138798217171115 
678	 0.139368823579379 
679	 0.139607234587864 
680	 0.140412959744993 
681	 0.141552461844268 
682	 0.142456916730986 
683	 0.144146103793025 
684	 0.14671187089964 
685	 0.149542054797454 
686	 0.152257513067324 
687	 0.154544944280142 
688	 0.157952760617191 
689	 0.161843256680533 
690	 0.164837828311606 
691	 0.168491313285565 
692	 0.173162402715798 
693	 0.177837126106659 
694	 0.182151242768644 
695	 0.185638634106727 
696	 0.189268832374682 
697	 0.193205460473877 
698	 0.1975330736496 
699	 0.201355511356827 
700	 0.204307295474645 
701	 0.207782493078989 
702	 0.211328776169062 
703	 0.214143216484069 
704	 0.2171371853891 
705	 0.220300579735596 
706	 0.222683812864804 
707	 0.224909518083655 
708	 0.227369554371576 
709	 0.229834135116644 
710	 0.232186007488782 
711	 0.234225179727523 
712	 0.236506093369553 
713	 0.238957478420974 
714	 0.240502555173242 
715	 0.241824722787632 
716	 0.24368340661684 
717	 0.245800636880761 
718	 0.248070116026697 
719	 0.250067017355368 
720	 0.251247087185085 
721	 0.251689770078604 
722	 0.252607707416795 
723	 0.254077312081869 
724	 0.256055048673152 
725	 0.257471019806364 
726	 0.258334394604143 
727	 0.25996754913642 
728	 0.261378646426931 
729	 0.262274704606573 
730	 0.264300225427166 
731	 0.266362873095788 
732	 0.266786213210931 
733	 0.267045704259688 
734	 0.267638513007568 
735	 0.268897782621568 
736	 0.270119572128019 
737	 0.270858170229998 
738	 0.272013315856296 
739	 0.273376339228002 
740	 0.274350479327849 
741	 0.275048903127752 
742	 0.275558116745693 
743	 0.276078789619294 
744	 0.276837376938614 
745	 0.277967372158942 
746	 0.278706079817688 
747	 0.279191132824526 
748	 0.280077742093027 
749	 0.281093931196632 
750	 0.282150100310377 
751	 0.2832999823183 
752	 0.284295515783475 
753	 0.284892022714977 
754	 0.285393746315888 
755	 0.285960147869504 
756	 0.287082233140929 
757	 0.286726983361058 
758	 0.284403623180648 
759	 0.284836034954788 
760	 0.289051518605144 
761	 0.293965850261402 
762	 0.296106972422803 
763	 0.295846829075274 
764	 0.296564469349833 
765	 0.297650060739326 
766	 0.298657550824502 
767	 0.298693575431233 
768	 0.298420978858978 
769	 0.298601482408083 
770	 0.298808486019549 
771	 0.299088981271557 
772	 0.299881590407531 
773	 0.300856072390284 
774	 0.301774558010492 
775	 0.302651624357208 
776	 0.303489235454571 
777	 0.304311947068111 
778	 0.305230249381407 
779	 0.306214158297234 
780	 0.307021763671236 
781	 0.307701894150015 
782	 0.308303368263513 
783	 0.308814771746057 
784	 0.30937016258011 
785	 0.310233375200099 
786	 0.311112076369963 
787	 0.31187290750024 
788	 0.312337346983561 
789	 0.313029871431573 
790	 0.314366781776151 
791	 0.315071279743357 
792	 0.315539536549725 
793	 0.317495425598379 
794	 0.318419937966502 
795	 0.317865914787478 
796	 0.318522917203896 
797	 0.319521616046035 
798	 0.319889545930083 
799	 0.320913674422559 
800	 0.322349628574067 
801	 0.322924104372907 
802	 0.323238046407349 
803	 0.323584351799865 
804	 0.324326072082954 
805	 0.324924722096659 
806	 0.324832033425266 
807	 0.32531673142464 
808	 0.326457706625512 
809	 0.327746450954377 
810	 0.328745722987145 
811	 0.329215263655658 
812	 0.329288687081276 
813	 0.329478120255333 
814	 0.330428760629949 
815	 0.331772241608514 
816	 0.333525524437953 
817	 0.336241399350825 
818	 0.337852035045045 
819	 0.337692907714493 
820	 0.337666918691277 
821	 0.338190964631582 
822	 0.339549930830943 
823	 0.34134386892539 
824	 0.342752264358011 
825	 0.342031799572051 
826	 0.341553963829066 
827	 0.342327039252562 
828	 0.343671011109642 
829	 0.344834824209464 
830	 0.345016128543898 
831	 0.345887552723505 
832	 0.347346967603673 
833	 0.348030864335395 
834	 0.348600773224301 
835	 0.34919335621305 
836	 0.348866927380068 
837	 0.348729268993668 
838	 0.350044132729424 
839	 0.351416304504043 
840	 0.352392656809486 
841	 0.352557882119642 
842	 0.353243546408367 
843	 0.354637672682279 
844	 0.354191586878345 
845	 0.353175200987669 
846	 0.35324821406474 
847	 0.354301319387052 
848	 0.35571219078155 
849	 0.355757071422034 
850	 0.355488904857335 
851	 0.355643664639392 
852	 0.357677086031848 
853	 0.359876265707619 
854	 0.360362674368695 
855	 0.361326490805386 
856	 0.362424001736815 
857	 0.361673468704378 
858	 0.361386106558921 
859	 0.362048593514427 
860	 0.361592979066605 
861	 0.361475925901647 
862	 0.363011206557582 
863	 0.363363399520552 
864	 0.362907670382828 
865	 0.363666318735572 
866	 0.365391093824115 
867	 0.367573168177856 
868	 0.368288148265334 
869	 0.368555328751126 
870	 0.369261303662622 
871	 0.369756027931154 
872	 0.370022360557082 
873	 0.37006397666942 
874	 0.371549483134772 
875	 0.374329618255493 
876	 0.375682454734849 
877	 0.375974241683106 
878	 0.375887355130218 
879	 0.378474039189925 
880	 0.381674136877034 
881	 0.381488201787787 
882	 0.382130560115988 
883	 0.38407856083959 
884	 0.384897258099721 
885	 0.385421849514514 
886	 0.386028915351561 
887	 0.385987908814515 
888	 0.385826685734658 
889	 0.386305046633379 
890	 0.386628275501114 
891	 0.386614838837348 
892	 0.38621209935838 
893	 0.386192775419607 
894	 0.387030946569536 
895	 0.388494837820407 
896	 0.391283987663798 
897	 0.395990993403437 
898	 0.399772161625258 
899	 0.402132311133723 
900	 0.404050245853443 
901	 0.403732932838139 
902	 0.401642120902286 
903	 0.401851664502017 
904	 0.402312482934005 
905	 0.401541499317705 
906	 0.401952961177209 
907	 0.402804231627615 
908	 0.402153536182876 
909	 0.401741849791361 
910	 0.402459970663232 
911	 0.405479444136888 
912	 0.408496571422434 
913	 0.409960111015643 
914	 0.409505732926722 
915	 0.409356081849437 
916	 0.41211182521493 
917	 0.414198190114823 
918	 0.414892199018014 
919	 0.414512739915352 
920	 0.414154756980454 
921	 0.413815649886993 
922	 0.410856131503467 
923	 0.408682166605025 
924	 0.410078149042896 
925	 0.410575945571675 
926	 0.408909667132537 
927	 0.403886591851304 
928	 0.402740037499736 
929	 0.407304935330712 
930	 0.411038754277509 
931	 0.4138309918437 
932	 0.415753660214209 
933	 0.42087671691825 
934	 0.4282684560109 
935	 0.435351562902345 
936	 0.43323776410146 
937	 0.424002148027054 
938	 0.417686169126852 
939	 0.416470828446944 
940	 0.419259677375887 
941	 0.417251219698554 
942	 0.415190280550158 
943	 0.416101886161172 
944	 0.411810756313123 
945	 0.408698454106764 
946	 0.418364550702967 
947	 0.421834087596344 
948	 0.418001481129286 
949	 0.421761742918117 
950	 0.419596458347701 
951	 0.40959368985709 
952	 0.414082977844532 
953	 0.420970685329726 
954	 0.41908594304273 
955	 0.421997290312769 
956	 0.427180628600201 
957	 0.42641780010047 
958	 0.429730554164202 
959	 0.434141113827345 
960	 0.420182374615678 
961	 0.412754862122846 
962	 0.421120639349828 
963	 0.423783264223471 
964	 0.421900375756041 
965	 0.418507388460178 
966	 0.418657413197828 
967	 0.420200346007484 
968	 0.41663414669999 
969	 0.41801614863441 
970	 0.424129470751499 
971	 0.423918107874008 
972	 0.421489703634917 
973	 0.420396393283112 
974	 0.427435152192511 
975	 0.435433768160762 
976	 0.435815331598266 
977	 0.431981092349199 
978	 0.427241563869166 
979	 0.426685953005447 
980	 0.428023616738823 
981	 0.429663292217452 
982	 0.428269709849985 
983	 0.428254231008518 
984	 0.431310221141281 
985	 0.432239125025529 
986	 0.431709489518361 
987	 0.431079691445288 
988	 0.432130392378618 
989	 0.433884940120416 
990	 0.433684798358627 
991	 0.433516135652671 
992	 0.434316078331523 
993	 0.437711994238207 
994	 0.43886855341144 
995	 0.43562048677942 
996	 0.430737465529246 
997	 0.427769137769662 
998	 0.429775972859563 
999	 0.433752879967146 
1000	 0.437147171935738 
1001	 0.43704714297127 
1002	 0.437134391489759 
1003	 0.438396426502703 
1004	 0.440524541216648 
1005	 0.443482727983102 
1006	 0.445189829951102 
1007	 0.435571435506706 
1008	 0.430957294888809 
1009	 0.441693652846995 
1010	 0.439558026108538 
1011	 0.432818369934239 
1012	 0.437964850406462 
1013	 0.44071903297727 
1014	 0.440344746495562 
1015	 0.441981532880679 
1016	 0.445024841827427 
1017	 0.448770420593382 
1018	 0.450973600858446 
1019	 0.450210178501459 
1020	 0.447639620121894 
1021	 0.456957038676221 
1022	 0.45764672075922 
1023	 0.433068649021802 
1024	 0.439375221673785 
1025	 0.45691364389294 
1026	 0.43881058277868 
1027	 0.435509143485276 
1028	 0.449369548303553 
1029	 0.447295442771367 
1030	 0.449686570852962 
1031	 0.460110199321329 
1032	 0.463106232739438 
1033	 0.465705783856315 
1034	 0.470525709625433 
1035	 0.463570688160405 
1036	 0.452575172782369 
1037	 0.448285447836841 
1038	 0.454271968889209 
1039	 0.464805223195221 
1040	 0.468913960205304 
1041	 0.464704263985364 
1042	 0.453522185452611 
1043	 0.438639209073986 
1044	 0.439872592868656 
1045	 0.460867516514414 
1046	 0.483286457104723 
1047	 0.48959974885941 
1048	 0.472254477956001 
1049	 0.457459896143192 
1050	 0.450978383504826 
1051	 0.454854534540357 
1052	 0.450663299436267 
1053	 0.447684057545359 
1054	 0.463641466766816 
1055	 0.476136022338932 
1056	 0.481748681180313 
1057	 0.482348321374925 
1058	 0.471854100792669 
1059	 0.455980312152189 
1060	 0.457170592201632 
1061	 0.461572446226253 
1062	 0.462363466717507 
1063	 0.462088884279874 
1064	 0.45632004445797 
1065	 0.444646622666968 
1066	 0.452007231915519 
1067	 0.454186885294414 
1068	 0.425157806654256 
1069	 0.41271379513625 
1070	 0.431433286366702 
1071	 0.488630139116641 
1072	 0.494118458514899 
1073	 0.461542958359883 
1074	 0.49156919462007 
1075	 0.472892300940711 
