Wavelength	SHSI00186.asd
325	 7.97265991595524E-02 
326	 8.25038755439964E-02 
327	 6.97973300317597E-02 
328	 0.066891759086608 
329	 6.62524071495871E-02 
330	 6.54869729447361E-02 
331	 6.61680156576272E-02 
332	 6.81632969880592E-02 
333	 7.11723615904554E-02 
334	 7.14584736866843E-02 
335	 6.89284604257576E-02 
336	 6.43917037365667E-02 
337	 6.27401162525293E-02 
338	 0.064820204782686 
339	 6.62086573691514E-02 
340	 6.85059261220641E-02 
341	 7.25694567721385E-02 
342	 7.08816824540167E-02 
343	 6.69014259947584E-02 
344	 6.92055486542525E-02 
345	 7.05636282955342E-02 
346	 6.96027077049076E-02 
347	 6.85069329626846E-02 
348	 6.88185469027004E-02 
349	 7.07727184922833E-02 
350	 0.067469337572037 
351	 6.36433850462662E-02 
352	 6.81207205317738E-02 
353	 6.94044278170282E-02 
354	 6.68473825422018E-02 
355	 6.93290232442912E-02 
356	 7.14336594314796E-02 
357	 7.01621933533898E-02 
358	 7.02017334498572E-02 
359	 7.07411704226526E-02 
360	 6.97472488103684E-02 
361	 6.88052597790716E-02 
362	 6.83213909433809E-02 
363	 6.82244425241732E-02 
364	 6.80368530802001E-02 
365	 6.76533433702154E-02 
366	 0.0678731631332 
367	 6.94950738602976E-02 
368	 7.34995162835098E-02 
369	 7.23892526126811E-02 
370	 6.76103711887024E-02 
371	 7.01830215896741E-02 
372	 7.39155560234157E-02 
373	 7.51625842703054E-02 
374	 7.43596106919968E-02 
375	 7.25077450593583E-02 
376	 7.09787274861603E-02 
377	 0.069493324309653 
378	 6.86910087657607E-02 
379	 7.08489324533067E-02 
380	 7.16799234831194E-02 
381	 6.94484394798885E-02 
382	 6.89425263397822E-02 
383	 0.069519801892874 
384	 6.96707836213043E-02 
385	 6.86370039560581E-02 
386	 0.06735550159325 
387	 6.93074877067954E-02 
388	 6.99216825289801E-02 
389	 6.77837142762461E-02 
390	 6.71682881141507E-02 
391	 6.87145092246234E-02 
392	 7.25309890880643E-02 
393	 7.17106977189007E-02 
394	 6.71895096276282E-02 
395	 6.62985892206216E-02 
396	 6.59245008493608E-02 
397	 6.48561819638654E-02 
398	 6.34854035767158E-02 
399	 6.30211842172634E-02 
400	 6.44981648505571E-02 
401	 6.53531320583527E-02 
402	 6.53813105039643E-02 
403	 6.53847170457192E-02 
404	 6.50886505881677E-02 
405	 6.48224040509512E-02 
406	 6.72278708980301E-02 
407	 6.97564863065943E-02 
408	 0.069141448452738 
409	 6.76291960044315E-02 
410	 6.64166673417744E-02 
411	 0.067270802079955 
412	 6.81359138546613E-02 
413	 0.068067806382386 
414	 6.79849575698676E-02 
415	 6.77664865733069E-02 
416	 6.71514144818834E-02 
417	 6.68521115582499E-02 
418	 6.71330708628564E-02 
419	 6.84231563945301E-02 
420	 6.87857301236306E-02 
421	 6.75006087530289E-02 
422	 0.067578611615759 
423	 6.82488627687505E-02 
424	 6.78809601406082E-02 
425	 6.78221399144793E-02 
426	 6.82198568373354E-02 
427	 6.83126632129013E-02 
428	 6.87419950832681E-02 
429	 6.96603523015563E-02 
430	 6.88820212775801E-02 
431	 6.74732344406803E-02 
432	 6.76073536553476E-02 
433	 6.78476977680046E-02 
434	 6.78748890315861E-02 
435	 6.78762855700519E-02 
436	 6.82025892777629E-02 
437	 6.89704915938311E-02 
438	 6.90145783641598E-02 
439	 6.86348279736758E-02 
440	 6.87108875531332E-02 
441	 6.86039537966131E-02 
442	 6.82717411296195E-02 
443	 6.81729714070003E-02 
444	 6.85828900207262E-02 
445	 6.95852992995574E-02 
446	 6.96753989972549E-02 
447	 6.91836605810276E-02 
448	 6.94282738472943E-02 
449	 6.96838204814273E-02 
450	 6.97183066256486E-02 
451	 6.94450894950657E-02 
452	 6.95115472523538E-02 
453	 7.05097638328487E-02 
454	 7.13693459475142E-02 
455	 7.16819973269851E-02 
456	 7.10234495067133E-02 
457	 7.03093643741462E-02 
458	 6.99933551805306E-02 
459	 6.99501763064199E-02 
460	 7.02358178084757E-02 
461	 7.08865011625497E-02 
462	 0.070541882655439 
463	 6.95836701198748E-02 
464	 7.01973483365558E-02 
465	 0.070872491017861 
466	 7.08969827533172E-02 
467	 7.11882802875352E-02 
468	 7.14095869698511E-02 
469	 7.09514219275494E-02 
470	 0.070565687806583 
471	 7.05764239866735E-02 
472	 7.13367004196893E-02 
473	 7.19934044703045E-02 
474	 7.19748164360671E-02 
475	 7.14524182700066E-02 
476	 7.09050955860327E-02 
477	 0.071117731108078 
478	 7.10305119525309E-02 
479	 7.06159316537259E-02 
480	 7.10998328630084E-02 
481	 7.16887431844604E-02 
482	 7.17387837224424E-02 
483	 7.18388887298125E-02 
484	 0.071973776947651 
485	 7.18823149247337E-02 
486	 7.17258728375182E-02 
487	 7.15711442197488E-02 
488	 7.14051181357806E-02 
489	 7.12669941866438E-02 
490	 7.12076541722703E-02 
491	 7.16151344749208E-02 
492	 7.21786176907235E-02 
493	 7.18852011913836E-02 
494	 7.15596363503859E-02 
495	 7.16037426412849E-02 
496	 0.07204554472044 
497	 7.26104485604959E-02 
498	 7.29452049764347E-02 
499	 7.31375634020831E-02 
500	 7.31405822822153E-02 
501	 0.07270806988936 
502	 0.072532804200838 
503	 7.29170267514852E-02 
504	 0.072649406758654 
505	 7.21297568212389E-02 
506	 7.22297363683974E-02 
507	 0.072916497019105 
508	 7.38782561156135E-02 
509	 7.38916543232506E-02 
510	 7.38506187981139E-02 
511	 7.44519361460598E-02 
512	 7.48898358988001E-02 
513	 7.51295550735281E-02 
514	 7.53952265698555E-02 
515	 7.56375862471671E-02 
516	 7.58819612919881E-02 
517	 7.63768579196386E-02 
518	 7.65895150827774E-02 
519	 7.59944671686101E-02 
520	 7.57076375534282E-02 
521	 7.58212100574843E-02 
522	 7.58510891179433E-02 
523	 7.61055236906275E-02 
524	 7.66992076247121E-02 
525	 0.077521191954687 
526	 7.80923854449952E-02 
527	 7.77740260330799E-02 
528	 0.077552374029279 
529	 0.077761205833638 
530	 7.85549939240594E-02 
531	 7.92246009138351E-02 
532	 7.92953896292304E-02 
533	 7.91307640916914E-02 
534	 0.07892314787401 
535	 7.88898054707355E-02 
536	 7.91081281512122E-02 
537	 7.95578640865717E-02 
538	 7.99625061590906E-02 
539	 8.04394510546773E-02 
540	 8.10705056619262E-02 
541	 8.10428056234108E-02 
542	 0.080622939703613 
543	 8.09285356584547E-02 
544	 8.12953880994207E-02 
545	 8.14335373707246E-02 
546	 8.12720243082672E-02 
547	 8.12715696100894E-02 
548	 8.20280766408101E-02 
549	 8.22848076164991E-02 
550	 8.20054214873431E-02 
551	 8.22339636462031E-02 
552	 8.24063125720753E-02 
553	 8.22614983626087E-02 
554	 0.082774678076535 
555	 8.34600011217057E-02 
556	 8.31615210063904E-02 
557	 8.30445961465198E-02 
558	 8.33295411666799E-02 
559	 8.31961710093637E-02 
560	 8.30273983249521E-02 
561	 8.31840402902459E-02 
562	 8.32344027399445E-02 
563	 8.32772601287264E-02 
564	 8.38550561648069E-02 
565	 8.40512820075279E-02 
566	 8.36431840410363E-02 
567	 8.38369993315312E-02 
568	 8.41672714170803E-02 
569	 8.39104046451732E-02 
570	 8.38392636005474E-02 
571	 8.40531871667104E-02 
572	 8.42455081244858E-02 
573	 8.42525049491006E-02 
574	 0.084020578115579 
575	 8.40398318137617E-02 
576	 8.42157084140083E-02 
577	 8.42240655356368E-02 
578	 8.45163853251357E-02 
579	 8.49899965028566E-02 
580	 8.45557921120892E-02 
581	 8.42866055631343E-02 
582	 8.50544108285636E-02 
583	 8.49883178789404E-02 
584	 8.43373864093431E-02 
585	 8.46394594563057E-02 
586	 8.49343984171368E-02 
587	 8.48700416816127E-02 
588	 8.46765376733178E-02 
589	 8.45333339007911E-02 
590	 8.46493237703925E-02 
591	 8.47057240864729E-02 
592	 8.47235650968181E-02 
593	 8.51190509825078E-02 
594	 8.51595774096399E-02 
595	 8.45308508516571E-02 
596	 8.43607064785734E-02 
597	 8.47264826639113E-02 
598	 8.55464693146103E-02 
599	 8.55482124426294E-02 
600	 8.47799566876033E-02 
601	 8.55312072628597E-02 
602	 8.60494811544332E-02 
603	 8.48904036883002E-02 
604	 8.47874829183413E-02 
605	 8.56504645175733E-02 
606	 8.60324724331507E-02 
607	 8.60697776564676E-02 
608	 8.58692410350434E-02 
609	 8.61718604907298E-02 
610	 8.64636533703402E-02 
611	 8.60289387391279E-02 
612	 8.59395718797264E-02 
613	 8.62151050867646E-02 
614	 8.59727855816484E-02 
615	 8.58255632487384E-02 
616	 8.60740841836941E-02 
617	 8.59728059364051E-02 
618	 8.56149104108264E-02 
619	 8.52911596458691E-02 
620	 8.54890913983026E-02 
621	 0.086141244811289 
622	 8.62668768246662E-02 
623	 8.60976308189632E-02 
624	 0.085891093692758 
625	 8.58429193020136E-02 
626	 8.58715268142877E-02 
627	 8.55224563089182E-02 
628	 8.57385225062697E-02 
629	 8.67094773567429E-02 
630	 8.71867287866239E-02 
631	 8.71491459933652E-02 
632	 8.67356074424246E-02 
633	 8.65178638582826E-02 
634	 8.65148089769026E-02 
635	 8.61261988190342E-02 
636	 8.61055854637458E-02 
637	 8.67952112282579E-02 
638	 8.71657744960701E-02 
639	 8.71249790467908E-02 
640	 8.67508737024424E-02 
641	 8.66475761064077E-02 
642	 8.68392572812139E-02 
643	 8.63988504819032E-02 
644	 8.60579191540557E-02 
645	 8.64157120035626E-02 
646	 8.62073885771578E-02 
647	 8.56853353049017E-02 
648	 8.61610463863338E-02 
649	 8.66213806676526E-02 
650	 8.66658814686203E-02 
651	 8.64528694295081E-02 
652	 8.63854428518196E-02 
653	 8.69148353682006E-02 
654	 8.72934813165559E-02 
655	 8.72424176960763E-02 
656	 8.65699564439214E-02 
657	 8.55363928981971E-02 
658	 8.45509935680366E-02 
659	 8.46517619217457E-02 
660	 8.53280486439589E-02 
661	 8.56490461179343E-02 
662	 8.56320271004199E-02 
663	 8.53244682931469E-02 
664	 8.51071941101328E-02 
665	 8.48338188459196E-02 
666	 8.43981454578197E-02 
667	 8.41370771426173E-02 
668	 8.40442752767205E-02 
669	 8.39378481389517E-02 
670	 8.38917079014238E-02 
671	 8.39567822743777E-02 
672	 8.43617572830926E-02 
673	 8.45377684453729E-02 
674	 8.38617362712946E-02 
675	 8.38901322024075E-02 
676	 8.45538614391073E-02 
677	 8.45139530895861E-02 
678	 8.42812263210065E-02 
679	 8.42278299560426E-02 
680	 8.50490021376732E-02 
681	 8.60000003372771E-02 
682	 0.08576344691458 
683	 8.61594882863519E-02 
684	 8.74419341710194E-02 
685	 8.85417781921717E-02 
686	 8.93772038242621E-02 
687	 8.98625055577697E-02 
688	 9.04560502388282E-02 
689	 9.11578557646205E-02 
690	 0.091776231047897 
691	 9.29946571052622E-02 
692	 9.48783135891646E-02 
693	 9.66415315691938E-02 
694	 9.79334259565919E-02 
695	 9.84347114696787E-02 
696	 9.91753509768527E-02 
697	 0.100337497046279 
698	 0.101853142965407 
699	 0.103146761421593 
700	 0.103998092952007 
701	 0.105258316884096 
702	 0.106736305917015 
703	 0.108057726459087 
704	 0.108761163447983 
705	 0.109024702173246 
706	 0.109722377750316 
707	 0.110899152657006 
708	 0.112456308385367 
709	 0.113318697567039 
710	 0.113786342330072 
711	 0.114679878631673 
712	 0.115886324911627 
713	 0.117190350262349 
714	 0.117806475550229 
715	 0.118092737530097 
716	 0.118463214329816 
717	 0.119419525672466 
718	 0.12078768782538 
719	 0.12147418236167 
720	 0.12144168303508 
721	 0.121038773871615 
722	 0.121525486817793 
723	 0.12252274091908 
724	 0.123543271190622 
725	 0.124539909670339 
726	 0.125261728824731 
727	 0.125379081785863 
728	 0.125283502200076 
729	 0.12529973780143 
730	 0.126013509262458 
731	 0.126855000143867 
732	 0.126960232061827 
733	 0.127449090876316 
734	 0.128323811162077 
735	 0.128709162528813 
736	 0.128886954961316 
737	 0.129103417225707 
738	 0.129900610457934 
739	 0.130904188889513 
740	 0.131303938860467 
741	 0.131378344229809 
742	 0.131347262941594 
743	 0.131773683374418 
744	 0.13226037524407 
745	 0.132450220716799 
746	 0.132349512738753 
747	 0.132324504657138 
748	 0.133260653008043 
749	 0.13414065912672 
750	 0.134566254158917 
751	 0.134705841182316 
752	 0.134735305736302 
753	 0.134836911771611 
754	 0.134930886536601 
755	 0.135145236710297 
756	 0.136073688800892 
757	 0.135865703292657 
758	 0.134009243197227 
759	 0.134345025497908 
760	 0.137203644785136 
761	 0.139304672288001 
762	 0.140511586833701 
763	 0.141063866705677 
764	 0.141709566552792 
765	 0.142377048471223 
766	 0.142875196226627 
767	 0.142389930426781 
768	 0.14174416770527 
769	 0.141899060788163 
770	 0.142037332473388 
771	 0.14207965591175 
772	 0.142414441289032 
773	 0.142903445765313 
774	 0.143415732482546 
775	 0.143678899359555 
776	 0.143847338323823 
777	 0.144285181100609 
778	 0.144634814270286 
779	 0.144870692737479 
780	 0.145315579194993 
781	 0.145905382834321 
782	 0.146571462316348 
783	 0.147307531537242 
784	 0.147867944891457 
785	 0.147755780736012 
786	 0.147562351965772 
787	 0.147592716616928 
788	 0.14818400614451 
789	 0.148698722123431 
790	 0.14856992974758 
791	 0.148633133541227 
792	 0.149112602021581 
793	 0.150249818177167 
794	 0.150761017652477 
795	 0.150441459097076 
796	 0.150983606372775 
797	 0.151638934725181 
798	 0.151618102994132 
799	 0.152101846669464 
800	 0.153064072622676 
801	 0.153851443193563 
802	 0.154392950287455 
803	 0.154664720846595 
804	 0.155028039117797 
805	 0.155033732089173 
806	 0.154257748100113 
807	 0.154559464632919 
808	 0.155609890879639 
809	 0.155231270420333 
810	 0.155274906219142 
811	 0.156251228138233 
812	 0.156020271733264 
813	 0.155635938774146 
814	 0.156690786798503 
815	 0.157978357056779 
816	 0.159113952959394 
817	 0.160017908870038 
818	 0.160589985422035 
819	 0.160781383109917 
820	 0.1603878470059 
821	 0.160414781196032 
822	 0.162001764643734 
823	 0.163607947857603 
824	 0.164468983819577 
825	 0.163747886181394 
826	 0.163275635331927 
827	 0.163780083600558 
828	 0.164401936408597 
829	 0.164645327864608 
830	 0.164067783760272 
831	 0.164713139988123 
832	 0.166353238952533 
833	 0.167105928294006 
834	 0.167210907898017 
835	 0.166828537759621 
836	 0.166355107043619 
837	 0.166457967560622 
838	 0.16776737190653 
839	 0.168920289152959 
840	 0.169581977952925 
841	 0.169799547130927 
842	 0.16992972806173 
843	 0.170117172164993 
844	 0.170125309021205 
845	 0.1699240029855 
846	 0.169540949864911 
847	 0.170055177263031 
848	 0.170917215665023 
849	 0.169843337847183 
850	 0.168827835017882 
851	 0.16901030868339 
852	 0.171633093702246 
853	 0.173990383104434 
854	 0.173292223047626 
855	 0.174136080236199 
856	 0.175861261718485 
857	 0.174371128470977 
858	 0.173674194262357 
859	 0.174709726802016 
860	 0.174820110692266 
861	 0.17456772821223 
862	 0.174609752870368 
863	 0.174531623500015 
864	 0.174753206511468 
865	 0.176388324419509 
866	 0.178034943097007 
867	 0.179020126150776 
868	 0.179076262601607 
869	 0.178858697692406 
870	 0.178936260958834 
871	 0.17923119554408 
872	 0.179312931753269 
873	 0.178304785414425 
874	 0.178022519810871 
875	 0.178934305256778 
876	 0.180381572654013 
877	 0.18163725495466 
878	 0.182170257696342 
879	 0.181966950383307 
880	 0.182108679325537 
881	 0.184303698936939 
882	 0.185496590784956 
883	 0.185366071565787 
884	 0.186180796178477 
885	 0.185992636584496 
886	 0.18425275260218 
887	 0.184954438030729 
888	 0.186692341084903 
889	 0.187044660926276 
890	 0.186616340651927 
891	 0.185665800796955 
892	 0.184521544363737 
893	 0.184119165618914 
894	 0.18492995161441 
895	 0.186062864504498 
896	 0.188084222666792 
897	 0.191480875788549 
898	 0.192647596681699 
899	 0.191990673566984 
900	 0.192853499395735 
901	 0.192771066634365 
902	 0.191450070328752 
903	 0.190811584296033 
904	 0.190826097930269 
905	 0.191446936212519 
906	 0.192731809469124 
907	 0.194572714529371 
908	 0.196912126990712 
909	 0.195841474371246 
910	 0.192061431432261 
911	 0.192535218835671 
912	 0.195425286929855 
913	 0.199029895690986 
914	 0.200031601850679 
915	 0.200068717705449 
916	 0.201604095733722 
917	 0.202931597753446 
918	 0.202816236550298 
919	 0.198533829857051 
920	 0.196604501029931 
921	 0.198158775135235 
922	 0.19559752062453 
923	 0.193658845039998 
924	 0.196106528991345 
925	 0.19297696805944 
926	 0.186643373161946 
927	 0.18584817025825 
928	 0.188207008120795 
929	 0.192290104621446 
930	 0.193571133558757 
931	 0.195210296881383 
932	 0.199854077670591 
933	 0.206713354699768 
934	 0.209300004914741 
935	 0.199889140015875 
936	 0.201041005393075 
937	 0.20902193831516 
938	 0.199109678489252 
939	 0.19342418267581 
940	 0.196434485505272 
941	 0.196695160356969 
942	 0.195616317951037 
943	 0.194958442161532 
944	 0.199232629409515 
945	 0.203813631124973 
946	 0.200537888794237 
947	 0.199834119472168 
948	 0.202033004296039 
949	 0.199360483825007 
950	 0.194465270443654 
951	 0.189850052209164 
952	 0.192407813974405 
953	 0.196450814536001 
954	 0.196741979772044 
955	 0.197302930140752 
956	 0.19887293082555 
957	 0.201385022483832 
958	 0.209449120402396 
959	 0.21848441605525 
960	 0.209997829211436 
961	 0.203137536745649 
962	 0.206292439417731 
963	 0.20857325598363 
964	 0.208648085830287 
965	 0.206164088891432 
966	 0.203067780883598 
967	 0.20121571866643 
968	 0.203152085996908 
969	 0.204857407615897 
970	 0.205805588332202 
971	 0.208798215437553 
972	 0.210939927770067 
973	 0.211053825989454 
974	 0.212533162038144 
975	 0.213550720377519 
976	 0.212200334082003 
977	 0.217962479514286 
978	 0.223858095190738 
979	 0.211459652898298 
980	 0.203334926882862 
981	 0.204866375564107 
982	 0.207362736058112 
983	 0.208483622488071 
984	 0.207018734615144 
985	 0.204909717081182 
986	 0.204239887888963 
987	 0.206795291930257 
988	 0.208604092334109 
989	 0.20946493966282 
990	 0.210483186506892 
991	 0.213716641893615 
992	 0.218033585426096 
993	 0.217901175837504 
994	 0.212899425676209 
995	 0.204701362222145 
996	 0.203668736302652 
997	 0.203048123874417 
998	 0.19642464402473 
999	 0.197676468948954 
1000	 0.204785768929889 
1001	 0.210474696017025 
1002	 0.210309418114389 
1003	 0.206118335770733 
1004	 0.208699478881038 
1005	 0.211757961036461 
1006	 0.211861589804237 
1007	 0.205275632703731 
1008	 0.20163813099329 
1009	 0.207157018269756 
1010	 0.206075044357259 
1011	 0.202205134398281 
1012	 0.203798333051049 
1013	 0.20520941621386 
1014	 0.209029118161958 
1015	 0.225060103911731 
1016	 0.22867212669332 
1017	 0.217715014310227 
1018	 0.215993160273913 
1019	 0.220999632128238 
1020	 0.228624016199363 
1021	 0.223396799287148 
1022	 0.213927996116493 
1023	 0.210868266561473 
1024	 0.217541877872523 
1025	 0.224748026560665 
1026	 0.216886183702466 
1027	 0.212574316036826 
1028	 0.214134407938909 
1029	 0.213385538161784 
1030	 0.212498970214869 
1031	 0.211395959839308 
1032	 0.207534687163538 
1033	 0.204501792667818 
1034	 0.205032494722308 
1035	 0.210463249770751 
1036	 0.214553090159904 
1037	 0.211132465636784 
1038	 0.213513218065603 
1039	 0.21683880822679 
1040	 0.20933685017077 
1041	 0.208771483399164 
1042	 0.212988059962424 
1043	 0.201631463968853 
1044	 0.200801273769544 
1045	 0.214395600251463 
1046	 0.219176712292863 
1047	 0.204890395250036 
1048	 0.1734889693992 
1049	 0.172609673740308 
1050	 0.185409862357892 
1051	 0.189415024906043 
1052	 0.187001106509682 
1053	 0.181958588001762 
1054	 0.18116340114746 
1055	 0.196365154675996 
1056	 0.21401847249228 
1057	 0.191281889846118 
1058	 0.195377929719311 
1059	 0.23168162754066 
1060	 0.249230393638541 
1061	 0.240392655150632 
1062	 0.207322893400823 
1063	 0.190582623140676 
1064	 0.188344337563015 
1065	 0.193754975209538 
1066	 0.184503514819379 
1067	 0.165019936206956 
1068	 0.145401929455423 
1069	 0.194605766377953 
1070	 0.248156122409819 
1071	 0.193193462157198 
1072	 0.141664258405414 
1073	 0.133976434471579 
1074	 0.164023107763179 
1075	 0.151110742783633 
