Wavelength	SHSI00364.asd
325	 6.19244242998511E-02 
326	 6.28493171186248E-02 
327	 7.05549237929338E-02 
328	 7.52800313227549E-02 
329	 8.25135521529877E-02 
330	 9.08159261059085E-02 
331	 8.35588803435573E-02 
332	 7.21057304954618E-02 
333	 6.82771653551221E-02 
334	 7.11828458797367E-02 
335	 7.57881734609049E-02 
336	 7.06314775236582E-02 
337	 6.89650184019185E-02 
338	 7.29422038273772E-02 
339	 0.072751849412855 
340	 7.17842730650907E-02 
341	 7.29778367527973E-02 
342	 7.38613511659436E-02 
343	 7.31251652467275E-02 
344	 6.85122835051159E-02 
345	 6.82534056831546E-02 
346	 7.25990575995014E-02 
347	 7.36054849143642E-02 
348	 0.073583220975057 
349	 7.40211966315527E-02 
350	 7.24694743441893E-02 
351	 7.06030693877305E-02 
352	 0.07140452809051 
353	 7.03454866124364E-02 
354	 6.82193320237291E-02 
355	 7.21714831806445E-02 
356	 7.52318245651445E-02 
357	 7.36296123525416E-02 
358	 7.27741965706381E-02 
359	 7.21617085036694E-02 
360	 6.99840356938613E-02 
361	 6.95414801042355E-02 
362	 0.070563912780363 
363	 6.93810727110073E-02 
364	 6.83960249832976E-02 
365	 6.87337265241064E-02 
366	 6.88298921844198E-02 
367	 6.88149325771587E-02 
368	 6.90794328053731E-02 
369	 6.89220796493253E-02 
370	 6.85791925694164E-02 
371	 6.93232283965925E-02 
372	 7.02201271636179E-02 
373	 7.06660626154865E-02 
374	 7.04976060835625E-02 
375	 0.069839819427403 
376	 6.89106394162262E-02 
377	 6.77253022873995E-02 
378	 6.64497625251342E-02 
379	 6.50876997540849E-02 
380	 6.58105912936088E-02 
381	 6.89081523201002E-02 
382	 0.069026686616692 
383	 6.77546303214376E-02 
384	 6.78652513861326E-02 
385	 6.89448209127269E-02 
386	 6.97923626612865E-02 
387	 6.67952920085124E-02 
388	 6.53401394907933E-02 
389	 6.72666310451786E-02 
390	 0.067883337593702 
391	 6.76244385180192E-02 
392	 0.06749234968259 
393	 6.63208383944159E-02 
394	 6.52578105215495E-02 
395	 6.85736058047518E-02 
396	 6.90747880496616E-02 
397	 6.48893610840383E-02 
398	 6.33624140593082E-02 
399	 6.33921633088344E-02 
400	 6.31238621054713E-02 
401	 6.37113220067732E-02 
402	 6.47126420550567E-02 
403	 6.48377461707001E-02 
404	 6.45330542798341E-02 
405	 6.40585890395214E-02 
406	 6.37016779373485E-02 
407	 6.39076861070971E-02 
408	 0.065129764969166 
409	 6.54662432275249E-02 
410	 6.48207115386311E-02 
411	 6.41432126397851E-02 
412	 6.39901129573568E-02 
413	 6.45176145622783E-02 
414	 6.47525970170787E-02 
415	 6.48292691352351E-02 
416	 6.50584189853704E-02 
417	 6.50570924706936E-02 
418	 6.48629422054268E-02 
419	 6.48227596767712E-02 
420	 6.49116341649513E-02 
421	 6.51178546077423E-02 
422	 6.54950845666431E-02 
423	 6.56777545751253E-02 
424	 6.51466447835467E-02 
425	 6.49066370676608E-02 
426	 6.52148346977127E-02 
427	 6.59614727582927E-02 
428	 6.66253737194744E-02 
429	 0.066810219417632 
430	 6.64705877791323E-02 
431	 6.58880412302345E-02 
432	 6.55336001881727E-02 
433	 6.50142261631739E-02 
434	 6.45008181443379E-02 
435	 6.48126330629767E-02 
436	 6.55146574100084E-02 
437	 6.61923115402493E-02 
438	 0.065965847620946 
439	 6.53418929928358E-02 
440	 6.54690167307206E-02 
441	 6.57151415742934E-02 
442	 6.59164447707184E-02 
443	 6.62221653571422E-02 
444	 6.62457435681036E-02 
445	 6.57681640478518E-02 
446	 6.59606445697401E-02 
447	 6.65663524919567E-02 
448	 6.65491452207926E-02 
449	 6.67044646924196E-02 
450	 0.067156140979998 
451	 6.72353122892923E-02 
452	 0.067150146651884 
453	 6.71437974686479E-02 
454	 6.71875208120053E-02 
455	 6.72122959183072E-02 
456	 6.69789606498592E-02 
457	 6.69874887256904E-02 
458	 6.73682528957782E-02 
459	 0.067559093583444 
460	 6.76333865513477E-02 
461	 6.77361239014954E-02 
462	 6.78322896955474E-02 
463	 6.78758397251144E-02 
464	 6.77003910232436E-02 
465	 6.77144488298428E-02 
466	 6.80462517692026E-02 
467	 6.79676443053657E-02 
468	 6.77021204164552E-02 
469	 6.76923784072905E-02 
470	 6.77887896097166E-02 
471	 6.78915423126512E-02 
472	 6.77879671013689E-02 
473	 6.76137643993982E-02 
474	 6.74951887403701E-02 
475	 0.067672830769361 
476	 6.79751300389513E-02 
477	 0.068075425192744 
478	 6.78410439181421E-02 
479	 6.74538928019083E-02 
480	 6.78497313084666E-02 
481	 6.81940559369441E-02 
482	 0.067860489902732 
483	 6.79546114648841E-02 
484	 6.84094500085868E-02 
485	 6.86394819754099E-02 
486	 6.87103917624704E-02 
487	 6.86111682711726E-02 
488	 6.82835478639768E-02 
489	 6.81083686530463E-02 
490	 6.84204174492868E-02 
491	 6.83303400997963E-02 
492	 6.79670216559295E-02 
493	 6.81544584881737E-02 
494	 6.84029868058226E-02 
495	 0.068514228707918 
496	 6.86399923219313E-02 
497	 6.87682119362379E-02 
498	 0.068870803885381 
499	 6.88785630849442E-02 
500	 6.88130294042026E-02 
501	 6.87433868970665E-02 
502	 6.89370828106916E-02 
503	 6.95063663471479E-02 
504	 7.00302462074284E-02 
505	 7.03280924373798E-02 
506	 7.02125698475193E-02 
507	 7.01924878427294E-02 
508	 7.03768992400667E-02 
509	 0.070464683341432 
510	 7.06870514415624E-02 
511	 7.12147057020464E-02 
512	 7.17879074996364E-02 
513	 7.23075172326884E-02 
514	 7.26622832153731E-02 
515	 7.30618317922421E-02 
516	 7.34956702147932E-02 
517	 7.34571568244825E-02 
518	 7.34242327593852E-02 
519	 7.39202196256578E-02 
520	 7.42753897251734E-02 
521	 0.07448095865197 
522	 7.49296027455004E-02 
523	 7.52580216852544E-02 
524	 7.53922877711196E-02 
525	 7.60128079674068E-02 
526	 7.66920601136188E-02 
527	 7.67305315987756E-02 
528	 7.68192611699962E-02 
529	 7.71085787734077E-02 
530	 0.077444597330865 
531	 0.077809947268441 
532	 7.81970433522104E-02 
533	 7.86726039683825E-02 
534	 7.91002962221975E-02 
535	 7.91883998389818E-02 
536	 7.93906913383421E-02 
537	 0.079822977071395 
538	 8.02992687897589E-02 
539	 8.06050219785836E-02 
540	 0.080563761093484 
541	 8.06500509723935E-02 
542	 8.08728695949203E-02 
543	 8.09655821107598E-02 
544	 8.10911804024817E-02 
545	 8.13177369949915E-02 
546	 8.16507441822874E-02 
547	 8.19084448323296E-02 
548	 8.18604606549175E-02 
549	 8.20603253160304E-02 
550	 8.24796163970496E-02 
551	 8.25041287879839E-02 
552	 8.25776239507845E-02 
553	 8.29517593505524E-02 
554	 8.32388268195257E-02 
555	 8.34394776907269E-02 
556	 8.36778213078471E-02 
557	 8.37063549467853E-02 
558	 8.35249672315995E-02 
559	 8.34625167203667E-02 
560	 8.36197343020663E-02 
561	 8.40337275143803E-02 
562	 8.41548605421907E-02 
563	 8.39937678578788E-02 
564	 8.38431629748242E-02 
565	 8.38476736241622E-02 
566	 8.40116904248491E-02 
567	 8.38247453051499E-02 
568	 8.36352144344811E-02 
569	 0.083937212034245 
570	 8.40909983909076E-02 
571	 8.39633641990674E-02 
572	 0.083675895110637 
573	 8.34967775048735E-02 
574	 8.35526946236268E-02 
575	 8.33654078986514E-02 
576	 8.30848684652456E-02 
577	 8.31038236685988E-02 
578	 0.083131700339026 
579	 8.31175002162423E-02 
580	 8.32912358858704E-02 
581	 8.32999571486885E-02 
582	 8.28762802301205E-02 
583	 8.27975136692317E-02 
584	 8.29560606635161E-02 
585	 8.26645804758263E-02 
586	 8.25012622752287E-02 
587	 8.26427230266418E-02 
588	 8.26371084460869E-02 
589	 8.26922341063819E-02 
590	 8.31153100352162E-02 
591	 8.31481586812996E-02 
592	 8.27375030124684E-02 
593	 0.082285948053971 
594	 0.082082890392346 
595	 8.22904787563696E-02 
596	 0.082608659785385 
597	 8.28527951768064E-02 
598	 8.28057189717063E-02 
599	 0.082608353859198 
600	 8.23705884159134E-02 
601	 8.23260773959401E-02 
602	 8.23592778715764E-02 
603	 8.23488826422993E-02 
604	 8.22130857338244E-02 
605	 8.20052427772579E-02 
606	 8.18802637635591E-02 
607	 8.18797969054863E-02 
608	 8.19660359580831E-02 
609	 8.17732704184514E-02 
610	 8.15153176690465E-02 
611	 8.14979500592569E-02 
612	 8.10448595741848E-02 
613	 8.04168569395225E-02 
614	 8.10594087358866E-02 
615	 8.15267360408392E-02 
616	 8.10248039190154E-02 
617	 8.08750496488521E-02 
618	 8.09602058351178E-02 
619	 0.080762878897547 
620	 0.08052769523384 
621	 8.03393961011899E-02 
622	 8.02381076849122E-02 
623	 0.080267508380513 
624	 8.04388543253663E-02 
625	 8.03576397368948E-02 
626	 8.01714252772536E-02 
627	 8.05097885485459E-02 
628	 8.06333041730304E-02 
629	 0.080326744426025 
630	 8.02179953959218E-02 
631	 8.02423648637438E-02 
632	 8.02471898060439E-02 
633	 8.00269165356363E-02 
634	 7.96218332282272E-02 
635	 7.92582956087626E-02 
636	 7.92821602179349E-02 
637	 7.98401953297931E-02 
638	 0.080347481763549 
639	 8.05402451248569E-02 
640	 8.01165942202677E-02 
641	 7.96779228098118E-02 
642	 7.94363431083529E-02 
643	 7.93027220776739E-02 
644	 7.91197270159571E-02 
645	 7.87734743815384E-02 
646	 7.86713236617635E-02 
647	 7.87586833562014E-02 
648	 7.87749347635267E-02 
649	 0.078299852533602 
650	 7.74076473976528E-02 
651	 7.75760555977063E-02 
652	 7.80356594059105E-02 
653	 7.77354656964219E-02 
654	 7.75373435126243E-02 
655	 7.75255555719164E-02 
656	 0.077351686958097 
657	 7.69521825659402E-02 
658	 7.63718061251693E-02 
659	 7.60173287240797E-02 
660	 7.58135095210661E-02 
661	 7.55722671776644E-02 
662	 7.53681583803829E-02 
663	 7.51166908121707E-02 
664	 7.44081515592979E-02 
665	 7.37693753987321E-02 
666	 7.36093305257043E-02 
667	 7.32047578601949E-02 
668	 7.25818180292734E-02 
669	 7.20651311197942E-02 
670	 7.18034084554116E-02 
671	 7.18182920577252E-02 
672	 7.17869959759323E-02 
673	 7.16771474434686E-02 
674	 7.14972827419499E-02 
675	 7.18025013797612E-02 
676	 7.24123407511249E-02 
677	 7.24057462806898E-02 
678	 7.23018904424356E-02 
679	 7.23806044514306E-02 
680	 7.25349401349148E-02 
681	 7.26986068895846E-02 
682	 7.27408879992856E-02 
683	 0.073602725177398 
684	 7.50831602951046E-02 
685	 7.52775596055053E-02 
686	 7.55792723893395E-02 
687	 7.71320671645018E-02 
688	 7.78268787391016E-02 
689	 7.80241919285249E-02 
690	 0.07955324160031 
691	 8.09008659408395E-02 
692	 8.17545848341123E-02 
693	 8.28505149490082E-02 
694	 8.41754404237135E-02 
695	 8.56168648998999E-02 
696	 8.72086037778485E-02 
697	 8.88084103648155E-02 
698	 9.01654121405187E-02 
699	 9.12011423816332E-02 
700	 9.19837287718783E-02 
701	 9.34104871119846E-02 
702	 9.49202074435719E-02 
703	 9.56208339833376E-02 
704	 9.65991737729885E-02 
705	 9.79318305417674E-02 
706	 9.89010748005004E-02 
707	 9.97319938676882E-02 
708	 0.100555796314329 
709	 0.101264078963304 
710	 0.101847001932948 
711	 0.102272279054829 
712	 0.102967699193451 
713	 0.103968202919974 
714	 0.10483831551084 
715	 0.105356294638051 
716	 0.105368489924687 
717	 0.105385900845234 
718	 0.105760884751789 
719	 0.107125699639489 
720	 0.107859259380036 
721	 0.107601471550754 
722	 0.107827260212972 
723	 0.108425992638553 
724	 0.109177342788309 
725	 0.109340737337743 
726	 0.109106623862749 
727	 0.109687364319922 
728	 0.110487487097271 
729	 0.111109505909238 
730	 0.111037744245079 
731	 0.110779701121099 
732	 0.111109520648882 
733	 0.111111058237887 
734	 0.110843569509088 
735	 0.111173741351792 
736	 0.111766906502109 
737	 0.112333099343196 
738	 0.112558248323778 
739	 0.112527739522346 
740	 0.112476056348421 
741	 0.112623509512422 
742	 0.113005503166707 
743	 0.113422330283948 
744	 0.11364534533557 
745	 0.113518818547873 
746	 0.11346320094929 
747	 0.11355633614755 
748	 0.113821055216477 
749	 0.113833458623059 
750	 0.113577606360647 
751	 0.113895642073884 
752	 0.114381381582372 
753	 0.114546024009873 
754	 0.11461429323334 
755	 0.114610123573146 
756	 0.114480459921149 
757	 0.114329444001002 
758	 0.114226484680894 
759	 0.114312919573271 
760	 0.114724759494524 
761	 0.115340633720167 
762	 0.115774619704559 
763	 0.115891932398375 
764	 0.115711265366319 
765	 0.11573298622841 
766	 0.116048516371399 
767	 0.116214046610094 
768	 0.116205520962545 
769	 0.11599732117661 
770	 0.116099610022038 
771	 0.116456365569689 
772	 0.116342521071729 
773	 0.116280118802925 
774	 0.116568402415833 
775	 0.116584474112335 
776	 0.116428335664023 
777	 0.116417332046355 
778	 0.116697446360646 
779	 0.11713552001323 
780	 0.116967716220955 
781	 0.116717736619916 
782	 0.116821599280547 
783	 0.117057586809665 
784	 0.117410349036152 
785	 0.11798356113093 
786	 0.118004638472139 
787	 0.11744780461525 
788	 0.11752610966932 
789	 0.117944821907073 
790	 0.118336179504742 
791	 0.118351518603284 
792	 0.118147148889615 
793	 0.118303477258795 
794	 0.118389636717749 
795	 0.118328775551425 
796	 0.118533200281149 
797	 0.118657178095035 
798	 0.118379678528875 
799	 0.118587058119723 
800	 0.119084222243723 
801	 0.118824712932449 
802	 0.118781856246559 
803	 0.11920464478406 
804	 0.119286321002515 
805	 0.119107075288137 
806	 0.118826431811857 
807	 0.118430154816319 
808	 0.118250819493692 
809	 0.119238852815803 
810	 0.120094191328109 
811	 0.120183496664606 
812	 0.119676332954497 
813	 0.119045774147741 
814	 0.118912130349732 
815	 0.119097511314424 
816	 0.119466427632993 
817	 0.119683281658203 
818	 0.119960236695291 
819	 0.120336407711974 
820	 0.120570755416198 
821	 0.120723719493485 
822	 0.120884993633405 
823	 0.121137146911745 
824	 0.121386282408245 
825	 0.121364975059195 
826	 0.121200055652424 
827	 0.120987052787328 
828	 0.120954971765775 
829	 0.120986004648654 
830	 0.120913614305779 
831	 0.121044423998685 
832	 0.121288279182859 
833	 0.121145719486752 
834	 0.121373803964319 
835	 0.122052767373679 
836	 0.121643824171661 
837	 0.121095256203061 
838	 0.121597934414785 
839	 0.12254033735689 
840	 0.12334199513216 
841	 0.122784194120865 
842	 0.122158404151118 
843	 0.122007179463353 
844	 0.121750104526624 
845	 0.121840953063808 
846	 0.12273803634898 
847	 0.122234446199245 
848	 0.120871285199478 
849	 0.121599328252884 
850	 0.122269290274675 
851	 0.122137191193413 
852	 0.122251641127251 
853	 0.122519420073107 
854	 0.12273168199798 
855	 0.122304523558545 
856	 0.121700918616847 
857	 0.122413963093001 
858	 0.122752140891489 
859	 0.122322430721414 
860	 0.122279976027872 
861	 0.122408014163685 
862	 0.122483047630874 
863	 0.123237834197924 
864	 0.124021639806805 
865	 0.122957817872054 
866	 0.122457071636697 
867	 0.12309239316738 
868	 0.123267431750212 
869	 0.123132143054488 
870	 0.122925407056466 
871	 0.123305949574159 
872	 0.123851572787114 
873	 0.123502597377801 
874	 0.123716593472973 
875	 0.124671110163717 
876	 0.125361235063762 
877	 0.12507264232884 
878	 0.123585898412103 
879	 0.123257815689866 
880	 0.124006939608932 
881	 0.125115418158262 
882	 0.125464979384217 
883	 0.12499090785589 
884	 0.124733833662638 
885	 0.125108075764929 
886	 0.126037129612809 
887	 0.125213682168053 
888	 0.123848151266897 
889	 0.123857985438651 
890	 0.124700024813735 
891	 0.125647048409217 
892	 0.124847010279185 
893	 0.123641445790052 
894	 0.122956854391278 
895	 0.124247482003947 
896	 0.125571576077062 
897	 0.124599947968545 
898	 0.124413252454087 
899	 0.125171819414757 
900	 0.12552455809117 
901	 0.126251227195985 
902	 0.127311164587199 
903	 0.127884055385447 
904	 0.126910676925353 
905	 0.124212609236988 
906	 0.125843609938948 
907	 0.129499667022389 
908	 0.129568663437521 
909	 0.127980872118385 
910	 0.126075764162486 
911	 0.126899727015911 
912	 0.128100594622982 
913	 0.128123238848265 
914	 0.12666211135973 
915	 0.12549851047943 
916	 0.12669806300274 
917	 0.127214633145212 
918	 0.126842212138489 
919	 0.126980642483634 
920	 0.126436067481638 
921	 0.125245796046786 
922	 0.125714358423963 
923	 0.125943828597697 
924	 0.124359776699085 
925	 0.124293304400073 
926	 0.125034219738227 
927	 0.123755238478923 
928	 0.123003251888201 
929	 0.123757595663498 
930	 0.125607751177269 
931	 0.129073966385274 
932	 0.133636073087187 
933	 0.13245451967382 
934	 0.128343441135835 
935	 0.127480810192309 
936	 0.126804190614474 
937	 0.125129430816691 
938	 0.120030896548301 
939	 0.121293522426811 
940	 0.129195350655284 
941	 0.131999150059039 
942	 0.132856953110728 
943	 0.133738587577059 
944	 0.130127876421543 
945	 0.124382216374844 
946	 0.121079087201209 
947	 0.12184910466344 
948	 0.125472484482982 
949	 0.126705820154342 
950	 0.126204927439148 
951	 0.124758821181442 
952	 0.125321928997903 
953	 0.125805817111928 
954	 0.124519963757277 
955	 0.127114369758482 
956	 0.130500783869272 
957	 0.12761770802472 
958	 0.129120755574764 
959	 0.134677129195287 
960	 0.134755377956315 
961	 0.130681825774747 
962	 0.124837727888494 
963	 0.125189464656312 
964	 0.12753623137273 
965	 0.127287845433943 
966	 0.128183178095589 
967	 0.129361091600883 
968	 0.128055343194283 
969	 0.126991172784781 
970	 0.126537995977606 
971	 0.124466195128849 
972	 0.12434066423839 
973	 0.127556433490747 
974	 0.129283299374118 
975	 0.129331710917095 
976	 0.128028954818788 
977	 0.123729762302336 
978	 0.120754591106983 
979	 0.129114497733531 
980	 0.131285749408923 
981	 0.125651736705722 
982	 0.127443901046379 
983	 0.1281649339108 
984	 0.124944371171044 
985	 0.130937244115132 
986	 0.135669469505424 
987	 0.1281437333041 
988	 0.124770754045555 
989	 0.127324382745571 
990	 0.133187339885641 
991	 0.132741067076487 
992	 0.126193191387071 
993	 0.125709439302568 
994	 0.126303952269328 
995	 0.126216731900732 
996	 0.130531513106225 
997	 0.134464302655143 
998	 0.133178199950808 
999	 0.128562470099172 
1000	 0.124296670978784 
1001	 0.125937752972196 
1002	 0.1253597756936 
1003	 0.122363486687654 
1004	 0.123109415155693 
1005	 0.128249053623708 
1006	 0.135782173997278 
1007	 0.134962034218006 
1008	 0.130278290947026 
1009	 0.126667543292675 
1010	 0.129563899706958 
1011	 0.132777548820855 
1012	 0.12719755085582 
1013	 0.127156569954266 
1014	 0.13176759530012 
1015	 0.130886215533669 
1016	 0.13013055947652 
1017	 0.130148485028935 
1018	 0.125740490714706 
1019	 0.128726544503915 
1020	 0.141158488454954 
1021	 0.133359699728402 
1022	 0.121498121223331 
1023	 0.124119312569961 
1024	 0.13043378592665 
1025	 0.138119548776271 
1026	 0.145946933113608 
1027	 0.149267563548603 
1028	 0.14693856316086 
1029	 0.139811855846571 
1030	 0.128687736742699 
1031	 0.11778112900197 
1032	 0.118421145360257 
1033	 0.128125521293027 
1034	 0.141876257113624 
1035	 0.140117470829391 
1036	 0.136000441619856 
1037	 0.144268929719188 
1038	 0.148005239277876 
1039	 0.143117885572399 
1040	 0.128099286080067 
1041	 0.125712931125074 
1042	 0.134980087639355 
1043	 0.13522764783338 
1044	 0.139267478297703 
1045	 0.146797417883282 
1046	 0.139420288701435 
1047	 0.131835546238748 
1048	 0.133728205229963 
1049	 0.144212642686837 
1050	 0.138918034507991 
1051	 0.10028551611752 
1052	 0.106636747751763 
1053	 0.1383296368173 
1054	 0.146491214750504 
1055	 0.137577691859296 
1056	 0.124917936918337 
1057	 0.138599676803741 
1058	 0.155062933648903 
1059	 0.16372334007305 
1060	 0.154431957323945 
1061	 0.150533450950633 
1062	 0.160189751448793 
1063	 0.166070969148199 
1064	 0.161343349765576 
1065	 0.143733625194087 
1066	 0.13281466781237 
1067	 0.126097495234416 
1068	 0.118173390646849 
1069	 0.122784125091684 
1070	 0.139486612010004 
1071	 0.15919577486791 
1072	 0.155224934318769 
1073	 0.134059698477827 
1074	 0.127406399644705 
1075	 0.151733685873576 
