Wavelength	SHSI00122.asd
325	 3.81944651308376E-02 
326	 4.75904123041011E-02 
327	 5.22835600662915E-02 
328	 4.92625245325615E-02 
329	 4.36467927384631E-02 
330	 3.81729311648897E-02 
331	 3.43581598366677E-02 
332	 3.61304225244358E-02 
333	 4.60255236274221E-02 
334	 4.73186965524743E-02 
335	 4.18338235728129E-02 
336	 4.03127613362687E-02 
337	 4.05417470848343E-02 
338	 4.13367837331856E-02 
339	 3.92425812745211E-02 
340	 3.79572372073792E-02 
341	 0.040447899653299 
342	 4.45860108998191E-02 
343	 0.046458148009629 
344	 3.90321573614552E-02 
345	 3.70701729538749E-02 
346	 4.19369813063695E-02 
347	 4.28820142850899E-02 
348	 3.99982212941634E-02 
349	 3.45318127967205E-02 
350	 3.47623858462734E-02 
351	 3.78718003746948E-02 
352	 3.76011564160699E-02 
353	 3.91965755977824E-02 
354	 4.22131928866611E-02 
355	 4.11453742853292E-02 
356	 3.83700407254581E-02 
357	 3.58841796832236E-02 
358	 3.60722245736277E-02 
359	 3.78822161520917E-02 
360	 3.92937769589079E-02 
361	 3.91611978781427E-02 
362	 3.76378024028011E-02 
363	 3.60442093434277E-02 
364	 3.65165997167063E-02 
365	 3.93720687785921E-02 
366	 3.90338540612732E-02 
367	 3.68480864076617E-02 
368	 3.53198461787545E-02 
369	 3.68822914980948E-02 
370	 0.039922487517159 
371	 3.69518962052798E-02 
372	 3.47988457173409E-02 
373	 3.67272322056579E-02 
374	 3.80893094235302E-02 
375	 3.78818044305202E-02 
376	 3.55351671253746E-02 
377	 3.33545980499062E-02 
378	 3.22753209700428E-02 
379	 3.28749853494294E-02 
380	 3.37939708988985E-02 
381	 3.42184940652342E-02 
382	 3.43556892759504E-02 
383	 3.42941517921803E-02 
384	 3.41412368572695E-02 
385	 3.43589388480301E-02 
386	 3.50091639832851E-02 
387	 3.63344602209483E-02 
388	 0.034968127073253 
389	 3.09085457025024E-02 
390	 3.40278494546177E-02 
391	 3.83453427879637E-02 
392	 3.63733672961186E-02 
393	 0.03507999046392 
394	 0.035153215743633 
395	 3.39799115041468E-02 
396	 3.35472181707667E-02 
397	 3.42940939978068E-02 
398	 3.36255789896633E-02 
399	 3.31773638018635E-02 
400	 0.034706796744058 
401	 3.43055850686281E-02 
402	 3.25152571031133E-02 
403	 3.22750254827121E-02 
404	 0.03247930141772 
405	 3.27541840426137E-02 
406	 3.36662208145384E-02 
407	 3.43171846873838E-02 
408	 3.36091000975428E-02 
409	 3.37387085837958E-02 
410	 3.44606860599028E-02 
411	 3.34408301534626E-02 
412	 3.30468567148809E-02 
413	 3.40206117697909E-02 
414	 3.33273566530961E-02 
415	 3.23855058712948E-02 
416	 3.33533285787903E-02 
417	 3.38723483751723E-02 
418	 3.35948232427972E-02 
419	 0.033188807060063 
420	 3.30342676377712E-02 
421	 3.32895672283283E-02 
422	 3.33214277261334E-02 
423	 0.033310541751229 
424	 3.36422053412078E-02 
425	 0.033518578371078 
426	 3.29922788094671E-02 
427	 3.30099627129682E-02 
428	 3.30397290363241E-02 
429	 3.28263027750993E-02 
430	 3.32802442973162E-02 
431	 0.03386688681661 
432	 3.35249312113515E-02 
433	 3.30747774978175E-02 
434	 0.032847218492015 
435	 3.31247970950823E-02 
436	 3.33713242520361E-02 
437	 3.32254365009088E-02 
438	 3.27961009375471E-02 
439	 3.24989384528174E-02 
440	 3.30798977970528E-02 
441	 0.033442909375857 
442	 3.33564186420901E-02 
443	 3.34393407068314E-02 
444	 3.34705793735896E-02 
445	 3.32944949257492E-02 
446	 3.34056673650927E-02 
447	 3.37001964013921E-02 
448	 3.37430952649279E-02 
449	 3.39953293841948E-02 
450	 3.43822102542718E-02 
451	 3.38356187881483E-02 
452	 3.30063230412083E-02 
453	 3.26286137433645E-02 
454	 3.31139524696947E-02 
455	 3.40289941518638E-02 
456	 0.033994263386215 
457	 3.36942231541052E-02 
458	 3.34800527077217E-02 
459	 3.36872646783323E-02 
460	 3.40800867111629E-02 
461	 3.43371851078481E-02 
462	 3.45560591039008E-02 
463	 3.47114800646867E-02 
464	 3.47366843584795E-02 
465	 3.45335548831202E-02 
466	 3.41391542696046E-02 
467	 3.41552217605204E-02 
468	 3.43441213132273E-02 
469	 3.42595666236411E-02 
470	 3.38054795204273E-02 
471	 0.033379813725986 
472	 3.45563465999127E-02 
473	 3.52949304700684E-02 
474	 3.44250360406948E-02 
475	 3.38700813937059E-02 
476	 3.37702707055018E-02 
477	 3.38282353886989E-02 
478	 3.46373797177167E-02 
479	 3.57267938598381E-02 
480	 3.45640767102933E-02 
481	 3.34506980698749E-02 
482	 3.42058102860994E-02 
483	 3.47981049172714E-02 
484	 3.48837938597705E-02 
485	 3.44228607531389E-02 
486	 3.43700496231123E-02 
487	 3.49835625711926E-02 
488	 3.54769363336679E-02 
489	 3.54819175304191E-02 
490	 3.47697376503505E-02 
491	 3.48336740520196E-02 
492	 3.55323388019433E-02 
493	 3.57559433582264E-02 
494	 0.035336298394361 
495	 3.43876287678617E-02 
496	 3.42119629684579E-02 
497	 3.46175497439313E-02 
498	 3.51778570259909E-02 
499	 3.53594424708896E-02 
500	 3.51602350206449E-02 
501	 3.51136517677712E-02 
502	 3.53807542029314E-02 
503	 3.59460042103361E-02 
504	 3.58501170883794E-02 
505	 3.54340796029665E-02 
506	 3.54408139384446E-02 
507	 3.59722006109413E-02 
508	 3.67719155663648E-02 
509	 3.67697293895427E-02 
510	 0.036260607707883 
511	 3.56054117617389E-02 
512	 3.58121473164014E-02 
513	 3.65645179287775E-02 
514	 3.67452655603457E-02 
515	 3.66673992602919E-02 
516	 3.65742357468259E-02 
517	 0.037410260335959 
518	 3.79417302918442E-02 
519	 3.68729031996714E-02 
520	 3.67994421024566E-02 
521	 3.76540132455219E-02 
522	 3.77550451266263E-02 
523	 3.76738595681706E-02 
524	 3.77029306995605E-02 
525	 3.81557261823691E-02 
526	 3.86056609860128E-02 
527	 3.84068761311754E-02 
528	 3.82147682805925E-02 
529	 3.83291736546647E-02 
530	 3.91779447745958E-02 
531	 3.97334551658195E-02 
532	 3.94352548584243E-02 
533	 3.98755179103676E-02 
534	 4.06831184396597E-02 
535	 4.06925161891146E-02 
536	 4.05027141976722E-02 
537	 4.03534579627827E-02 
538	 4.05418273631244E-02 
539	 4.04368601867968E-02 
540	 3.95184362728268E-02 
541	 3.98381242462978E-02 
542	 4.10180332017327E-02 
543	 0.041006389126143 
544	 4.06719641092926E-02 
545	 4.03801018367564E-02 
546	 4.00995535081356E-02 
547	 4.01563251161613E-02 
548	 0.040949794921388 
549	 0.041238814768191 
550	 4.09501245319753E-02 
551	 4.09842814711976E-02 
552	 4.12799348576595E-02 
553	 4.17257203319233E-02 
554	 4.16589175337163E-02 
555	 4.13189251234909E-02 
556	 4.13035169814413E-02 
557	 4.15738766783508E-02 
558	 4.20397142298863E-02 
559	 4.22842635552639E-02 
560	 4.24046630784601E-02 
561	 4.24910223654709E-02 
562	 4.21779525363088E-02 
563	 4.17410366670881E-02 
564	 4.20104485955953E-02 
565	 4.25000429456864E-02 
566	 4.28687580396944E-02 
567	 4.23253154635515E-02 
568	 4.18098757533245E-02 
569	 4.25939112339932E-02 
570	 4.28445570847612E-02 
571	 4.23849929203858E-02 
572	 0.042241869654864 
573	 4.23682443193923E-02 
574	 4.26907680587145E-02 
575	 4.27153857763214E-02 
576	 4.25882624253038E-02 
577	 0.042708288774596 
578	 4.29036958584594E-02 
579	 4.31057250055412E-02 
580	 4.33094742178795E-02 
581	 0.043204202074894 
582	 0.042599582587245 
583	 4.26396948856732E-02 
584	 4.31952941782574E-02 
585	 4.34321284270191E-02 
586	 4.32924402716437E-02 
587	 4.28923171464635E-02 
588	 4.34149554112849E-02 
589	 4.38964819656538E-02 
590	 4.29485211797079E-02 
591	 4.28114714167708E-02 
592	 4.35266560228008E-02 
593	 4.32649314010345E-02 
594	 4.33236392980339E-02 
595	 4.42764053300765E-02 
596	 4.43318601204107E-02 
597	 4.38726947564668E-02 
598	 4.40083919163547E-02 
599	 4.37769220919171E-02 
600	 4.32110566718186E-02 
601	 4.36670452499809E-02 
602	 4.42175183042267E-02 
603	 0.044052432888057 
604	 4.42762722967022E-02 
605	 4.47688722826998E-02 
606	 0.044760800465614 
607	 4.45947105122941E-02 
608	 4.44156852073638E-02 
609	 0.044326593459757 
610	 4.41928527445197E-02 
611	 4.38347737057277E-02 
612	 4.38074148038963E-02 
613	 4.42329746059809E-02 
614	 4.51376569698054E-02 
615	 4.54693825390405E-02 
616	 4.47374364742709E-02 
617	 4.47373454193721E-02 
618	 4.51700360982593E-02 
619	 0.045047554336885 
620	 0.045149929182428 
621	 4.55115463333121E-02 
622	 4.53029955557068E-02 
623	 4.50361208724453E-02 
624	 4.51769464151455E-02 
625	 4.51961221791111E-02 
626	 4.51938273332872E-02 
627	 4.56778550813943E-02 
628	 4.62671406423634E-02 
629	 4.66812133071298E-02 
630	 4.63415476521548E-02 
631	 4.58506546387155E-02 
632	 4.60081168165658E-02 
633	 4.67059905187861E-02 
634	 4.74520429471462E-02 
635	 4.67810415378471E-02 
636	 4.59650493593823E-02 
637	 4.58501647589817E-02 
638	 4.66213792888506E-02 
639	 4.74401381275838E-02 
640	 4.67522258190598E-02 
641	 4.64576769165761E-02 
642	 4.69721251652376E-02 
643	 4.74569902283086E-02 
644	 0.047180198847085 
645	 4.56926202760074E-02 
646	 4.57308062984247E-02 
647	 4.69464155815547E-02 
648	 4.70095718884708E-02 
649	 4.66681896484307E-02 
650	 4.62980253034689E-02 
651	 4.65691332697395E-02 
652	 4.70135830619455E-02 
653	 0.047011038944133 
654	 4.72585978936046E-02 
655	 4.76435429478749E-02 
656	 4.72123361357581E-02 
657	 4.65431822547422E-02 
658	 4.60930079579596E-02 
659	 4.60638832557266E-02 
660	 4.62643902003202E-02 
661	 4.63761957493764E-02 
662	 4.63630939330754E-02 
663	 4.63130445637249E-02 
664	 4.67699010705693E-02 
665	 4.69435320273361E-02 
666	 4.62503375095513E-02 
667	 4.60688632365772E-02 
668	 4.63694267515924E-02 
669	 4.65216966566846E-02 
670	 0.046281523966683 
671	 4.56884373966635E-02 
672	 4.55847770516904E-02 
673	 4.60475167944836E-02 
674	 4.70426681984123E-02 
675	 4.74768399187124E-02 
676	 4.72106604253607E-02 
677	 4.65439978003773E-02 
678	 4.67351533351371E-02 
679	 4.81919234956829E-02 
680	 4.83097729741248E-02 
681	 4.78171226377536E-02 
682	 4.83675679388129E-02 
683	 4.89867012007527E-02 
684	 4.95403842258659E-02 
685	 5.06448013319288E-02 
686	 5.14945223958431E-02 
687	 5.14764291843338E-02 
688	 5.29565839551627E-02 
689	 5.50102563364884E-02 
690	 5.49430408884711E-02 
691	 5.50393116868203E-02 
692	 0.055860441070653 
693	 5.61749969690278E-02 
694	 5.70437146061225E-02 
695	 5.94652872888541E-02 
696	 6.08132792809334E-02 
697	 6.12029566943648E-02 
698	 0.062520835577033 
699	 6.35708766337026E-02 
700	 6.40084538912016E-02 
701	 6.55203335674557E-02 
702	 6.72303353963075E-02 
703	 6.77278458634546E-02 
704	 6.83922221005722E-02 
705	 6.94529638153372E-02 
706	 7.04979276269393E-02 
707	 0.071170380163781 
708	 7.13723373208116E-02 
709	 7.23647574603453E-02 
710	 7.39168584478673E-02 
711	 7.53415023047643E-02 
712	 7.60510149493254E-02 
713	 0.076072632558714 
714	 7.64740793857315E-02 
715	 7.74155566319816E-02 
716	 7.90392664958758E-02 
717	 8.02211007843514E-02 
718	 8.09144817056391E-02 
719	 8.19329387274137E-02 
720	 8.25543531807594E-02 
721	 8.26444355624124E-02 
722	 8.26316499684291E-02 
723	 8.30342052984509E-02 
724	 8.44067679156866E-02 
725	 8.49560861817019E-02 
726	 8.49435727477858E-02 
727	 0.086921229673603 
728	 8.81505679005125E-02 
729	 8.75548567880775E-02 
730	 8.78693177000465E-02 
731	 8.87808850532025E-02 
732	 8.94239031191944E-02 
733	 8.96232705399212E-02 
734	 0.08962274195391 
735	 0.090346973515586 
736	 0.091256004916101 
737	 9.19274325290729E-02 
738	 9.23545808852034E-02 
739	 9.24505433387058E-02 
740	 9.19957663374914E-02 
741	 9.22651660372729E-02 
742	 9.33675291962223E-02 
743	 9.38908443931525E-02 
744	 9.42492332320536E-02 
745	 9.48553848673323E-02 
746	 9.59422214723682E-02 
747	 9.70183255289214E-02 
748	 9.67916451764977E-02 
749	 9.67521288138636E-02 
750	 9.73952330096562E-02 
751	 9.80941719239709E-02 
752	 9.88918919939789E-02 
753	 9.98393004963987E-02 
754	 0.100102238917694 
755	 9.99367765705957E-02 
756	 0.100549069493929 
757	 0.101220814291545 
758	 0.101747319616687 
759	 0.102713756340406 
760	 0.104933810342944 
761	 0.107859293612977 
762	 0.108363707135485 
763	 0.107109944521172 
764	 0.107108246581243 
765	 0.107738624671828 
766	 0.108432342800024 
767	 0.107684288391558 
768	 0.106994157305539 
769	 0.108187620255892 
770	 0.108652063431134 
771	 0.108380409801704 
772	 0.10981725660357 
773	 0.110888466389794 
774	 0.110397822595888 
775	 0.110753419869019 
776	 0.111821333592551 
777	 0.112760105043214 
778	 0.113314439795183 
779	 0.113538118038346 
780	 0.11419863056714 
781	 0.114817429162368 
782	 0.115078903483103 
783	 0.116017506223487 
784	 0.117248665165065 
785	 0.117598746713762 
786	 0.118011466382679 
787	 0.118723205668557 
788	 0.119343607081895 
789	 0.119562388709466 
790	 0.119242664190918 
791	 0.120435117109431 
792	 0.122215216832462 
793	 0.121227593176032 
794	 0.121391866652459 
795	 0.12362058612926 
796	 0.124977261793498 
797	 0.125383823354988 
798	 0.125033100486372 
799	 0.125199682408075 
800	 0.126001295692592 
801	 0.126921096918263 
802	 0.127917384346857 
803	 0.128795897366383 
804	 0.128951998232678 
805	 0.129124991126524 
806	 0.130109487752329 
807	 0.130712103217419 
808	 0.131283492884421 
809	 0.133725588145924 
810	 0.135308439671176 
811	 0.134921243175246 
812	 0.134072804859538 
813	 0.133889170972965 
814	 0.135664519778387 
815	 0.137226444995415 
816	 0.138204902406689 
817	 0.139639626469883 
818	 0.140632801433288 
819	 0.140973798123291 
820	 0.141568653484704 
821	 0.142532057736921 
822	 0.143859592080262 
823	 0.144428124249863 
824	 0.144111829444634 
825	 0.143352919817921 
826	 0.142853268879988 
827	 0.143135868458862 
828	 0.145064132149227 
829	 0.147174938809542 
830	 0.147631997576388 
831	 0.148538007992256 
832	 0.149872868515723 
833	 0.150274133615482 
834	 0.150609253799774 
835	 0.151185420447613 
836	 0.151487260088474 
837	 0.151799849225505 
838	 0.152492220797861 
839	 0.154164190545051 
840	 0.156062922558457 
841	 0.155806965839644 
842	 0.155133751009451 
843	 0.154940563847301 
844	 0.155461927779291 
845	 0.156827372614585 
846	 0.159051338924295 
847	 0.160210496910082 
848	 0.160421709088865 
849	 0.16140470720031 
850	 0.161967840254432 
851	 0.161876940023437 
852	 0.162497885100392 
853	 0.163444615815432 
854	 0.164153100594939 
855	 0.163990029564868 
856	 0.163738363890604 
857	 0.165894765298904 
858	 0.1665272868189 
859	 0.165207305022567 
860	 0.167154284356202 
861	 0.169322389574313 
862	 0.168752676806917 
863	 0.16907014683411 
864	 0.170503521783312 
865	 0.171944551465385 
866	 0.173831644518653 
867	 0.175675787351145 
868	 0.174953859764662 
869	 0.174557081029258 
870	 0.176664823724547 
871	 0.177496530438282 
872	 0.177848376626425 
873	 0.180505795127193 
874	 0.181479022183503 
875	 0.180155882689667 
876	 0.179032847006486 
877	 0.179901156801971 
878	 0.18343930826237 
879	 0.184354838905466 
880	 0.183694640028002 
881	 0.184401132220017 
882	 0.185213547748246 
883	 0.186054347719994 
884	 0.187635751702391 
885	 0.189240067644526 
886	 0.190226964799335 
887	 0.189086266140895 
888	 0.188352203882838 
889	 0.191464571183808 
890	 0.192007445497335 
891	 0.190713451627169 
892	 0.195062031514764 
893	 0.199164648210646 
894	 0.200352075290877 
895	 0.200991544741106 
896	 0.201253399341636 
897	 0.201260715013601 
898	 0.202642003989948 
899	 0.204439913913475 
900	 0.203211469279026 
901	 0.204375984964529 
902	 0.208056079457699 
903	 0.206346340661016 
904	 0.204368852225918 
905	 0.206118863611192 
906	 0.207506825221554 
907	 0.208912340123436 
908	 0.21219428518219 
909	 0.21092281344151 
910	 0.206389006222182 
911	 0.210983508141781 
912	 0.215560658550161 
913	 0.214930856893365 
914	 0.213428570454633 
915	 0.213106478642369 
916	 0.215661886569385 
917	 0.215627974357437 
918	 0.214808014913486 
919	 0.222230265355481 
920	 0.22400433886235 
921	 0.217488192568875 
922	 0.215292672690896 
923	 0.216288438563095 
924	 0.218733776326855 
925	 0.219682714882484 
926	 0.219473533361619 
927	 0.220365863328284 
928	 0.221871843267239 
929	 0.223811991016159 
930	 0.22534636413582 
931	 0.229002206211865 
932	 0.235908566742247 
933	 0.238266976155694 
934	 0.235194739550366 
935	 0.228378484019099 
936	 0.226083716854935 
937	 0.229003518122208 
938	 0.232648476475692 
939	 0.231817077750045 
940	 0.227010777039808 
941	 0.229456163661107 
942	 0.230983972813853 
943	 0.226794773368649 
944	 0.232076203872478 
945	 0.235780919528518 
946	 0.217844969585007 
947	 0.209081043005703 
948	 0.215680200221336 
949	 0.22809983043071 
950	 0.23889228874122 
951	 0.242784892378386 
952	 0.231879000962178 
953	 0.224539050892068 
954	 0.236662797627046 
955	 0.23908371261358 
956	 0.236867965269338 
957	 0.247739899438966 
958	 0.243895484835721 
959	 0.227216754691351 
960	 0.225029569026091 
961	 0.233065426716867 
962	 0.246486868494005 
963	 0.251810350837917 
964	 0.250635105377554 
965	 0.246239171659282 
966	 0.241414577873692 
967	 0.237858477000137 
968	 0.236843539389349 
969	 0.239215154974768 
970	 0.242739603704594 
971	 0.239271408737356 
972	 0.236803296979396 
973	 0.238756857233531 
974	 0.235310421916751 
975	 0.232879302927007 
976	 0.239019928636234 
977	 0.245581750842322 
978	 0.248563659413904 
979	 0.243111482019185 
980	 0.239590286359295 
981	 0.240903232588039 
982	 0.245012690418085 
983	 0.247590241419807 
984	 0.247087142662732 
985	 0.249479077585715 
986	 0.249038930558727 
987	 0.24072386194804 
988	 0.246621184144449 
989	 0.256885305441666 
990	 0.244009711217805 
991	 0.240085843245599 
992	 0.250883846144487 
993	 0.264700502032862 
994	 0.261585765182229 
995	 0.238295692698876 
996	 0.245734301482886 
997	 0.257347306936532 
998	 0.246492556955072 
999	 0.249260527191709 
1000	 0.25865082346109 
1001	 0.252970805705799 
1002	 0.259887194903352 
1003	 0.274247565646488 
1004	 0.254589965936964 
1005	 0.244374926124264 
1006	 0.257286534414693 
1007	 0.263834306365499 
1008	 0.265006733142345 
1009	 0.263267303859057 
1010	 0.267824198923445 
1011	 0.271817025684944 
1012	 0.264852770209961 
1013	 0.2566854406064 
1014	 0.253761779789288 
1015	 0.266806859232782 
1016	 0.272878178561176 
1017	 0.268653940803001 
1018	 0.27432073829894 
1019	 0.27552490048282 
1020	 0.267027361749271 
1021	 0.270303348218756 
1022	 0.278079795920339 
1023	 0.281103476307298 
1024	 0.272957689149477 
1025	 0.262112263709639 
1026	 0.264712712882235 
1027	 0.274868066740087 
1028	 0.284564942901363 
1029	 0.275624820706947 
1030	 0.267273450589676 
1031	 0.264876200503579 
1032	 0.25600132051216 
1033	 0.26092506689305 
1034	 0.28477785764328 
1035	 0.279714587964465 
1036	 0.270589497361628 
1037	 0.28594058064511 
1038	 0.29667238108006 
1039	 0.293125857760763 
1040	 0.267497083391561 
1041	 0.255912956881181 
1042	 0.260006815053577 
1043	 0.246023616446152 
1044	 0.236623151046666 
1045	 0.236792319402016 
1046	 0.230067503829587 
1047	 0.238212921948984 
1048	 0.264130466081175 
1049	 0.243500810991115 
1050	 0.223355035634676 
1051	 0.247616419273657 
1052	 0.264487961387452 
1053	 0.26738480378022 
1054	 0.258577407404669 
1055	 0.253273017395693 
1056	 0.260086367406713 
1057	 0.293301988285452 
1058	 0.286641264677964 
1059	 0.24826654988687 
1060	 0.286496023676121 
1061	 0.309121754109742 
1062	 0.283061595977342 
1063	 0.263756649319225 
1064	 0.260932507644537 
1065	 0.272127576448031 
1066	 0.259642720534265 
1067	 0.252120002912187 
1068	 0.277230369401572 
1069	 0.230211425228252 
1070	 0.167266315223818 
1071	 0.230731081658829 
1072	 0.260139639955767 
1073	 0.244939121181991 
1074	 0.232635282081538 
1075	 0.242097779613592 
