Wavelength	SHSI00087.asd
325	 0.108631782257021 
326	 0.112497389044628 
327	 0.108639942382091 
328	 0.112160926745726 
329	 0.114891165354485 
330	 0.113093100210576 
331	 0.101382914245216 
332	 9.57463046293026E-02 
333	 0.109866714453151 
334	 0.110797791377302 
335	 0.102783481165011 
336	 0.109537093721406 
337	 0.115441561908822 
338	 0.115420248064877 
339	 0.107989018798072 
340	 0.104158949274551 
341	 0.111566225525472 
342	 0.110861396879879 
343	 0.105170631408464 
344	 0.10568499351886 
345	 0.108134004245408 
346	 0.110523999297711 
347	 0.109555828051546 
348	 0.108865055096567 
349	 0.110545703043048 
350	 0.109814063088184 
351	 0.108763758663304 
352	 0.111614750178918 
353	 0.113151137289112 
354	 0.112675610994612 
355	 0.112685374280406 
356	 0.112989670560828 
357	 0.113382264176416 
358	 0.113109772163725 
359	 0.112856169191316 
360	 0.113749288135233 
361	 0.114463636639174 
362	 0.11483741629085 
363	 0.115861495586774 
364	 0.115147473531892 
365	 0.112209663995485 
366	 0.112432191645447 
367	 0.113785301170286 
368	 0.112885496320577 
369	 0.112001049972088 
370	 0.111722071912815 
371	 0.112247504192375 
372	 0.112971565828872 
373	 0.113309814008401 
374	 0.112001143693148 
375	 0.110279439707486 
376	 0.109970368112664 
377	 0.109269230694612 
378	 0.108451340872419 
379	 0.109813106691402 
380	 0.110911317054742 
381	 0.110409569828299 
382	 0.108522912088051 
383	 0.10675932033716 
384	 0.106993180380676 
385	 0.107375528305843 
386	 0.10746861875507 
387	 0.107747342714042 
388	 0.106420812810785 
389	 0.103597530808547 
390	 0.104776593564806 
391	 0.106769819391202 
392	 0.105439414561738 
393	 0.10414545074193 
394	 0.103546230230728 
395	 0.103362840804039 
396	 0.103480389098232 
397	 0.103722712248043 
398	 0.103838191657695 
399	 0.10331907456254 
400	 0.101766688119294 
401	 0.100214451683263 
402	 9.95772413538288E-02 
403	 0.10187771215512 
404	 0.102820690586438 
405	 0.101102024880577 
406	 0.100797009493726 
407	 0.100941262626384 
408	 9.99250829812232E-02 
409	 9.89729162045588E-02 
410	 9.83993132840023E-02 
411	 9.82251843411231E-02 
412	 9.83814400991832E-02 
413	 9.86921872189603E-02 
414	 9.84637071937872E-02 
415	 9.79547769861317E-02 
416	 0.097590392425362 
417	 9.70700022488878E-02 
418	 9.66577975463299E-02 
419	 9.74174847028672E-02 
420	 9.78190769396474E-02 
421	 9.71535690378168E-02 
422	 9.68164860783256E-02 
423	 9.66843567314357E-02 
424	 9.63222199523795E-02 
425	 9.64142836025706E-02 
426	 9.68122044824962E-02 
427	 9.64118269272002E-02 
428	 0.095813054813384 
429	 9.54514471570557E-02 
430	 9.53869044007175E-02 
431	 9.54337738421259E-02 
432	 9.52768624593273E-02 
433	 9.49687875009685E-02 
434	 9.46220747200389E-02 
435	 9.45064310769801E-02 
436	 9.47041514268069E-02 
437	 0.095164758987568 
438	 9.49213113024385E-02 
439	 9.44704668977407E-02 
440	 9.50091501615979E-02 
441	 9.52913599918424E-02 
442	 9.50661816181211E-02 
443	 9.49469562748171E-02 
444	 9.49410279874764E-02 
445	 9.50534030586434E-02 
446	 9.54411652701361E-02 
447	 9.59727593007632E-02 
448	 9.63530429213884E-02 
449	 9.65075902842074E-02 
450	 9.64910775802077E-02 
451	 0.096769954394108 
452	 9.70367864285244E-02 
453	 9.69990577458834E-02 
454	 9.74510650630074E-02 
455	 9.81663366873539E-02 
456	 9.80876747244192E-02 
457	 9.80469348434408E-02 
458	 9.83148886896632E-02 
459	 9.83398046791146E-02 
460	 9.83681786266019E-02 
461	 9.87262677112994E-02 
462	 0.098858751558712 
463	 9.87885791586683E-02 
464	 9.89263599104964E-02 
465	 9.94306530026706E-02 
466	 0.100256784344347 
467	 0.100428351423612 
468	 0.10034619364158 
469	 0.100761779975482 
470	 0.101015903035335 
471	 0.101085262551496 
472	 0.101456579464134 
473	 0.101934625005423 
474	 0.102378738782157 
475	 0.102783668530917 
476	 0.103025511288556 
477	 0.102884789855031 
478	 0.102974486218456 
479	 0.103323047272208 
480	 0.103236793958291 
481	 0.102957790112379 
482	 0.102745712619646 
483	 0.10307772812794 
484	 0.103711827318217 
485	 0.103888872448971 
486	 0.103926286031823 
487	 0.103938143007812 
488	 0.103994930514239 
489	 0.104038141581756 
490	 0.104014538312953 
491	 0.104178460907684 
492	 0.104527366057561 
493	 0.104952613848482 
494	 0.10519639735871 
495	 0.105243846734188 
496	 0.105804668337697 
497	 0.106519389299211 
498	 0.106848594108971 
499	 0.107179774443671 
500	 0.107676960479594 
501	 0.108575836900852 
502	 0.109401947997625 
503	 0.109878087155293 
504	 0.110309907285934 
505	 0.110899656275229 
506	 0.111905567223914 
507	 0.112917656150331 
508	 0.113796358006922 
509	 0.114505860907275 
510	 0.11531822370533 
511	 0.116414312573909 
512	 0.117257389151896 
513	 0.117961261203765 
514	 0.119011642572933 
515	 0.119987313529572 
516	 0.120822145355826 
517	 0.121974716198335 
518	 0.123241661418127 
519	 0.124355264913764 
520	 0.125260456848748 
521	 0.126013391372521 
522	 0.126780265827995 
523	 0.127706413762311 
524	 0.128834018746876 
525	 0.129804349342801 
526	 0.130853674442275 
527	 0.132358473894392 
528	 0.133726032612771 
529	 0.134765953993461 
530	 0.135458276072589 
531	 0.136225914427511 
532	 0.137343933536339 
533	 0.138475940207548 
534	 0.13957160517821 
535	 0.140637074195912 
536	 0.141672922745384 
537	 0.142734341895186 
538	 0.144051307195791 
539	 0.145333608645345 
540	 0.146300362027278 
541	 0.147277931906858 
542	 0.148307094787188 
543	 0.149359411378612 
544	 0.150227090271876 
545	 0.150914432681536 
546	 0.152001187077568 
547	 0.153205136203758 
548	 0.154088175010221 
549	 0.155018486594171 
550	 0.156032605668754 
551	 0.15695503000674 
552	 0.157847102857821 
553	 0.158740765569755 
554	 0.159579700225282 
555	 0.160384552916969 
556	 0.161216172016605 
557	 0.161939609492303 
558	 0.162543838570689 
559	 0.16318007104178 
560	 0.163867248733456 
561	 0.164587739903786 
562	 0.164879417141212 
563	 0.165007478356093 
564	 0.165932383613449 
565	 0.166567602291406 
566	 0.166584910754836 
567	 0.166952112501843 
568	 0.16742464823586 
569	 0.167583445949129 
570	 0.167522643634812 
571	 0.167389142893062 
572	 0.167597263246715 
573	 0.167766360110987 
574	 0.16771081873324 
575	 0.167960202814831 
576	 0.16829811944589 
577	 0.168204226155949 
578	 0.168059220176418 
579	 0.168065275398337 
580	 0.168544616049025 
581	 0.16893634553026 
582	 0.168779107218721 
583	 0.168832472260032 
584	 0.169135124791892 
585	 0.169432384354216 
586	 0.169672023610782 
587	 0.169767849594502 
588	 0.169424303117411 
589	 0.16918957572244 
590	 0.169792044614404 
591	 0.170031956493126 
592	 0.169851957568492 
593	 0.170094494246501 
594	 0.170385136974088 
595	 0.170517547425709 
596	 0.170646539662371 
597	 0.17080216419732 
598	 0.171026574260034 
599	 0.170997523004168 
600	 0.170720671894259 
601	 0.170661779350395 
602	 0.170785323697815 
603	 0.171002178815219 
604	 0.170818726261099 
605	 0.170322082389465 
606	 0.169982972114388 
607	 0.169524187594027 
608	 0.168921652341925 
609	 0.168689765514046 
610	 0.168316320614444 
611	 0.167122642075991 
612	 0.166310956481159 
613	 0.165995110543921 
614	 0.165442197496836 
615	 0.165028580365566 
616	 0.164900227009575 
617	 0.164374427912305 
618	 0.163602355326025 
619	 0.162971784188671 
620	 0.162681715516891 
621	 0.16266701041516 
622	 0.162286224644793 
623	 0.161960724726355 
624	 0.162075365099724 
625	 0.16229320003943 
626	 0.162385498110101 
627	 0.161944556986762 
628	 0.161498139594112 
629	 0.161317019652488 
630	 0.161535552455947 
631	 0.161747189776156 
632	 0.161447042880044 
633	 0.161263384580459 
634	 0.161328051748805 
635	 0.161540242883734 
636	 0.161747429526353 
637	 0.161848748730938 
638	 0.161867769702873 
639	 0.161966259205672 
640	 0.162459587893689 
641	 0.162471716091304 
642	 0.161986650855251 
643	 0.162204040482646 
644	 0.16259940320374 
645	 0.162677918862721 
646	 0.162704540833754 
647	 0.162583861348199 
648	 0.161997960638847 
649	 0.161187608019367 
650	 0.160352862205806 
651	 0.159859425913642 
652	 0.159534643430625 
653	 0.159118922334074 
654	 0.157933728263052 
655	 0.156114037476668 
656	 0.155207057326019 
657	 0.153518844917654 
658	 0.150445100020215 
659	 0.148521494226292 
660	 0.147195371834439 
661	 0.145190313725456 
662	 0.14297336896466 
663	 0.140583667954924 
664	 0.137684000021015 
665	 0.135020618111347 
666	 0.133194617036716 
667	 0.13151613646291 
668	 0.129907021528243 
669	 0.128497153704323 
670	 0.127175694840956 
671	 0.125948007998534 
672	 0.125025308949179 
673	 0.124536207564808 
674	 0.124578907283005 
675	 0.124531900475127 
676	 0.12439888345647 
677	 0.124646841886198 
678	 0.125251915495426 
679	 0.126203667850487 
680	 0.127422697298527 
681	 0.128864036085226 
682	 0.130481080631931 
683	 0.132300062176688 
684	 0.134471459855942 
685	 0.137619295835889 
686	 0.141399456857002 
687	 0.14548131921244 
688	 0.150282750334583 
689	 0.155185687158252 
690	 0.159760731109841 
691	 0.164571163777793 
692	 0.169924571387468 
693	 0.175765044917859 
694	 0.181703020068896 
695	 0.187097534128991 
696	 0.192682623981542 
697	 0.198341532149131 
698	 0.203670468285386 
699	 0.208825454398008 
700	 0.213773983237201 
701	 0.218521439739699 
702	 0.223117203616998 
703	 0.227666492436355 
704	 0.231693277837631 
705	 0.235294645149495 
706	 0.238994974961173 
707	 0.242455031217377 
708	 0.245494750015898 
709	 0.248558280125706 
710	 0.251562031329614 
711	 0.254229607250755 
712	 0.256916943576417 
713	 0.259596874373151 
714	 0.261693903601892 
715	 0.263699890301771 
716	 0.266195060760468 
717	 0.268752193002229 
718	 0.271163213724453 
719	 0.272760096541836 
720	 0.274041265300876 
721	 0.275278017362527 
722	 0.276750610967882 
723	 0.278578235319774 
724	 0.280762005633389 
725	 0.282129258599481 
726	 0.282687274973318 
727	 0.283680755105654 
728	 0.285231757885622 
729	 0.287159906286496 
730	 0.287611856710771 
731	 0.287635136885104 
732	 0.288923079659452 
733	 0.289920659565481 
734	 0.290405447260317 
735	 0.290709978150511 
736	 0.291354314263946 
737	 0.292552790618038 
738	 0.293008449822523 
739	 0.293130920350763 
740	 0.294029232201843 
741	 0.294849464630556 
742	 0.295375612808748 
743	 0.295812369032652 
744	 0.296405120060011 
745	 0.29730332450684 
746	 0.297699298925833 
747	 0.297733422848775 
748	 0.298052092311598 
749	 0.298590866702387 
750	 0.299297650492128 
751	 0.299891663743375 
752	 0.300390418983674 
753	 0.300842827893278 
754	 0.301358033144483 
755	 0.301838587808302 
756	 0.301940610844746 
757	 0.301893930083509 
758	 0.301977748337857 
759	 0.303543049330457 
760	 0.307048230391426 
761	 0.309221388721231 
762	 0.309909258194881 
763	 0.309679578157948 
764	 0.309263214006491 
765	 0.308949919577852 
766	 0.308854312241758 
767	 0.30882547286352 
768	 0.308760544834719 
769	 0.308541931343386 
770	 0.308696163558256 
771	 0.309182192056528 
772	 0.30928500820546 
773	 0.309679011586388 
774	 0.310707447298065 
775	 0.311220073350832 
776	 0.311437946007037 
777	 0.312097805120277 
778	 0.312396457310274 
779	 0.312308682154552 
780	 0.3127215867022 
781	 0.313338485499291 
782	 0.313849997997502 
783	 0.313761950007043 
784	 0.31344785620947 
785	 0.313859126757262 
786	 0.314366734275328 
787	 0.314825813458487 
788	 0.315575057955274 
789	 0.316197730792507 
790	 0.316316647191688 
791	 0.31643304371558 
792	 0.316666239259942 
793	 0.317115375084789 
794	 0.317098266913017 
795	 0.316680981155116 
796	 0.317646102939291 
797	 0.318395152156785 
798	 0.317376643431904 
799	 0.317458639693067 
800	 0.318642441884505 
801	 0.31943510796604 
802	 0.319750425497534 
803	 0.319620090957487 
804	 0.319884563585131 
805	 0.320174639106272 
806	 0.320061622028113 
807	 0.320425809399568 
808	 0.321177092361353 
809	 0.32151367992943 
810	 0.321886456296664 
811	 0.322509261352849 
812	 0.323440312588737 
813	 0.32451088204059 
814	 0.325477502832897 
815	 0.326812030497774 
816	 0.328149228978652 
817	 0.328119855877198 
818	 0.327950957365137 
819	 0.328235566750349 
820	 0.328693994691914 
821	 0.329478047796789 
822	 0.330741301656353 
823	 0.331060991863692 
824	 0.330652435106861 
825	 0.331145868988959 
826	 0.331622589047839 
827	 0.331831599835123 
828	 0.332597376890993 
829	 0.333162616521846 
830	 0.332568488305197 
831	 0.332249836937285 
832	 0.332518196808934 
833	 0.333272469972612 
834	 0.333950941056014 
835	 0.334156663519823 
836	 0.333350979975751 
837	 0.332582737258397 
838	 0.333020532085335 
839	 0.33312334666443 
840	 0.332773059731734 
841	 0.332635692352519 
842	 0.332357269011973 
843	 0.33191784204542 
844	 0.332000123000731 
845	 0.332179941411673 
846	 0.331941255481766 
847	 0.331860627575402 
848	 0.332023523580728 
849	 0.332464255719063 
850	 0.332120018765344 
851	 0.330858066142015 
852	 0.33071568041823 
853	 0.331239240942623 
854	 0.331701022066017 
855	 0.331524440236485 
856	 0.33100215907977 
857	 0.331250691556761 
858	 0.331285699974683 
859	 0.330842124059313 
860	 0.330311315759686 
861	 0.3300053630834 
862	 0.330186402223732 
863	 0.330508496744646 
864	 0.330824454847017 
865	 0.330968858310446 
866	 0.331054285323066 
867	 0.331320049726812 
868	 0.33265938318473 
869	 0.333746591031276 
870	 0.333643155391043 
871	 0.334611091573625 
872	 0.336087878158871 
873	 0.336286219335467 
874	 0.336730108522555 
875	 0.337763200109937 
876	 0.338787346955714 
877	 0.339914050266069 
878	 0.341156977010593 
879	 0.341991289103268 
880	 0.342803741353967 
881	 0.344322053436673 
882	 0.345453998452595 
883	 0.346103821464504 
884	 0.34693663256704 
885	 0.348275640876072 
886	 0.350073137223462 
887	 0.350426561687936 
888	 0.350893808063703 
889	 0.353732158745164 
890	 0.355779380541776 
891	 0.356260716352693 
892	 0.354937970937814 
893	 0.355266447002078 
894	 0.358624465150599 
895	 0.361524368491946 
896	 0.363380377648642 
897	 0.363783928344786 
898	 0.362650669606819 
899	 0.36157287969831 
900	 0.364362554375526 
901	 0.365827342722525 
902	 0.364904278533136 
903	 0.365293783920282 
904	 0.365998455558398 
905	 0.366303684522409 
906	 0.367865354827287 
907	 0.369667980687814 
908	 0.369552181964243 
909	 0.369721861895294 
910	 0.370449057376795 
911	 0.370186735090683 
912	 0.36994506108788 
913	 0.370259380214782 
914	 0.37036926024702 
915	 0.37060567847766 
916	 0.371407774717959 
917	 0.37135051622744 
918	 0.370854269646872 
919	 0.372008778647441 
920	 0.372197703573147 
921	 0.370993935562192 
922	 0.371334743928584 
923	 0.371213199904624 
924	 0.369081137817861 
925	 0.370215888535327 
926	 0.372787405647585 
927	 0.370720369599708 
928	 0.369142118201031 
929	 0.369583086697259 
930	 0.369899195923346 
931	 0.370587560289682 
932	 0.371520797356933 
933	 0.369099085705791 
934	 0.365741516410422 
935	 0.365846344457656 
936	 0.369234125056416 
937	 0.373352811988423 
938	 0.372679093169773 
939	 0.368944313702387 
940	 0.365001716746944 
941	 0.370330089873364 
942	 0.374951356140799 
943	 0.371842163866047 
944	 0.368073000630119 
945	 0.365878016639983 
946	 0.366969927060467 
947	 0.369169587959815 
948	 0.370890435805097 
949	 0.369771681575201 
950	 0.365354617811524 
951	 0.359121748235267 
952	 0.359075076711961 
953	 0.360518535655878 
954	 0.358839752160413 
955	 0.356542650982163 
956	 0.355958713944014 
957	 0.360584863031739 
958	 0.361336671706599 
959	 0.35708667292464 
960	 0.351532749320955 
961	 0.351930424641001 
962	 0.359326114501917 
963	 0.35987432882469 
964	 0.35680828493183 
965	 0.354591036001486 
966	 0.353590366818684 
967	 0.355077212903549 
968	 0.361710514198389 
969	 0.361664132315714 
970	 0.355121834425831 
971	 0.35581366457628 
972	 0.357404999861466 
973	 0.356710546762101 
974	 0.35741195509857 
975	 0.358300203125578 
976	 0.357858912716958 
977	 0.359149258624422 
978	 0.36172501519997 
979	 0.363607544414188 
980	 0.363907506739527 
981	 0.362443168043313 
982	 0.359517089712626 
983	 0.35859070668744 
984	 0.361054589505282 
985	 0.363015449011269 
986	 0.363356865739704 
987	 0.361664220604509 
988	 0.362768604083124 
989	 0.364856450554314 
990	 0.362299985909666 
991	 0.361942195979964 
992	 0.365029898551572 
993	 0.369480191347737 
994	 0.368683845046562 
995	 0.361396080533722 
996	 0.361852383183987 
997	 0.364126497257258 
998	 0.361714358107906 
999	 0.361926118182857 
1000	 0.364355202691771 
1001	 0.366211790551916 
1002	 0.369209188205199 
1003	 0.371459653576682 
1004	 0.364961254865177 
1005	 0.364960941535628 
1006	 0.374623919342602 
1007	 0.375847907171431 
1008	 0.369646140969696 
1009	 0.359775495922911 
1010	 0.363613597635146 
1011	 0.372876905674059 
1012	 0.372974731344506 
1013	 0.373332953928325 
1014	 0.37337836750513 
1015	 0.366947281986475 
1016	 0.36403709242045 
1017	 0.366156514964853 
1018	 0.363064765308288 
1019	 0.366917196407649 
1020	 0.380937921042214 
1021	 0.384360336002988 
1022	 0.379990586853421 
1023	 0.373472011300466 
1024	 0.377294686587534 
1025	 0.383551939484921 
1026	 0.376064783472329 
1027	 0.371194244299033 
1028	 0.37286268140822 
1029	 0.380472335972586 
1030	 0.380143058687257 
1031	 0.370430731758192 
1032	 0.371174045608045 
1033	 0.371001415953174 
1034	 0.365241903992198 
1035	 0.374965625493836 
1036	 0.38427462295715 
1037	 0.375671829561697 
1038	 0.3765806604882 
1039	 0.379741304916651 
1040	 0.365120262446862 
1041	 0.359907628513587 
1042	 0.368259086453786 
1043	 0.382898904287505 
1044	 0.379782122165566 
1045	 0.360687949240664 
1046	 0.375955533061444 
1047	 0.383985554705564 
1048	 0.36407109752869 
1049	 0.357139084971922 
1050	 0.360731883935068 
1051	 0.367581517839809 
1052	 0.357760598192072 
1053	 0.347660072442134 
1054	 0.366255726485074 
1055	 0.380662179553955 
1056	 0.382312907971419 
1057	 0.370190731276471 
1058	 0.35886838540857 
1059	 0.355970858625207 
1060	 0.364532359225308 
1061	 0.371398259795577 
1062	 0.369856444869793 
1063	 0.363229599109363 
1064	 0.352868513421073 
1065	 0.342195092780034 
1066	 0.343736275765147 
1067	 0.350505151367892 
1068	 0.354015165408497 
1069	 0.354121477396925 
1070	 0.355586786427456 
1071	 0.366442200059383 
1072	 0.369153352531783 
1073	 0.36731127339685 
1074	 0.383129030929881 
1075	 0.376450153078921 
