Wavelength	SHSI00239.asd
325	 7.47885437330283E-02 
326	 6.77796612145678E-02 
327	 6.70190521093009E-02 
328	 8.08425898224424E-02 
329	 8.65146028627641E-02 
330	 7.82947123160202E-02 
331	 7.58621587689476E-02 
332	 7.54332047899677E-02 
333	 0.072315797320733 
334	 7.54318705250129E-02 
335	 8.16702431166926E-02 
336	 8.10322738726667E-02 
337	 0.080018086968172 
338	 7.97617572765862E-02 
339	 7.53588512301356E-02 
340	 0.074182339906718 
341	 8.08656901851555E-02 
342	 7.83068240545799E-02 
343	 7.15920452544901E-02 
344	 7.51015040414774E-02 
345	 7.86471974450168E-02 
346	 7.93585095769166E-02 
347	 0.07675284845199 
348	 7.62964539777888E-02 
349	 0.0806535955897 
350	 8.07479384818825E-02 
351	 7.85056321701373E-02 
352	 7.88005417238753E-02 
353	 7.72509357033015E-02 
354	 7.48817396170027E-02 
355	 7.95002229584409E-02 
356	 8.24775834739694E-02 
357	 7.92936002862068E-02 
358	 7.91991941278059E-02 
359	 8.11470114207908E-02 
360	 8.19333007673132E-02 
361	 8.06552586722157E-02 
362	 7.81473456132992E-02 
363	 7.78360225959966E-02 
364	 7.78418976567329E-02 
365	 0.077462167735919 
366	 7.90051160906122E-02 
367	 8.14303786293601E-02 
368	 0.083061403627883 
369	 8.34663098944021E-02 
370	 8.27410903992593E-02 
371	 8.10591138481111E-02 
372	 8.25894372081681E-02 
373	 8.82935036814949E-02 
374	 8.84516496549549E-02 
375	 8.44661474125054E-02 
376	 7.98696227322935E-02 
377	 7.86833563875336E-02 
378	 8.09523607669106E-02 
379	 8.32682336866314E-02 
380	 8.43103502071972E-02 
381	 8.36256020046473E-02 
382	 8.45461112511091E-02 
383	 8.52379101574402E-02 
384	 8.29370454571904E-02 
385	 0.081187059276382 
386	 0.080683740744347 
387	 8.07291935324164E-02 
388	 0.079808990761485 
389	 7.78580907901473E-02 
390	 7.86813868287466E-02 
391	 8.12853584088484E-02 
392	 8.40190255932982E-02 
393	 8.42241391486417E-02 
394	 8.20934175240175E-02 
395	 8.01996338628924E-02 
396	 7.84419020472107E-02 
397	 7.68233104595579E-02 
398	 7.49698662676043E-02 
399	 7.40086488885541E-02 
400	 7.49411661511035E-02 
401	 7.53093903213026E-02 
402	 0.075507564089303 
403	 7.81028987775997E-02 
404	 7.94845518181495E-02 
405	 7.86077915024393E-02 
406	 7.91404858635102E-02 
407	 8.03757829241241E-02 
408	 8.10354073371335E-02 
409	 8.01399248574249E-02 
410	 7.83191317170977E-02 
411	 7.77378142811859E-02 
412	 0.078346330703463 
413	 7.97494073357139E-02 
414	 7.96753161410277E-02 
415	 0.078971033077195 
416	 7.90214177767688E-02 
417	 7.89551448738509E-02 
418	 7.88969036386792E-02 
419	 0.079934275852941 
420	 8.03307530241753E-02 
421	 7.93846311551404E-02 
422	 7.92999273100264E-02 
423	 0.079727676478378 
424	 7.97899142888609E-02 
425	 7.96606526811732E-02 
426	 7.95844638924717E-02 
427	 8.03911487658364E-02 
428	 0.080987297032534 
429	 8.06792268670942E-02 
430	 8.02080663639859E-02 
431	 7.97466879097849E-02 
432	 7.93620832426254E-02 
433	 7.95970859120506E-02 
434	 0.080125208197398 
435	 7.91397972771472E-02 
436	 7.88011413575873E-02 
437	 8.03729120753817E-02 
438	 8.13843221321819E-02 
439	 8.15272007222592E-02 
440	 8.09146019133495E-02 
441	 8.04293509933394E-02 
442	 8.04495268131791E-02 
443	 8.10088535585423E-02 
444	 8.18648481196039E-02 
445	 8.27320484723476E-02 
446	 0.082720587295324 
447	 8.23159452734088E-02 
448	 8.29651963177964E-02 
449	 8.33008077607947E-02 
450	 8.31247573767891E-02 
451	 8.37666472483226E-02 
452	 8.46760437555384E-02 
453	 8.52328428374744E-02 
454	 8.56379486618653E-02 
455	 8.58922536548968E-02 
456	 8.59633037720086E-02 
457	 8.57662307425989E-02 
458	 0.085462816407834 
459	 8.60247428427979E-02 
460	 8.69764236035965E-02 
461	 8.76445841939445E-02 
462	 8.73618234801448E-02 
463	 8.66376104518794E-02 
464	 8.75514528557862E-02 
465	 8.84684314174187E-02 
466	 8.85635644374834E-02 
467	 0.088524809165526 
468	 8.84112466481973E-02 
469	 8.82041774966653E-02 
470	 8.81069553549137E-02 
471	 8.82665579909909E-02 
472	 0.088971732362769 
473	 8.95666543349935E-02 
474	 8.96584825381545E-02 
475	 8.97365397598626E-02 
476	 8.99357262760581E-02 
477	 9.03875981004489E-02 
478	 9.05066319216245E-02 
479	 9.02944536252108E-02 
480	 9.05103185584068E-02 
481	 9.08670444145262E-02 
482	 9.11284713239557E-02 
483	 9.15079519867946E-02 
484	 9.19917965936791E-02 
485	 9.25204906220201E-02 
486	 9.27861254488436E-02 
487	 9.26022607734732E-02 
488	 9.17485557967879E-02 
489	 9.10007515435798E-02 
490	 0.091141509247889 
491	 9.23832261732761E-02 
492	 9.39016791216325E-02 
493	 9.34731871849158E-02 
494	 9.29916384120271E-02 
495	 9.32447578844247E-02 
496	 9.35122313728119E-02 
497	 9.39103973904849E-02 
498	 9.46618102021697E-02 
499	 9.51931009393103E-02 
500	 9.55020060377863E-02 
501	 9.62147807323894E-02 
502	 9.65207335217769E-02 
503	 9.60952643517818E-02 
504	 9.64344494745375E-02 
505	 9.71322046118784E-02 
506	 9.71675010462352E-02 
507	 9.75079391007589E-02 
508	 0.098355405748973 
509	 9.93346449257064E-02 
510	 0.100463064831008 
511	 0.101702241451563 
512	 0.102424448376429 
513	 0.102842126993687 
514	 0.103692697082136 
515	 0.104546970561589 
516	 0.105201263922107 
517	 0.105428974681008 
518	 0.105532079771209 
519	 0.10584866462018 
520	 0.106121864983574 
521	 0.106479497080202 
522	 0.107381841561562 
523	 0.108323513769152 
524	 0.109111526040752 
525	 0.110154347009312 
526	 0.111207230245717 
527	 0.11187591741082 
528	 0.112216274373396 
529	 0.11244563375187 
530	 0.113157163767299 
531	 0.114238776260033 
532	 0.115478778351014 
533	 0.115655819313629 
534	 0.115423377363797 
535	 0.116409062319511 
536	 0.117392737456258 
537	 0.118065825284921 
538	 0.118835637025456 
539	 0.119663805085773 
540	 0.120470324399087 
541	 0.1208081804827 
542	 0.120899920468434 
543	 0.121533397017486 
544	 0.122325134463531 
545	 0.123088523292705 
546	 0.123706185414727 
547	 0.124187638839989 
548	 0.12456537971644 
549	 0.125109313896249 
550	 0.125682380994853 
551	 0.12550389070736 
552	 0.125586127796998 
553	 0.126504404403006 
554	 0.127260387050698 
555	 0.127830796641303 
556	 0.128455821502776 
557	 0.129111826740107 
558	 0.129675664250122 
559	 0.129649922364758 
560	 0.129485178484196 
561	 0.129647629794618 
562	 0.130425885992918 
563	 0.131515174329954 
564	 0.132060189388993 
565	 0.132244575256638 
566	 0.132207766284365 
567	 0.13246594399171 
568	 0.132815871088558 
569	 0.132933070290446 
570	 0.133009178386283 
571	 0.133108007513886 
572	 0.133291159618745 
573	 0.133423111625929 
574	 0.133468416375156 
575	 0.133857215140183 
576	 0.13435745496861 
577	 0.134428050507529 
578	 0.134649862794168 
579	 0.135120870236531 
580	 0.135435445352007 
581	 0.135705670761783 
582	 0.136029505338023 
583	 0.136171284846837 
584	 0.13623699830015 
585	 0.13659451968476 
586	 0.136977712827014 
587	 0.137280004170547 
588	 0.137562263287886 
589	 0.137758242876547 
590	 0.137776598102186 
591	 0.137722486928562 
592	 0.137751682642525 
593	 0.13828600399647 
594	 0.138559939640115 
595	 0.138234614329374 
596	 0.138449769572846 
597	 0.13915410551904 
598	 0.140053816280492 
599	 0.140135743228579 
600	 0.139441342865322 
601	 0.13976081744654 
602	 0.140188941113349 
603	 0.139950463450045 
604	 0.140456394336754 
605	 0.141358993731811 
606	 0.141153021169413 
607	 0.140950104261829 
608	 0.141081097735012 
609	 0.140734643903137 
610	 0.14036769276596 
611	 0.1406199133159 
612	 0.140858835853026 
613	 0.140802804034484 
614	 0.140021054954438 
615	 0.139542445967559 
616	 0.139917531618836 
617	 0.139950399445503 
618	 0.139771603719187 
619	 0.139884362266311 
620	 0.140227485872045 
621	 0.140666593897979 
622	 0.140728238214721 
623	 0.140520380324627 
624	 0.140214938183633 
625	 0.140613836098739 
626	 0.141364371719591 
627	 0.141057747278794 
628	 0.141266519702727 
629	 0.142361143996095 
630	 0.142606608631637 
631	 0.142445687006883 
632	 0.142613960327205 
633	 0.142635120559451 
634	 0.142514970282324 
635	 0.142508175533149 
636	 0.142857187013129 
637	 0.143610152885291 
638	 0.143923134005721 
639	 0.143938506272685 
640	 0.144140332876117 
641	 0.144093734552878 
642	 0.143819370668679 
643	 0.143822225213374 
644	 0.144349594407654 
645	 0.145496697800821 
646	 0.145683356650468 
647	 0.145109376186941 
648	 0.145164947986167 
649	 0.145172136121754 
650	 0.144929274829903 
651	 0.144600378429551 
652	 0.144559534387003 
653	 0.145213289616964 
654	 0.145298316634619 
655	 0.144486618707128 
656	 0.142934667777124 
657	 0.14149991621422 
658	 0.140733860654001 
659	 0.139980162505498 
660	 0.139295988106097 
661	 0.138972888736049 
662	 0.138117928659638 
663	 0.136699702338237 
664	 0.135827326279656 
665	 0.134934838173164 
666	 0.13356480919175 
667	 0.132437467558164 
668	 0.131600779780264 
669	 0.13087728282902 
670	 0.129894551846846 
671	 0.128819603004916 
672	 0.129467056298017 
673	 0.130324276314822 
674	 0.129558606047107 
675	 0.129497583434382 
676	 0.130194738473427 
677	 0.130065929220934 
678	 0.130385569735831 
679	 0.131678117052328 
680	 0.132493046143743 
681	 0.133028079326889 
682	 0.133839524839835 
683	 0.135577977081692 
684	 0.138165802506252 
685	 0.140595891843193 
686	 0.143015968868477 
687	 0.145538367116239 
688	 0.148609660560186 
689	 0.151910614177988 
690	 0.155181913985719 
691	 0.158782841733948 
692	 0.16285703042858 
693	 0.167298165913813 
694	 0.171482753983371 
695	 0.174650709284403 
696	 0.178336506118994 
697	 0.182412668034851 
698	 0.185802423858834 
699	 0.18906095417965 
700	 0.192411733931352 
701	 0.195957076959529 
702	 0.19943101635301 
703	 0.202495237103635 
704	 0.205088532793288 
705	 0.20729291082413 
706	 0.209190467486482 
707	 0.211453281083177 
708	 0.214380926387081 
709	 0.216598186411347 
710	 0.218406412548898 
711	 0.220731726688562 
712	 0.222895774669077 
713	 0.224755010770166 
714	 0.226717969276941 
715	 0.228306283367529 
716	 0.229202520332654 
717	 0.230779862381237 
718	 0.233203874583789 
719	 0.235676423188005 
720	 0.236787800412124 
721	 0.236608326917918 
722	 0.237954634634456 
723	 0.239962851443525 
724	 0.241455429759962 
725	 0.24278101388713 
726	 0.243949103720346 
727	 0.2452344695979 
728	 0.246142684807846 
729	 0.24664242297977 
730	 0.24836090598882 
731	 0.25015737788251 
732	 0.250265137046137 
733	 0.250763154009381 
734	 0.252025307492875 
735	 0.253607459533442 
736	 0.254832128784832 
737	 0.255308501712008 
738	 0.256454201994055 
739	 0.257761594568215 
740	 0.257857555907794 
741	 0.25843512623823 
742	 0.25969412828519 
743	 0.260037816275374 
744	 0.260620667652376 
745	 0.262333110908679 
746	 0.263148337589934 
747	 0.263283941574996 
748	 0.264107817067102 
749	 0.265109991231058 
750	 0.266058477349383 
751	 0.266541373540646 
752	 0.267140068934014 
753	 0.268447656689805 
754	 0.269107222850321 
755	 0.269258516718486 
756	 0.270365365325129 
757	 0.270089607327738 
758	 0.267805663395701 
759	 0.268098393487188 
760	 0.27192600639453 
761	 0.276496677373184 
762	 0.277602623344632 
763	 0.276440107905787 
764	 0.278350289787405 
765	 0.280311236856791 
766	 0.281114322857522 
767	 0.280883287248509 
768	 0.280574040787407 
769	 0.281222349334398 
770	 0.281720695105171 
771	 0.282004848032558 
772	 0.28279373125279 
773	 0.283773655636145 
774	 0.284734992626833 
775	 0.28582747594188 
776	 0.286844277209199 
777	 0.287440249912837 
778	 0.287703497182503 
779	 0.2879020980818 
780	 0.288985673069924 
781	 0.289994883694291 
782	 0.290239784578177 
783	 0.291092458109795 
784	 0.292305243278223 
785	 0.292854693835407 
786	 0.293617804172771 
787	 0.294640965359925 
788	 0.294737188600216 
789	 0.29469146067074 
790	 0.29529520629967 
791	 0.296273627828624 
792	 0.297500590729613 
793	 0.298901856561954 
794	 0.299638220666297 
795	 0.299605746541141 
796	 0.300050207345229 
797	 0.300737846994775 
798	 0.301356384318317 
799	 0.301927290124771 
800	 0.302677644513056 
801	 0.30436690493669 
802	 0.305228575810397 
803	 0.304828311399583 
804	 0.305090672391393 
805	 0.305804058107172 
806	 0.306574723021279 
807	 0.307357055088437 
808	 0.308181318678844 
809	 0.309293989020138 
810	 0.310059455585038 
811	 0.310159032488874 
812	 0.309506119143225 
813	 0.309305956486238 
814	 0.311107298171219 
815	 0.313058116214675 
816	 0.3147868343366 
817	 0.317075683542158 
818	 0.318195470754865 
819	 0.317692885017242 
820	 0.31732802891319 
821	 0.317864956865279 
822	 0.319987886623495 
823	 0.322349740061304 
824	 0.323808365008216 
825	 0.322477182248429 
826	 0.321600460313697 
827	 0.322531255449186 
828	 0.324204975911738 
829	 0.325416940599792 
830	 0.324906953444823 
831	 0.325758726715412 
832	 0.327660854577661 
833	 0.327632054517619 
834	 0.327738505336777 
835	 0.328779905191862 
836	 0.329987650417818 
837	 0.330974862406942 
838	 0.331403789689196 
839	 0.331472264425107 
840	 0.331580538742259 
841	 0.332675038899864 
842	 0.333839995720857 
843	 0.334547626112339 
844	 0.334416292926313 
845	 0.333877964492232 
846	 0.33347491054211 
847	 0.333219321556086 
848	 0.333490956097702 
849	 0.335492123455768 
850	 0.336298592056433 
851	 0.335199431430061 
852	 0.335854644187719 
853	 0.337846633426114 
854	 0.340245255500248 
855	 0.340861851264734 
856	 0.339994645308753 
857	 0.339495173907837 
858	 0.339827064170666 
859	 0.340962770091053 
860	 0.341456429580696 
861	 0.341482963313681 
862	 0.341326571403057 
863	 0.341409269288393 
864	 0.341823030628488 
865	 0.342395568181269 
866	 0.344161619156904 
867	 0.346799971134581 
868	 0.347442133734783 
869	 0.347256382580543 
870	 0.347384373363848 
871	 0.348081210818549 
872	 0.349011923074367 
873	 0.349307775821227 
874	 0.350815541608465 
875	 0.35336198009856 
876	 0.353955086298207 
877	 0.353978993426039 
878	 0.354558291977207 
879	 0.355837156349568 
880	 0.357882973971278 
881	 0.360743412418964 
882	 0.362662333164442 
883	 0.363185384249618 
884	 0.36268770132579 
885	 0.362556115275475 
886	 0.363551976093579 
887	 0.364640161563853 
888	 0.365600640201474 
889	 0.366303786571688 
890	 0.365996903733959 
891	 0.36494501105562 
892	 0.364250244052191 
893	 0.364934927731184 
894	 0.367182546324441 
895	 0.367964333486878 
896	 0.369457348783934 
897	 0.374173187548506 
898	 0.37581314669691 
899	 0.375532135870075 
900	 0.380114400105225 
901	 0.382366505632285 
902	 0.38063067030982 
903	 0.378740948344612 
904	 0.377774472625892 
905	 0.378433291225432 
906	 0.379580341570006 
907	 0.381245230485194 
908	 0.383913149934502 
909	 0.383829713539837 
910	 0.381222368146515 
911	 0.381349141616476 
912	 0.382817850626259 
913	 0.384792823490696 
914	 0.387640188370431 
915	 0.389417861283336 
916	 0.387996354757003 
917	 0.388143746679531 
918	 0.389313339045229 
919	 0.386925278634788 
920	 0.385795465404228 
921	 0.386960576453702 
922	 0.386663468564504 
923	 0.385463892675221 
924	 0.383882797061641 
925	 0.380348023390909 
926	 0.376509451913676 
927	 0.376302438759258 
928	 0.378994067103873 
929	 0.383764569909431 
930	 0.387636598336631 
931	 0.388342177605992 
932	 0.385236089261312 
933	 0.392263096743066 
934	 0.401822816260235 
935	 0.399645964298838 
936	 0.392482506712974 
937	 0.385929877123993 
938	 0.388199588806956 
939	 0.390889872340113 
940	 0.39141590482379 
941	 0.391502801293825 
942	 0.391127491800754 
943	 0.390764888564419 
944	 0.395485408164348 
945	 0.399311378830694 
946	 0.39188666309046 
947	 0.39106555357971 
948	 0.396222770246423 
949	 0.389775139038887 
950	 0.381037337105638 
951	 0.376161589922608 
952	 0.385911464024365 
953	 0.392827317312918 
954	 0.383111488865669 
955	 0.384994714570824 
956	 0.392272532349108 
957	 0.385514426834368 
958	 0.386121875198518 
959	 0.394229775012105 
960	 0.391192557458503 
961	 0.38949412850818 
962	 0.393715252726733 
963	 0.393646551589279 
964	 0.392049612668654 
965	 0.392352866010123 
966	 0.396335140590869 
967	 0.399036344328648 
968	 0.389897192573151 
969	 0.388884866645305 
970	 0.397067399001736 
971	 0.396540051508692 
972	 0.395035809679686 
973	 0.396977414135146 
974	 0.401873723567587 
975	 0.405181031602825 
976	 0.402387359636071 
977	 0.402303272597192 
978	 0.403005699105877 
979	 0.39629317902357 
980	 0.394142952154532 
981	 0.398633743557853 
982	 0.403367230376739 
983	 0.404022185381399 
984	 0.399824307747781 
985	 0.402078204318371 
986	 0.404947295105452 
987	 0.401674005585817 
988	 0.40357866421506 
989	 0.40768856278599 
990	 0.404060503482259 
991	 0.402661185499369 
992	 0.404742071315775 
993	 0.403799565921736 
994	 0.405284699990401 
995	 0.409626646337814 
996	 0.402741105026739 
997	 0.395314409531288 
998	 0.398806061206989 
999	 0.409823654709847 
1000	 0.419245365997146 
1001	 0.413692624844018 
1002	 0.410814796515525 
1003	 0.414431480914631 
1004	 0.421356625124205 
1005	 0.420794841658838 
1006	 0.411625515765889 
1007	 0.413161406698884 
1008	 0.418076461811986 
1009	 0.418999650436175 
1010	 0.411665762486208 
1011	 0.404826904098244 
1012	 0.411474401879089 
1013	 0.41871616176175 
1014	 0.422437718761112 
1015	 0.419350217953776 
1016	 0.417895819586228 
1017	 0.418259345035822 
1018	 0.408262740325089 
1019	 0.40460502738796 
1020	 0.414193047208445 
1021	 0.417014349969733 
1022	 0.41860956762228 
1023	 0.425323770691569 
1024	 0.426843032792942 
1025	 0.424261346613195 
1026	 0.422187630039521 
1027	 0.417393599184372 
1028	 0.411383285117044 
1029	 0.40950006309201 
1030	 0.41318670619615 
1031	 0.421446901768174 
1032	 0.427907639835782 
1033	 0.425472688814671 
1034	 0.414755580859807 
1035	 0.42779815881263 
1036	 0.441635688907933 
1037	 0.429916230791064 
1038	 0.427294575315047 
1039	 0.432377164290118 
1040	 0.43240458212309 
1041	 0.42440346798955 
1042	 0.416024260157561 
1043	 0.434379291619251 
1044	 0.440108727592192 
1045	 0.423606426848854 
1046	 0.411342232760133 
1047	 0.399736001813422 
1048	 0.389385627189089 
1049	 0.39286255887597 
1050	 0.404488595646293 
1051	 0.41530127736682 
1052	 0.417175979668552 
1053	 0.415631029122084 
1054	 0.420613723171336 
1055	 0.413964267450261 
1056	 0.409596806615898 
1057	 0.453557730955957 
1058	 0.446042811956341 
1059	 0.386997491574392 
1060	 0.382150247622591 
1061	 0.401460133854731 
1062	 0.425764782083349 
1063	 0.429691732049909 
1064	 0.41439723725472 
1065	 0.389140055563278 
1066	 0.406430315656013 
1067	 0.430340236613431 
1068	 0.419163124480799 
1069	 0.400541638875913 
1070	 0.391310885946273 
1071	 0.405871202630619 
1072	 0.419810138794426 
1073	 0.419096947037272 
1074	 0.39447694270435 
1075	 0.381759502456545 
