Wavelength	SHSI00250.asd
325	 0.112768659102044 
326	 0.111461364752135 
327	 0.114355348567843 
328	 0.120338417009908 
329	 0.120406164430358 
330	 0.113082091685043 
331	 0.108589341397981 
332	 0.111086033639637 
333	 0.122525388975405 
334	 0.119699343538001 
335	 0.108000153095591 
336	 0.109682388152269 
337	 0.108802999800384 
338	 0.102298816017483 
339	 0.09775570654621 
340	 9.77071895761842E-02 
341	 0.103127677622252 
342	 0.106901163153678 
343	 0.109168589085643 
344	 0.112963776030207 
345	 0.113308086968132 
346	 0.110647174879194 
347	 0.111341368845499 
348	 0.113119861344399 
349	 0.113966529762715 
350	 0.111091477488412 
351	 0.108576427508308 
352	 0.113395119987015 
353	 0.115626990118913 
354	 0.114421062403061 
355	 0.116414911395037 
356	 0.118520379881213 
357	 0.118847011590445 
358	 0.118784158573506 
359	 0.118219137003177 
360	 0.116783555687554 
361	 0.11409420450269 
362	 0.11182514332642 
363	 0.115239729035421 
364	 0.118448537948263 
365	 0.118393289828453 
366	 0.11757542656535 
367	 0.117881343963556 
368	 0.121443995563313 
369	 0.123132060332005 
370	 0.122522626238407 
371	 0.122279952413181 
372	 0.124155134508804 
373	 0.128082430034442 
374	 0.126725943504936 
375	 0.122665016203984 
376	 0.120507786659488 
377	 0.119638844567809 
378	 0.119964225199163 
379	 0.121574246560317 
380	 0.121374195451257 
381	 0.118925526656523 
382	 0.12336095480952 
383	 0.128241500588516 
384	 0.124225888896366 
385	 0.122024794387758 
386	 0.122339356561289 
387	 0.119109657766786 
388	 0.116112331337249 
389	 0.115249310445456 
390	 0.116941082770462 
391	 0.119925795324285 
392	 0.122627637068417 
393	 0.122130757820109 
394	 0.118948829299518 
395	 0.11644505040809 
396	 0.115330208777162 
397	 0.115246763211108 
398	 0.112621719873739 
399	 0.109968407155897 
400	 0.109909295225354 
401	 0.111179992307082 
402	 0.113157994818771 
403	 0.115186696607914 
404	 0.116656373127681 
405	 0.11731434458642 
406	 0.117596037515636 
407	 0.117449855180519 
408	 0.116772236113233 
409	 0.115508752214095 
410	 0.114439974684597 
411	 0.115819831213788 
412	 0.116472004987831 
413	 0.115154164973733 
414	 0.114313455927283 
415	 0.114125288945271 
416	 0.114470707779443 
417	 0.115072698033205 
418	 0.115745838674659 
419	 0.116379362255322 
420	 0.116466293066597 
421	 0.115841036624775 
422	 0.115332876881199 
423	 0.115262406074088 
424	 0.115924747445634 
425	 0.116076307092856 
426	 0.115842484955197 
427	 0.117000522843481 
428	 0.118092944732166 
429	 0.118091803634506 
430	 0.117244938762829 
431	 0.11601507909543 
432	 0.11506757419695 
433	 0.114388172232492 
434	 0.114071063832249 
435	 0.114322330364912 
436	 0.114799691307833 
437	 0.115279851840543 
438	 0.116069645091257 
439	 0.116857562371619 
440	 0.117077289465863 
441	 0.116683958550944 
442	 0.116060569815447 
443	 0.116661282251622 
444	 0.117912052939791 
445	 0.119159834128314 
446	 0.118973451885537 
447	 0.11804650113963 
448	 0.118377578412396 
449	 0.119267579599637 
450	 0.120312916111851 
451	 0.120526332627713 
452	 0.120783838842395 
453	 0.121970180204635 
454	 0.123041300033531 
455	 0.1236749162633 
456	 0.123688238743445 
457	 0.123259882480243 
458	 0.122708656492434 
459	 0.123091147118711 
460	 0.124018359391148 
461	 0.12489299302784 
462	 0.124794744405364 
463	 0.124121643948563 
464	 0.124798476777726 
465	 0.125632379082314 
466	 0.126042272068972 
467	 0.126669567976831 
468	 0.126938851928167 
469	 0.125953354821375 
470	 0.125443996956843 
471	 0.125801711457989 
472	 0.126528445027519 
473	 0.12736708608949 
474	 0.128078583980783 
475	 0.128382471911251 
476	 0.128375309443895 
477	 0.128289966914247 
478	 0.128252960629986 
479	 0.128319005870765 
480	 0.128353946630638 
481	 0.128759324435587 
482	 0.129778451703593 
483	 0.130277680681173 
484	 0.130315745228717 
485	 0.130534762140125 
486	 0.130788308834444 
487	 0.130940219553621 
488	 0.130590321720193 
489	 0.12974386432232 
490	 0.128558587252458 
491	 0.12950824000666 
492	 0.131707760168332 
493	 0.131518936677625 
494	 0.131130397045918 
495	 0.131379432909491 
496	 0.131276641473248 
497	 0.131443160099618 
498	 0.132759673436704 
499	 0.134170315702752 
500	 0.135112239144456 
501	 0.134744808801344 
502	 0.134503237087367 
503	 0.135197389202717 
504	 0.135685058604962 
505	 0.136012151256271 
506	 0.136497626990254 
507	 0.136952688606968 
508	 0.137482014082297 
509	 0.138608467002624 
510	 0.140037470986879 
511	 0.14145587668708 
512	 0.14225405910213 
513	 0.142705414265423 
514	 0.143677004727014 
515	 0.144737802764871 
516	 0.145687600204359 
517	 0.146318565133415 
518	 0.146690094234527 
519	 0.146907949300593 
520	 0.147217505655548 
521	 0.147784716456396 
522	 0.148837632318076 
523	 0.150064526037061 
524	 0.15131666320639 
525	 0.152780764622723 
526	 0.153896594991261 
527	 0.153864153659993 
528	 0.153960014785795 
529	 0.154605344522342 
530	 0.155902289854278 
531	 0.157296285883173 
532	 0.158371860268503 
533	 0.159045912531238 
534	 0.159523895337058 
535	 0.160217340527964 
536	 0.160997981251922 
537	 0.161851952193276 
538	 0.162803619897077 
539	 0.163853243919141 
540	 0.16495181384143 
541	 0.1652563267444 
542	 0.165210387494919 
543	 0.166464033887442 
544	 0.16750917203972 
545	 0.167827052670939 
546	 0.168390131524668 
547	 0.169147475265488 
548	 0.169913484526136 
549	 0.17043603810017 
550	 0.170766328374696 
551	 0.171310443640768 
552	 0.171897498369176 
553	 0.172506182377541 
554	 0.173948002803343 
555	 0.175511946556793 
556	 0.175703177692227 
557	 0.175875596457042 
558	 0.176398926416767 
559	 0.176797856093241 
560	 0.177249277775411 
561	 0.177905321111799 
562	 0.178380372161957 
563	 0.178751798427989 
564	 0.179453341529205 
565	 0.179972879443209 
566	 0.180141115233023 
567	 0.180326223135983 
568	 0.180598368531387 
569	 0.180998676274678 
570	 0.180917188238053 
571	 0.180497251413116 
572	 0.180712885575242 
573	 0.18114554304838 
574	 0.181536701612316 
575	 0.181923778284552 
576	 0.182360943214356 
577	 0.182979334463443 
578	 0.183267439071874 
579	 0.183198882581065 
580	 0.183405527461374 
581	 0.183831506663758 
582	 0.184381815435588 
583	 0.184786780590019 
584	 0.185033059692463 
585	 0.185204738927316 
586	 0.185547243052467 
587	 0.186119260878943 
588	 0.186562502494819 
589	 0.186776303023656 
590	 0.186679272746648 
591	 0.186217122413573 
592	 0.185797538215344 
593	 0.186701516327149 
594	 0.187342704692762 
595	 0.186897092362219 
596	 0.186758460300152 
597	 0.187277740674715 
598	 0.18882198542703 
599	 0.189296864231616 
600	 0.188436528099462 
601	 0.188359095467992 
602	 0.188435254184772 
603	 0.188099497792807 
604	 0.18821881819151 
605	 0.188737556898739 
606	 0.189235763812238 
607	 0.189287475326516 
608	 0.188785334456687 
609	 0.188486832408576 
610	 0.188232768095012 
611	 0.18773626334637 
612	 0.187682726227808 
613	 0.187835622406118 
614	 0.18683156979694 
615	 0.185901307220916 
616	 0.185770470441394 
617	 0.185675534337704 
618	 0.185469302881183 
619	 0.185059672796584 
620	 0.184892966411396 
621	 0.185039971926897 
622	 0.185186813951667 
623	 0.185165610231558 
624	 0.184874354360157 
625	 0.184924826374959 
626	 0.185259688314706 
627	 0.185393103387462 
628	 0.185660277867011 
629	 0.186098171470446 
630	 0.18624245955662 
631	 0.18610332643571 
632	 0.185757206637727 
633	 0.185799747252048 
634	 0.186211672007467 
635	 0.186403516912545 
636	 0.186502344070554 
637	 0.186610067559176 
638	 0.186962292236304 
639	 0.187434070001145 
640	 0.187739089751489 
641	 0.18819360070757 
642	 0.188665242709655 
643	 0.188167109214755 
644	 0.187834789832114 
645	 0.188609862876945 
646	 0.18878763466013 
647	 0.188660795019549 
648	 0.190057020396487 
649	 0.19051377742618 
650	 0.189263673915192 
651	 0.188074453756742 
652	 0.187262326682416 
653	 0.186988099908093 
654	 0.18688086001192 
655	 0.186465513055571 
656	 0.184703000035057 
657	 0.182509110294586 
658	 0.180633173324928 
659	 0.179236165748174 
660	 0.178099906728486 
661	 0.176940922780022 
662	 0.175114511484689 
663	 0.17271031881477 
664	 0.171052216015039 
665	 0.169436807261671 
666	 0.167273685828764 
667	 0.165220767229077 
668	 0.16345095748157 
669	 0.161976742170114 
670	 0.16102293097754 
671	 0.160594892982879 
672	 0.160277419520702 
673	 0.159831074701695 
674	 0.159054575182641 
675	 0.159021299437568 
676	 0.159626041839157 
677	 0.159760575549272 
678	 0.159930248601723 
679	 0.16040855238802 
680	 0.161037574639521 
681	 0.162150013921111 
682	 0.164295937561947 
683	 0.166421780921022 
684	 0.16836994445315 
685	 0.170961362410109 
686	 0.174214660803821 
687	 0.178056258600143 
688	 0.181911568867667 
689	 0.185535545030099 
690	 0.189523471601418 
691	 0.19379833163886 
692	 0.198386147206232 
693	 0.203053492446124 
694	 0.207807096634755 
695	 0.212451325953608 
696	 0.217109939163954 
697	 0.221538402848248 
698	 0.225196890257488 
699	 0.228660646513698 
700	 0.232171876769054 
701	 0.235761676756413 
702	 0.239136205216899 
703	 0.241927597424761 
704	 0.244602490760346 
705	 0.247280029870734 
706	 0.24977624877621 
707	 0.252203377958267 
708	 0.254551311488449 
709	 0.256157110507794 
710	 0.257527772652023 
711	 0.259731561373876 
712	 0.26193073475701 
713	 0.263833600837013 
714	 0.265497023737174 
715	 0.26674578639231 
716	 0.26752371299823 
717	 0.268754320918632 
718	 0.270609528367938 
719	 0.272658780603263 
720	 0.273784481927475 
721	 0.273884273441852 
722	 0.274593505659266 
723	 0.275773331169723 
724	 0.277132900995469 
725	 0.278156580901589 
726	 0.278885247622834 
727	 0.28027089205971 
728	 0.281080479953628 
729	 0.281002196669089 
730	 0.282472245456853 
731	 0.284296804449704 
732	 0.284507940529408 
733	 0.284741640972113 
734	 0.285409588313116 
735	 0.28654002539531 
736	 0.287530407627457 
737	 0.287986765941039 
738	 0.288608782144501 
739	 0.289345882311107 
740	 0.289908200526814 
741	 0.2904229588883 
742	 0.290966633157482 
743	 0.291717982295986 
744	 0.292403637951454 
745	 0.292807036795278 
746	 0.293197503886033 
747	 0.293696574704364 
748	 0.29453289483627 
749	 0.295011335758822 
750	 0.295082930156971 
751	 0.296003792560916 
752	 0.297077204998547 
753	 0.297471322022962 
754	 0.2972130020319 
755	 0.29686270235193 
756	 0.298328272202175 
757	 0.297741912272013 
758	 0.293913750948918 
759	 0.293648628945187 
760	 0.297668795310939 
761	 0.301801395948997 
762	 0.303617442425805 
763	 0.303573839484341 
764	 0.304793623387295 
765	 0.305559901989584 
766	 0.305486775088361 
767	 0.305861271769016 
768	 0.306130398638724 
769	 0.30549394958451 
770	 0.305316150153134 
771	 0.30579332240112 
772	 0.30627990418697 
773	 0.30686923955889 
774	 0.307593813714161 
775	 0.308295348129399 
776	 0.308764102171506 
777	 0.30868861681401 
778	 0.30861147540463 
779	 0.308794969133502 
780	 0.309409526026547 
781	 0.310301327710818 
782	 0.311282030525152 
783	 0.311913072324215 
784	 0.312191267996636 
785	 0.312284363767143 
786	 0.312374795481922 
787	 0.312507137790921 
788	 0.312400414086577 
789	 0.312436641134709 
790	 0.312981397771106 
791	 0.313870335725901 
792	 0.31491753154386 
793	 0.315904872388623 
794	 0.316127569650918 
795	 0.315612193374842 
796	 0.315970783000158 
797	 0.316497191407527 
798	 0.316434179225131 
799	 0.316820389087934 
800	 0.317597698874507 
801	 0.318038045315802 
802	 0.3186766034668 
803	 0.3195306565524 
804	 0.319669934043951 
805	 0.319486332323213 
806	 0.319480168576164 
807	 0.319463614773668 
808	 0.319615076394163 
809	 0.320526764015108 
810	 0.321390898432126 
811	 0.321727928368267 
812	 0.321066177143625 
813	 0.320556915236739 
814	 0.321751880590556 
815	 0.323465534115969 
816	 0.325222554926577 
817	 0.326740015874723 
818	 0.327680584499042 
819	 0.327859588756085 
820	 0.327034898254054 
821	 0.326559840435503 
822	 0.327962964122286 
823	 0.329456829789078 
824	 0.330145180315362 
825	 0.328853219580438 
826	 0.328423545615767 
827	 0.329757005194457 
828	 0.330205626374912 
829	 0.329930482441344 
830	 0.329489455277136 
831	 0.330255099303381 
832	 0.331874906473919 
833	 0.332438977052283 
834	 0.33274750997717 
835	 0.333164190484842 
836	 0.333843456683902 
837	 0.334470753389873 
838	 0.334688940149717 
839	 0.334687556850662 
840	 0.334750845543998 
841	 0.335545498876528 
842	 0.336340306959675 
843	 0.336714047510862 
844	 0.336465668710223 
845	 0.335592334511473 
846	 0.334198815327462 
847	 0.333977993610495 
848	 0.334767222424441 
849	 0.335018046506618 
850	 0.335023324048866 
851	 0.334934701200313 
852	 0.33521948646991 
853	 0.335630520639614 
854	 0.335903937914548 
855	 0.337078096921876 
856	 0.338495276773754 
857	 0.338212580633538 
858	 0.337205283426357 
859	 0.336168247929784 
860	 0.336790538539351 
861	 0.33717252535989 
862	 0.335671675775199 
863	 0.336518657355847 
864	 0.338854844553617 
865	 0.338762055644858 
866	 0.33932082520002 
867	 0.341014961100411 
868	 0.341329585674523 
869	 0.340923965358117 
870	 0.340519126449062 
871	 0.340728696787162 
872	 0.341380296637788 
873	 0.341855438976489 
874	 0.342943219968924 
875	 0.344641272535925 
876	 0.346234228597737 
877	 0.346526067395196 
878	 0.345245967240354 
879	 0.347240295585437 
880	 0.350734718992843 
881	 0.351795036798282 
882	 0.351851534322777 
883	 0.351566110880843 
884	 0.351998521235859 
885	 0.352633912297813 
886	 0.353160784420556 
887	 0.353680107450595 
888	 0.353712829678025 
889	 0.352673852141747 
890	 0.35153522614463 
891	 0.351016569681772 
892	 0.352507654235 
893	 0.353670169404772 
894	 0.353771433485102 
895	 0.356122868505943 
896	 0.358589673161161 
897	 0.358467907294631 
898	 0.3592306924399 
899	 0.361261674191583 
900	 0.363731472769594 
901	 0.364659947952032 
902	 0.363668063626594 
903	 0.362512908150477 
904	 0.361904593875704 
905	 0.362228291165541 
906	 0.361792543554726 
907	 0.361741567122374 
908	 0.364652195152656 
909	 0.364933768319821 
910	 0.362631249171103 
911	 0.364889744054125 
912	 0.365872029930337 
913	 0.363397165062652 
914	 0.366641017987999 
915	 0.371402406449711 
916	 0.371504129220643 
917	 0.370288178724969 
918	 0.368953215505587 
919	 0.368990074804061 
920	 0.367555681842396 
921	 0.364332048601245 
922	 0.362951634495229 
923	 0.362647104776629 
924	 0.362320263881346 
925	 0.359311267953497 
926	 0.35500954705616 
927	 0.353257827333651 
928	 0.357328685058209 
929	 0.366017308556075 
930	 0.366106802517512 
931	 0.36333950932382 
932	 0.363182114713894 
933	 0.368054927447544 
934	 0.372799999760985 
935	 0.369683660813452 
936	 0.374407082779187 
937	 0.379867927792652 
938	 0.357306245850223 
939	 0.350225011150304 
940	 0.365316560313102 
941	 0.371055192507139 
942	 0.366608980162764 
943	 0.354367088485679 
944	 0.355378806824985 
945	 0.363555173662486 
946	 0.364283340412858 
947	 0.366293146177008 
948	 0.369533959837655 
949	 0.368410942641825 
950	 0.362903038703093 
951	 0.355420443726711 
952	 0.358532299689376 
953	 0.364024606966037 
954	 0.364107370988809 
955	 0.364389693314058 
956	 0.365502606720134 
957	 0.366947109362839 
958	 0.371236354768838 
959	 0.37574901170793 
960	 0.369426216599297 
961	 0.367429663563954 
962	 0.374148293935407 
963	 0.370106071606348 
964	 0.364491874186395 
965	 0.366867353075692 
966	 0.367115669330045 
967	 0.364679010522662 
968	 0.361744409511487 
969	 0.36015068979553 
970	 0.360419956399164 
971	 0.361928687179449 
972	 0.363408900156653 
973	 0.364711336381326 
974	 0.370542834839368 
975	 0.373766984957237 
976	 0.366889684381655 
977	 0.364013237608931 
978	 0.365799346003473 
979	 0.367334496039013 
980	 0.369762242250937 
981	 0.371839022169036 
982	 0.369096806243495 
983	 0.36683763000374 
984	 0.367305922513943 
985	 0.364242589134265 
986	 0.36226933741562 
987	 0.366430403116906 
988	 0.36935102965033 
989	 0.368221174863605 
990	 0.359907771182 
991	 0.363284844489499 
992	 0.376672378061014 
993	 0.372797574563403 
994	 0.36825379124338 
995	 0.37088369607105 
996	 0.375226183554304 
997	 0.37241709869741 
998	 0.3564098019493 
999	 0.355340656120056 
1000	 0.364466821282134 
1001	 0.366777528415816 
1002	 0.370727669580438 
1003	 0.376133674451784 
1004	 0.376265674703226 
1005	 0.381947303745043 
1006	 0.391984013639833 
1007	 0.3775644427653 
1008	 0.365424149606657 
1009	 0.37480229969238 
1010	 0.37181315700504 
1011	 0.365333379545914 
1012	 0.373259071634366 
1013	 0.374140716135556 
1014	 0.36994963121842 
1015	 0.37714217302774 
1016	 0.378512983736366 
1017	 0.370799392919928 
1018	 0.361334709586784 
1019	 0.364277937546901 
1020	 0.382542542186193 
1021	 0.383573353505334 
1022	 0.371794962899271 
1023	 0.357454859139204 
1024	 0.366851179304535 
1025	 0.382159500241973 
1026	 0.367330355587719 
1027	 0.361377815939333 
1028	 0.369214270648037 
1029	 0.375053654333637 
1030	 0.375344643672947 
1031	 0.371248812770509 
1032	 0.37794386787173 
1033	 0.380539814119038 
1034	 0.372385789085253 
1035	 0.37742907328692 
1036	 0.381012676241179 
1037	 0.367905607590317 
1038	 0.379223898212106 
1039	 0.400754485595538 
1040	 0.396813584973332 
1041	 0.384661180974471 
1042	 0.372436876770135 
1043	 0.371748601649297 
1044	 0.374771833880354 
1045	 0.378245489079745 
1046	 0.381602743620297 
1047	 0.381869786776797 
1048	 0.376163786874755 
1049	 0.356380768813166 
1050	 0.349169855015496 
1051	 0.37670203722484 
1052	 0.389179974939811 
1053	 0.38838914517493 
1054	 0.387885949211321 
1055	 0.369119491367204 
1056	 0.344983393426746 
1057	 0.357212026016211 
1058	 0.372573669835244 
1059	 0.379661993277375 
1060	 0.377662233486015 
1061	 0.384311441670713 
1062	 0.401149966604505 
1063	 0.389390620239573 
1064	 0.369497333844953 
1065	 0.360116299737399 
1066	 0.379472592889173 
1067	 0.378983806543754 
1068	 0.312995324921021 
1069	 0.324249727127726 
1070	 0.370047454834104 
1071	 0.338935034550208 
1072	 0.320072326415294 
1073	 0.340140985630022 
1074	 0.407821284930578 
1075	 0.420802424431915 
