Wavelength	SHSI00084.asd
325	 0.113227077788765 
326	 0.112008393861519 
327	 0.112450820534697 
328	 0.115704837783859 
329	 0.116513018777588 
330	 0.113072931384972 
331	 0.105189928085786 
332	 0.102565814325929 
333	 0.113023431521644 
334	 0.11201094922272 
335	 0.103882508060096 
336	 0.108777813791241 
337	 0.114865244837129 
338	 0.11723183289464 
339	 0.110714283852257 
340	 0.104704766318803 
341	 0.106643734524892 
342	 0.10772826180907 
343	 0.10724064895204 
344	 0.106381214759195 
345	 0.106679893619967 
346	 0.107936165565386 
347	 0.107319967091405 
348	 0.107778948740618 
349	 0.110693114956071 
350	 0.109846668281313 
351	 0.107794404943908 
352	 0.109664035414413 
353	 0.111498014946117 
354	 0.112123701920515 
355	 0.110946359345421 
356	 0.110662833315318 
357	 0.112588762569831 
358	 0.113441727778593 
359	 0.113158765838111 
360	 0.112302230513015 
361	 0.111724502947659 
362	 0.111663752460555 
363	 0.112024708023323 
364	 0.111956039659509 
365	 0.111234454726015 
366	 0.111642181310547 
367	 0.112288012850824 
368	 0.111773243639962 
369	 0.111828935130373 
370	 0.112183318417142 
371	 0.110466268354314 
372	 0.109574565291495 
373	 0.11058108788458 
374	 0.109043333062739 
375	 0.107020042714018 
376	 0.107882912142033 
377	 0.108778356979913 
378	 0.108917611346341 
379	 0.108124710585731 
380	 0.107418100670435 
381	 0.107298342668258 
382	 0.10710875440865 
383	 0.106958054708422 
384	 0.10705603578037 
385	 0.10599787858446 
386	 0.104389145274601 
387	 0.105282747853385 
388	 0.104799590062855 
389	 0.101997912547057 
390	 0.102377580781437 
391	 0.103652683433578 
392	 0.102686904069011 
393	 0.101889515143114 
394	 0.101625807674423 
395	 0.101381533784679 
396	 0.101762304458425 
397	 0.10257982995026 
398	 0.101567233238536 
399	 0.100411597871381 
400	 0.100885645240052 
401	 0.100279019900872 
402	 9.90356228091817E-02 
403	 9.95009533175247E-02 
404	 9.97140568167552E-02 
405	 9.90314237920696E-02 
406	 9.88422283143193E-02 
407	 9.88009025714448E-02 
408	 9.83483399422649E-02 
409	 9.73887496388091E-02 
410	 9.63517867145237E-02 
411	 9.64849875500509E-02 
412	 9.66167519461097E-02 
413	 9.62842031383081E-02 
414	 9.64595350389093E-02 
415	 0.096587093281298 
416	 0.095862188443539 
417	 9.54358407623517E-02 
418	 9.54628614170876E-02 
419	 9.56101279295669E-02 
420	 9.53269935015977E-02 
421	 9.44732879416805E-02 
422	 9.43894762335091E-02 
423	 9.46194544622629E-02 
424	 9.42745751156483E-02 
425	 9.41527041958622E-02 
426	 9.42718606052498E-02 
427	 9.39441154734571E-02 
428	 9.38015233540418E-02 
429	 9.41569645903347E-02 
430	 9.40567431200949E-02 
431	 9.35840148554656E-02 
432	 9.30913582076762E-02 
433	 9.28200811868061E-02 
434	 9.27535155314198E-02 
435	 9.24553182408388E-02 
436	 9.23633861776834E-02 
437	 9.27176172830435E-02 
438	 9.29296912485088E-02 
439	 9.29926022720206E-02 
440	 9.30761028696048E-02 
441	 9.30248744905479E-02 
442	 0.092836688103086 
443	 9.26320466715534E-02 
444	 9.26154657848374E-02 
445	 9.29327266896538E-02 
446	 9.33695867146695E-02 
447	 9.38049337615453E-02 
448	 9.40746838354683E-02 
449	 9.43622473786874E-02 
450	 9.46950070552823E-02 
451	 9.48873052507694E-02 
452	 9.50607605359309E-02 
453	 0.095341684528124 
454	 9.56135030341497E-02 
455	 9.58542133459371E-02 
456	 9.60666200155278E-02 
457	 9.62894024000649E-02 
458	 9.65030571267516E-02 
459	 9.65036755843191E-02 
460	 9.64646738882716E-02 
461	 9.66051078236628E-02 
462	 9.67318634580067E-02 
463	 9.68720561304082E-02 
464	 9.72298402672182E-02 
465	 0.097673856240755 
466	 9.80867365116548E-02 
467	 9.81834152131836E-02 
468	 9.82659798591518E-02 
469	 9.88178083093444E-02 
470	 9.90748610236223E-02 
471	 9.90172321366118E-02 
472	 9.93288563541508E-02 
473	 9.95872768890345E-02 
474	 9.96005307248845E-02 
475	 0.10014323599135 
476	 0.100822229584948 
477	 0.100782740308002 
478	 0.100762963763285 
479	 0.100949390303544 
480	 0.101201915055702 
481	 0.101229214396389 
482	 0.100856214899449 
483	 0.100850886779924 
484	 0.101213380391674 
485	 0.10162590831019 
486	 0.101987259542346 
487	 0.102137165457306 
488	 0.101641002253492 
489	 0.101258992371385 
490	 0.101733087943161 
491	 0.101991171664121 
492	 0.102066735590741 
493	 0.102693737191002 
494	 0.103123394504812 
495	 0.103109457179072 
496	 0.103251316613571 
497	 0.103671794961857 
498	 0.104447631216728 
499	 0.105187522862651 
500	 0.105828853350693 
501	 0.106619410032271 
502	 0.107210224387295 
503	 0.107443337547387 
504	 0.107790235645933 
505	 0.108437282955894 
506	 0.109578034103118 
507	 0.110663913707721 
508	 0.111523067098002 
509	 0.112229790290691 
510	 0.112915988359015 
511	 0.113710933977209 
512	 0.114827901652415 
513	 0.11612014587854 
514	 0.117211363247279 
515	 0.118054638993801 
516	 0.118695502346496 
517	 0.119527156200787 
518	 0.120571034343855 
519	 0.121776809122557 
520	 0.122531177388093 
521	 0.122980820430395 
522	 0.123872162804301 
523	 0.12483584886052 
524	 0.125753717185397 
525	 0.126907265532474 
526	 0.128130261284024 
527	 0.129135614056383 
528	 0.130459178391768 
529	 0.131960844621793 
530	 0.132760880928496 
531	 0.133442217347123 
532	 0.134400997338592 
533	 0.135376766817918 
534	 0.136402512769441 
535	 0.137608747491541 
536	 0.138783768927716 
537	 0.139884582699722 
538	 0.141086505504775 
539	 0.142185802750077 
540	 0.142994177635215 
541	 0.143899763707195 
542	 0.14489669511601 
543	 0.145763165305332 
544	 0.146573756161023 
545	 0.147425648913856 
546	 0.148691459282554 
547	 0.149988553816531 
548	 0.150782066487086 
549	 0.151535203315019 
550	 0.152363580600565 
551	 0.15322936822644 
552	 0.154130247056041 
553	 0.15505857955985 
554	 0.155989936149479 
555	 0.156900828275814 
556	 0.157776017527508 
557	 0.15848909854407 
558	 0.159024868002886 
559	 0.159514841172527 
560	 0.160050399579392 
561	 0.160697770247629 
562	 0.16126549663554 
563	 0.161729742272993 
564	 0.162142401209274 
565	 0.162455230599014 
566	 0.162691400354477 
567	 0.163102740932297 
568	 0.163484371165767 
569	 0.16355147958517 
570	 0.163696182254462 
571	 0.163919344630431 
572	 0.163862298197928 
573	 0.163817474552259 
574	 0.163969881498826 
575	 0.164265988206122 
576	 0.164522704861318 
577	 0.164412805894848 
578	 0.164431071419555 
579	 0.164687882176062 
580	 0.164900582931604 
581	 0.165088834175565 
582	 0.165280845285253 
583	 0.165508693155887 
584	 0.165742558267369 
585	 0.16591867105219 
586	 0.165931518256817 
587	 0.165800419909214 
588	 0.16594497490788 
589	 0.166152749299833 
590	 0.166094013632731 
591	 0.166202684589766 
592	 0.166455189093891 
593	 0.166408999181153 
594	 0.166487780728839 
595	 0.166886492030561 
596	 0.167029237164405 
597	 0.167070334635343 
598	 0.167432436571603 
599	 0.167623810301083 
600	 0.167532410406992 
601	 0.167380342558735 
602	 0.16723001020849 
603	 0.167128209013322 
604	 0.167027838922686 
605	 0.166842870808326 
606	 0.166398117967548 
607	 0.165802535042565 
608	 0.165168361517373 
609	 0.164884762430635 
610	 0.164535074024042 
611	 0.163564724486101 
612	 0.162981704253478 
613	 0.16282048688475 
614	 0.16231963807417 
615	 0.161761110522519 
616	 0.161310639999814 
617	 0.160890853140797 
618	 0.160446842598962 
619	 0.159870948237527 
620	 0.159547517223313 
621	 0.159475864140152 
622	 0.159095036643756 
623	 0.158766019150238 
624	 0.15881420582832 
625	 0.158854893991917 
626	 0.158820916605052 
627	 0.158724627930949 
628	 0.158739052900772 
629	 0.158877912993306 
630	 0.158783391866057 
631	 0.15851779891749 
632	 0.158204544799432 
633	 0.158218642140356 
634	 0.158518749471082 
635	 0.158655327077428 
636	 0.158707248593682 
637	 0.158726254147347 
638	 0.158794691841043 
639	 0.158896093756096 
640	 0.158994065917214 
641	 0.158824520807959 
642	 0.158520345182875 
643	 0.15900624242167 
644	 0.159565652974825 
645	 0.159565987811662 
646	 0.159687373994613 
647	 0.159788779952231 
648	 0.15917774858842 
649	 0.158554029211852 
650	 0.158156752232902 
651	 0.157555144036144 
652	 0.156817431246995 
653	 0.156050639828583 
654	 0.154979318443713 
655	 0.153590679797197 
656	 0.152405136871266 
657	 0.150682097651699 
658	 0.148220701737986 
659	 0.146223715098639 
660	 0.144454148323923 
661	 0.142353642748512 
662	 0.140135818871801 
663	 0.13781436789017 
664	 0.135137431411806 
665	 0.132828128998672 
666	 0.131428185056693 
667	 0.129862056127103 
668	 0.128065541427764 
669	 0.126318242756839 
670	 0.124935248880254 
671	 0.124026619889901 
672	 0.123314704892198 
673	 0.122781717340028 
674	 0.122430174608297 
675	 0.12240913017804 
676	 0.122635683063165 
677	 0.122736193614517 
678	 0.123116716454297 
679	 0.123989105238982 
680	 0.125121152347228 
681	 0.126531276243649 
682	 0.128293828221676 
683	 0.130262829883222 
684	 0.132514258470941 
685	 0.13560991323929 
686	 0.13936597747233 
687	 0.143560153720858 
688	 0.148060997483456 
689	 0.152517018210496 
690	 0.157258183687741 
691	 0.16205337245033 
692	 0.1671063502175 
693	 0.173180229348289 
694	 0.179345322025108 
695	 0.184368149585722 
696	 0.189482748081566 
697	 0.194754758005841 
698	 0.199908054407239 
699	 0.205105967701156 
700	 0.210238523026242 
701	 0.214756043324784 
702	 0.218957526705702 
703	 0.22337305092557 
704	 0.227575341946388 
705	 0.231402569129962 
706	 0.23442689770085 
707	 0.237309446031664 
708	 0.24048897607542 
709	 0.24373247639182 
710	 0.246839849058173 
711	 0.24951892968671 
712	 0.252085893606997 
713	 0.254608336071644 
714	 0.256975002720543 
715	 0.259232934256217 
716	 0.261553870920081 
717	 0.264083963523174 
718	 0.266638308254965 
719	 0.268147465686425 
720	 0.269527800103037 
721	 0.271089432096234 
722	 0.272732757358608 
723	 0.274448767150678 
724	 0.276089770613449 
725	 0.277189134065916 
726	 0.277905795791286 
727	 0.279343316345455 
728	 0.280895388707914 
729	 0.282217222191113 
730	 0.283221324735483 
731	 0.283980169383007 
732	 0.284628809733848 
733	 0.285013873350565 
734	 0.285261777611254 
735	 0.285726547075175 
736	 0.28651113261754 
737	 0.287601431631239 
738	 0.288408774122564 
739	 0.288999709317201 
740	 0.289676219812352 
741	 0.29026074333847 
742	 0.290731538807901 
743	 0.291150395475119 
744	 0.291761372110832 
745	 0.292721592023876 
746	 0.2933250650379 
747	 0.293607970409989 
748	 0.293968391078194 
749	 0.29436735023744 
750	 0.294842560158934 
751	 0.295537332819933 
752	 0.296236376642898 
753	 0.296708198004428 
754	 0.297122580104723 
755	 0.297474876564892 
756	 0.297661386453339 
757	 0.297664494157532 
758	 0.297656304493559 
759	 0.299101375062196 
760	 0.302476833745789 
761	 0.304694764854473 
762	 0.305645584656993 
763	 0.305646474319574 
764	 0.304949252529081 
765	 0.30466087537313 
766	 0.305015632238871 
767	 0.305059731451684 
768	 0.304917811536133 
769	 0.304777880730493 
770	 0.304927396238678 
771	 0.305334215559279 
772	 0.305553923483582 
773	 0.305856621351918 
774	 0.306396375981766 
775	 0.306818938875997 
776	 0.307335099266822 
777	 0.308480612953597 
778	 0.30884384141324 
779	 0.308365272942108 
780	 0.308716191953428 
781	 0.309413488629707 
782	 0.309988931541579 
783	 0.310074482400448 
784	 0.309936971090988 
785	 0.310275313910788 
786	 0.310711316230978 
787	 0.311181665583004 
788	 0.311948898640227 
789	 0.312670093921704 
790	 0.313019378019372 
791	 0.313262551031461 
792	 0.313465212390334 
793	 0.313695142678154 
794	 0.313580249027293 
795	 0.313284841705707 
796	 0.31435780239628 
797	 0.315342970964537 
798	 0.314799448947198 
799	 0.314857783038712 
800	 0.315542190760511 
801	 0.315747697936578 
802	 0.315929435807387 
803	 0.316225544337291 
804	 0.316542723158731 
805	 0.316766025211576 
806	 0.316811823658592 
807	 0.317310771995874 
808	 0.318266181547984 
809	 0.319345374312629 
810	 0.320168447178234 
811	 0.320564289800761 
812	 0.320824233378918 
813	 0.321281457384447 
814	 0.322322237371579 
815	 0.323656973579556 
816	 0.3248346958443 
817	 0.324801101581807 
818	 0.325004497348465 
819	 0.32597009566208 
820	 0.326661869019569 
821	 0.327163684949472 
822	 0.327645650151437 
823	 0.327868818120176 
824	 0.328040098883049 
825	 0.328973147831209 
826	 0.329388223594864 
827	 0.32898521363673 
828	 0.3294775654132 
829	 0.330137719944092 
830	 0.329914129522196 
831	 0.330167699509871 
832	 0.330815369487308 
833	 0.330786217187131 
834	 0.3306039139318 
835	 0.330493517325229 
836	 0.330392417463819 
837	 0.330350311447452 
838	 0.330408753856504 
839	 0.330095405924827 
840	 0.329702464953702 
841	 0.330346887860465 
842	 0.331012619883762 
843	 0.331183453105474 
844	 0.330693734528001 
845	 0.330279109010182 
846	 0.33071495197498 
847	 0.330199046454757 
848	 0.329183984681547 
849	 0.330189821540637 
850	 0.330587583597659 
851	 0.329480329268352 
852	 0.328408869734382 
853	 0.32806886704539 
854	 0.328962756998256 
855	 0.329378808162358 
856	 0.329160925856736 
857	 0.328938363702342 
858	 0.328442934628801 
859	 0.327754320833179 
860	 0.327409052908328 
861	 0.327796325132996 
862	 0.329104177620625 
863	 0.329162663713642 
864	 0.328415899735496 
865	 0.328867136255979 
866	 0.329853782951739 
867	 0.331034180675979 
868	 0.331924448531767 
869	 0.332223846852099 
870	 0.331874250655465 
871	 0.332375045192004 
872	 0.333765977792141 
873	 0.335674889666002 
874	 0.336833241986225 
875	 0.337146395199547 
876	 0.338192681017349 
877	 0.339260463830963 
878	 0.339865383470248 
879	 0.340293756554516 
880	 0.341571193936379 
881	 0.34526376643981 
882	 0.347103229692254 
883	 0.346669935263951 
884	 0.346783071048939 
885	 0.348152893424641 
886	 0.350856059580399 
887	 0.352107399145407 
888	 0.352430806422438 
889	 0.352985500365462 
890	 0.353988819562148 
891	 0.355086158573761 
892	 0.354504781881669 
893	 0.355831169550705 
894	 0.359952027990018 
895	 0.360731459669797 
896	 0.360464985500632 
897	 0.362370473954273 
898	 0.363688470645149 
899	 0.36425396557772 
900	 0.365215337415095 
901	 0.365186297203611 
902	 0.364517512213801 
903	 0.366774657873475 
904	 0.368436445871587 
905	 0.366960941942925 
906	 0.365916437106141 
907	 0.366241483790076 
908	 0.36860254135335 
909	 0.370141500487727 
910	 0.370337885004879 
911	 0.371071794695618 
912	 0.372156735738926 
913	 0.373088371638008 
914	 0.37100138436524 
915	 0.369565296686723 
916	 0.373149416873837 
917	 0.371954066644493 
918	 0.36784160048798 
919	 0.371458247790009 
920	 0.374503971327713 
921	 0.374304991921318 
922	 0.373448390157047 
923	 0.37192682747095 
924	 0.369956785356708 
925	 0.371026689848075 
926	 0.373322800956774 
927	 0.371375323979861 
928	 0.371374203966428 
929	 0.374538806401943 
930	 0.375612899687564 
931	 0.373336038172537 
932	 0.368055597430413 
933	 0.372384133650487 
934	 0.379068977058322 
935	 0.374842766503429 
936	 0.373622322594426 
937	 0.375987386277999 
938	 0.374447453905981 
939	 0.373141537014614 
940	 0.372925060200524 
941	 0.371843784349083 
942	 0.370809562377702 
943	 0.37031701827463 
944	 0.367760270333137 
945	 0.366989376062076 
946	 0.374293638423063 
947	 0.374643407870411 
948	 0.36810351452603 
949	 0.368041506084585 
950	 0.367953294079149 
951	 0.365653611311808 
952	 0.364690493019172 
953	 0.36478973327579 
954	 0.365033549824331 
955	 0.359613730861407 
956	 0.354303263071932 
957	 0.360849951245032 
958	 0.362722931467084 
959	 0.358557392832214 
960	 0.358738324849523 
961	 0.360166577509154 
962	 0.361010695428654 
963	 0.359576620065726 
964	 0.359478865725274 
965	 0.363702915857576 
966	 0.36242429804003 
967	 0.358343347743474 
968	 0.359869138324587 
969	 0.360141587321828 
970	 0.358744185946508 
971	 0.361589733775991 
972	 0.361816727874121 
973	 0.357282251755605 
974	 0.359924585026522 
975	 0.364555187383287 
976	 0.364394776537071 
977	 0.366398545690684 
978	 0.368535562572953 
979	 0.363694835130745 
980	 0.362812743897008 
981	 0.36679827231326 
982	 0.365943156173798 
983	 0.365661801224533 
984	 0.367909138725437 
985	 0.36504043080194 
986	 0.363150737842735 
987	 0.368494947170778 
988	 0.367965821082104 
989	 0.363530464222887 
990	 0.363739987122298 
991	 0.368983000003703 
992	 0.376275940527701 
993	 0.374204265938495 
994	 0.370243939747288 
995	 0.368141409542616 
996	 0.365713890274323 
997	 0.363777590823852 
998	 0.363361129237588 
999	 0.365795072204902 
1000	 0.369520934758455 
1001	 0.371412671257801 
1002	 0.372816035641225 
1003	 0.372742914104881 
1004	 0.366176677978776 
1005	 0.365493428366481 
1006	 0.373456205619925 
1007	 0.375309147087577 
1008	 0.373886544175967 
1009	 0.37234963138527 
1010	 0.372720891937647 
1011	 0.374960700616857 
1012	 0.378193144927164 
1013	 0.376572144366835 
1014	 0.372022920010294 
1015	 0.372376344332939 
1016	 0.370734883257094 
1017	 0.368407983528218 
1018	 0.380082142744164 
1019	 0.386018552812392 
1020	 0.377764603340156 
1021	 0.375520403571957 
1022	 0.376882226355697 
1023	 0.378206691501265 
1024	 0.38452302660044 
1025	 0.38919501941418 
1026	 0.381215206021754 
1027	 0.378948143128704 
1028	 0.383180669622628 
1029	 0.380740821972812 
1030	 0.381291483399577 
1031	 0.387366085136535 
1032	 0.396538209224484 
1033	 0.395127972189188 
1034	 0.379018473798834 
1035	 0.378863639413483 
1036	 0.385561495230487 
1037	 0.386299137786803 
1038	 0.391536413614661 
1039	 0.394329543442903 
1040	 0.380713475253209 
1041	 0.374793373139427 
1042	 0.383962740776928 
1043	 0.412942872642127 
1044	 0.414870143984923 
1045	 0.38513150295128 
1046	 0.379841980032509 
1047	 0.382572908922785 
1048	 0.383281776768128 
1049	 0.388252230261138 
1050	 0.397421232844224 
1051	 0.407448417153324 
1052	 0.382101717396827 
1053	 0.356873357083508 
1054	 0.391516067967714 
1055	 0.40633885877692 
1056	 0.394804272797031 
1057	 0.385191007511439 
1058	 0.377887183667762 
1059	 0.37886921767622 
1060	 0.402241615239204 
1061	 0.415716072743395 
1062	 0.404898806225759 
1063	 0.381675770723434 
1064	 0.367111232261298 
1065	 0.374695347487697 
1066	 0.376577776659609 
1067	 0.379057243091753 
1068	 0.390218741929809 
1069	 0.377048786891604 
1070	 0.359354239671797 
1071	 0.376360343007502 
1072	 0.389851745308858 
1073	 0.38997127597972 
1074	 0.379845693707922 
1075	 0.360106622677529 
