Wavelength	SHSI00085.asd
325	 0.101145394802794 
326	 9.99347905369579E-02 
327	 9.91501584718807E-02 
328	 0.10813465112639 
329	 0.111012029503983 
330	 0.104015077621492 
331	 9.80005549941169E-02 
332	 9.67459473219585E-02 
333	 0.102307506029815 
334	 0.102445965953276 
335	 9.94622911799788E-02 
336	 0.103929822888689 
337	 0.108674939502037 
338	 0.110777111124926 
339	 0.107585628922875 
340	 0.104425432619055 
341	 0.105576803185418 
342	 0.10697868091773 
343	 0.107812884694812 
344	 0.10805486731722 
345	 0.106187944313169 
346	 0.103238457210962 
347	 0.104320455284349 
348	 0.105857706621625 
349	 0.105424309380442 
350	 0.104296918804702 
351	 0.104388251240463 
352	 0.108437750333528 
353	 0.111375900608369 
354	 0.111981512652455 
355	 0.111342245659599 
356	 0.109850806881485 
357	 0.108127373265902 
358	 0.108580036090337 
359	 0.109941623293434 
360	 0.109861580543393 
361	 0.111031099126337 
362	 0.112797243473138 
363	 0.110859930405942 
364	 0.109644720634879 
365	 0.111032976004021 
366	 0.110726390432043 
367	 0.1093757922926 
368	 0.108387581027182 
369	 0.109643538989378 
370	 0.112152336099695 
371	 0.111243246352942 
372	 0.109761055866555 
373	 0.109223524925126 
374	 0.108812503134137 
375	 0.108118840020041 
376	 0.106701395426374 
377	 0.105359473625887 
378	 0.104681864811212 
379	 0.105938450033795 
380	 0.106347185099169 
381	 0.10483174180516 
382	 0.104570752140243 
383	 0.104670446442466 
384	 0.103588674971634 
385	 0.103342606710122 
386	 0.103720003964407 
387	 0.102447452577853 
388	 0.101858465596472 
389	 0.10271834013131 
390	 0.102904076598029 
391	 0.102776034798062 
392	 0.102968524276322 
393	 0.102726591597134 
394	 0.102058646038387 
395	 0.101439489868983 
396	 0.100806062184459 
397	 0.100239829625444 
398	 0.100307891719459 
399	 0.100142465970521 
400	 9.89028545843955E-02 
401	 9.82427525911216E-02 
402	 9.83546738846716E-02 
403	 9.91587967174599E-02 
404	 9.90254883316803E-02 
405	 0.09764989874865 
406	 9.78175798111541E-02 
407	 9.83689250305858E-02 
408	 9.76083950290813E-02 
409	 9.69025465868726E-02 
410	 9.65109133857107E-02 
411	 0.096253273474161 
412	 0.096071364510527 
413	 9.59186052768461E-02 
414	 9.58289785053464E-02 
415	 9.55433785860717E-02 
416	 9.47394240245679E-02 
417	 0.094407528447976 
418	 9.46114980157727E-02 
419	 9.47910148131777E-02 
420	 0.094851515097117 
421	 0.094746023512895 
422	 9.46712740762088E-02 
423	 9.45448391050308E-02 
424	 9.42115717036197E-02 
425	 9.39385507289419E-02 
426	 9.37459165176326E-02 
427	 9.33997546565697E-02 
428	 0.093194457111804 
429	 0.093323537794796 
430	 9.37699652293185E-02 
431	 9.39896838531096E-02 
432	 9.31289556269499E-02 
433	 9.23509556751803E-02 
434	 9.19801207606038E-02 
435	 9.17331316395624E-02 
436	 9.19199827348062E-02 
437	 9.26236225269949E-02 
438	 9.26708131877927E-02 
439	 9.24330973876096E-02 
440	 9.29624685124832E-02 
441	 9.30501472467695E-02 
442	 9.25481626973717E-02 
443	 9.23727680059721E-02 
444	 0.092483446392297 
445	 9.28235977904275E-02 
446	 9.34910559232044E-02 
447	 9.41730412134913E-02 
448	 9.42033262193364E-02 
449	 9.40675003820322E-02 
450	 9.39945314053477E-02 
451	 9.41816388957564E-02 
452	 9.44863286378118E-02 
453	 0.094763621501361 
454	 9.52748965042229E-02 
455	 9.58242373049124E-02 
456	 9.57558859309997E-02 
457	 9.57036283502864E-02 
458	 0.095912559602702 
459	 9.61478721165493E-02 
460	 9.62838767133133E-02 
461	 9.62019279953622E-02 
462	 9.61651868944159E-02 
463	 9.62914914026896E-02 
464	 9.67075161963432E-02 
465	 9.71919737005199E-02 
466	 9.76107931066216E-02 
467	 9.80031200978433E-02 
468	 9.82838927682722E-02 
469	 0.098334291444355 
470	 9.83570827303853E-02 
471	 9.85204940785806E-02 
472	 9.91714973616814E-02 
473	 0.099774947277505 
474	 9.99885517363027E-02 
475	 0.100072717839237 
476	 0.100136968891745 
477	 0.100285261468233 
478	 0.100683774032392 
479	 0.101185400687837 
480	 0.101063344007548 
481	 0.100619692567512 
482	 0.100180495404571 
483	 0.100352629904267 
484	 0.100925417611993 
485	 0.101173848591895 
486	 0.101101619821879 
487	 0.100798011337221 
488	 0.100833708083171 
489	 0.101148199593642 
490	 0.101604585879132 
491	 0.101747335355475 
492	 0.101677305518042 
493	 0.101935839444155 
494	 0.102146392443457 
495	 0.102271464043756 
496	 0.103096741147513 
497	 0.104004362775707 
498	 0.104126384106707 
499	 0.104664842521896 
500	 0.105686515433324 
501	 0.106438134926644 
502	 0.106795619209252 
503	 0.106794887847553 
504	 0.107332566990583 
505	 0.108301542101126 
506	 0.109311902431449 
507	 0.110413863045349 
508	 0.11147761880809 
509	 0.112036016677634 
510	 0.112588901904039 
511	 0.113531544131319 
512	 0.114499317044178 
513	 0.115471911395696 
514	 0.116577492165024 
515	 0.117478077289685 
516	 0.118163439771565 
517	 0.119294486825357 
518	 0.120549278910756 
519	 0.121517500191156 
520	 0.122122270317979 
521	 0.122683788940834 
522	 0.124143763585681 
523	 0.12541832637147 
524	 0.126083667994486 
525	 0.126838476586368 
526	 0.127816714054441 
527	 0.129085373651979 
528	 0.130305015178628 
529	 0.13134713299489 
530	 0.132182112910435 
531	 0.13306423737843 
532	 0.134173544668611 
533	 0.135436112775825 
534	 0.136678729291947 
535	 0.137590121387416 
536	 0.138496628131658 
537	 0.139555873082027 
538	 0.14096032643686 
539	 0.142249832553829 
540	 0.142991790974807 
541	 0.143739718504836 
542	 0.144603026627125 
543	 0.145547450960837 
544	 0.146521231854627 
545	 0.147533190136355 
546	 0.148799510593997 
547	 0.15002397666309 
548	 0.150804728169459 
549	 0.151524116986094 
550	 0.152339387414281 
551	 0.153437294195056 
552	 0.154435111452508 
553	 0.155113402906263 
554	 0.155847353748624 
555	 0.156666503648409 
556	 0.157530159372103 
557	 0.158323728610801 
558	 0.159028587486557 
559	 0.159821244052644 
560	 0.160413591318491 
561	 0.16058362958767 
562	 0.161056828214946 
563	 0.161766043067419 
564	 0.162175676757227 
565	 0.162450926039656 
566	 0.16268794334631 
567	 0.163123899732332 
568	 0.163564145526292 
569	 0.163735017047007 
570	 0.163724766913175 
571	 0.163657744074877 
572	 0.163871346543028 
573	 0.164027041234708 
574	 0.163942565249218 
575	 0.163894813598948 
576	 0.164028175224427 
577	 0.164557281100715 
578	 0.164739189743259 
579	 0.164513023314952 
580	 0.164784635926404 
581	 0.165107255344586 
582	 0.16507690142696 
583	 0.165061768161689 
584	 0.165136858047977 
585	 0.165324734314715 
586	 0.165501225081023 
587	 0.165603241039084 
588	 0.165595823143742 
589	 0.165666078398775 
590	 0.166049412415393 
591	 0.166303452391258 
592	 0.166351465187794 
593	 0.166326398656691 
594	 0.166407257421189 
595	 0.166677977416682 
596	 0.166858847052499 
597	 0.166931825932029 
598	 0.166936317149996 
599	 0.166948099302485 
600	 0.167007383700664 
601	 0.167173515162424 
602	 0.167210144807146 
603	 0.166940489441283 
604	 0.166932555407164 
605	 0.166962420082807 
606	 0.166163957323406 
607	 0.16542974027598 
608	 0.165111862747582 
609	 0.164966353558184 
610	 0.164701376755683 
611	 0.163986488202725 
612	 0.163149725505864 
613	 0.162378344086403 
614	 0.161964312087284 
615	 0.161554438911676 
616	 0.160960931298914 
617	 0.160560350051018 
618	 0.160246736913831 
619	 0.159733176599362 
620	 0.159398540254982 
621	 0.159256991728456 
622	 0.158843660447702 
623	 0.158502068466992 
624	 0.158543285034613 
625	 0.158650789413156 
626	 0.158714378034944 
627	 0.158649660225927 
628	 0.158468442245236 
629	 0.158205690819387 
630	 0.157995112547383 
631	 0.157942141481443 
632	 0.158148157187622 
633	 0.158157158201852 
634	 0.15796856983323 
635	 0.157968864521899 
636	 0.158046650673703 
637	 0.158149471965502 
638	 0.158415309871787 
639	 0.15863861012402 
640	 0.158431864779887 
641	 0.158181138268621 
642	 0.158124676515395 
643	 0.158673256812565 
644	 0.159215466072025 
645	 0.159210990589949 
646	 0.159080401605692 
647	 0.158850332194586 
648	 0.158374180088305 
649	 0.15790637797403 
650	 0.157539284268383 
651	 0.157082313079643 
652	 0.156580561525398 
653	 0.156091520581443 
654	 0.154812243371314 
655	 0.152918191661076 
656	 0.15209385596179 
657	 0.15085108108665 
658	 0.148510219137851 
659	 0.14648554973055 
660	 0.144619999554219 
661	 0.142442621907493 
662	 0.140027460762944 
663	 0.137508255800086 
664	 0.13533480101379 
665	 0.133273779318129 
666	 0.131140448823184 
667	 0.129292755033196 
668	 0.12770284195736 
669	 0.126110202339114 
670	 0.124816154773622 
671	 0.123864260213101 
672	 0.122842834807398 
673	 0.122027437290539 
674	 0.121751015587737 
675	 0.121645560021192 
676	 0.121745911077307 
677	 0.122432567228222 
678	 0.123310742175733 
679	 0.124168556720286 
680	 0.125173464771549 
681	 0.126397751677065 
682	 0.127908649750404 
683	 0.129885555662255 
684	 0.132313630284241 
685	 0.134968671213028 
686	 0.138244122752405 
687	 0.142464774918832 
688	 0.147297843748899 
689	 0.152138155037629 
690	 0.156924880632752 
691	 0.161796840989031 
692	 0.166984718386228 
693	 0.172731667294452 
694	 0.178701391529152 
695	 0.184259506380788 
696	 0.189451171469783 
697	 0.194372824388435 
698	 0.199493053876848 
699	 0.204656093427831 
700	 0.20966758934656 
701	 0.214319931198007 
702	 0.218819384533374 
703	 0.223518430932648 
704	 0.22784758632267 
705	 0.231700481725455 
706	 0.234979969369999 
707	 0.238149678507612 
708	 0.24148975679981 
709	 0.244598013856262 
710	 0.247432030994452 
711	 0.25003819446834 
712	 0.252384293965289 
713	 0.254565367285633 
714	 0.25703544736889 
715	 0.259499680925825 
716	 0.261783567352293 
717	 0.263938144352153 
718	 0.265973990747216 
719	 0.267571282273346 
720	 0.269271741084 
721	 0.271132829747239 
722	 0.272879158839807 
723	 0.274550855248939 
724	 0.276049704061798 
725	 0.277324834819206 
726	 0.278325245048098 
727	 0.279143627728837 
728	 0.28043693077918 
729	 0.282352184066505 
730	 0.283437504661051 
731	 0.283965834287501 
732	 0.284558068217228 
733	 0.285161169414875 
734	 0.285783827794768 
735	 0.286339103422001 
736	 0.286946730105805 
737	 0.28765549462176 
738	 0.28832133447613 
739	 0.288977510353425 
740	 0.289743800704404 
741	 0.290242382705625 
742	 0.290505003123154 
743	 0.291174356673288 
744	 0.291956180583673 
745	 0.292573476570303 
746	 0.292903524539573 
747	 0.29315706549082 
748	 0.293875789669733 
749	 0.294757503543628 
750	 0.295597687924189 
751	 0.295982223000357 
752	 0.296193192912033 
753	 0.296570618745378 
754	 0.297150801688147 
755	 0.297790508387825 
756	 0.298087467881646 
757	 0.298084266551026 
758	 0.29799654211454 
759	 0.299548802871172 
760	 0.303059357907496 
761	 0.304743169462694 
762	 0.305031231924775 
763	 0.304909709966397 
764	 0.305608164135611 
765	 0.305754902692654 
766	 0.305125037348763 
767	 0.304812792373228 
768	 0.304749538317427 
769	 0.304786845355393 
770	 0.304992881229857 
771	 0.305360399150303 
772	 0.305860591053246 
773	 0.306211411487311 
774	 0.306299726794463 
775	 0.306907738811518 
776	 0.307800438971585 
777	 0.30838589203939 
778	 0.308665153215783 
779	 0.308800612285943 
780	 0.309575091532049 
781	 0.310185908478924 
782	 0.310033784004046 
783	 0.30995094909818 
784	 0.310125426381943 
785	 0.310629678409379 
786	 0.311223768138203 
787	 0.311763953307496 
788	 0.312037881478213 
789	 0.312385564867422 
790	 0.313083442971909 
791	 0.313352920755951 
792	 0.313298686485842 
793	 0.313591441739615 
794	 0.313458129696853 
795	 0.312957347243154 
796	 0.313763077862628 
797	 0.314729122598933 
798	 0.31467261228125 
799	 0.315002932578447 
800	 0.315683809807343 
801	 0.315867466827958 
802	 0.316050664390396 
803	 0.316396189764805 
804	 0.316740284556648 
805	 0.316992259386314 
806	 0.317101796189282 
807	 0.317790949902838 
808	 0.31887067862055 
809	 0.319349653196465 
810	 0.319874639485183 
811	 0.320637154680891 
812	 0.320990706610039 
813	 0.321460930870907 
814	 0.322769063689029 
815	 0.323725612860162 
816	 0.324272693592243 
817	 0.325450097653396 
818	 0.325927277241897 
819	 0.325486395317581 
820	 0.326178183203609 
821	 0.327298557613457 
822	 0.32783478108133 
823	 0.328034756795618 
824	 0.328052187646336 
825	 0.328197215080041 
826	 0.328494368569867 
827	 0.328986014984196 
828	 0.329776206283978 
829	 0.330255228781542 
830	 0.329725738247594 
831	 0.329711820780477 
832	 0.330330560867029 
833	 0.330850387216008 
834	 0.331469854383872 
835	 0.331981460377271 
836	 0.330855414074247 
837	 0.329799238996628 
838	 0.330771751548829 
839	 0.331132776108303 
840	 0.33064978689693 
841	 0.330242825787235 
842	 0.330458690160803 
843	 0.331230876364258 
844	 0.330449606173929 
845	 0.329522709348802 
846	 0.330139299108256 
847	 0.32999887146792 
848	 0.329184858822894 
849	 0.329357117033651 
850	 0.329489091342777 
851	 0.329217266802385 
852	 0.328921094820114 
853	 0.328764064230247 
854	 0.328866788781439 
855	 0.328768936793219 
856	 0.328548060195403 
857	 0.328696720385011 
858	 0.328529701597412 
859	 0.327936972189124 
860	 0.327521293141072 
861	 0.327627586716801 
862	 0.328458745302082 
863	 0.328634507474065 
864	 0.328352243363013 
865	 0.328689773153659 
866	 0.329453025856924 
867	 0.33035792562529 
868	 0.330350835852886 
869	 0.330401806972027 
870	 0.331286995669376 
871	 0.332114620647692 
872	 0.332888929556066 
873	 0.333896174342958 
874	 0.334676407376428 
875	 0.335259166115779 
876	 0.336259087880732 
877	 0.337771542347781 
878	 0.339709474376187 
879	 0.340936855504934 
880	 0.341939385008228 
881	 0.343770159975232 
882	 0.344903806788813 
883	 0.345339537626403 
884	 0.346526906501122 
885	 0.347796895013119 
886	 0.34882064862376 
887	 0.350047002453862 
888	 0.351144177386505 
889	 0.351648053332229 
890	 0.352342837522621 
891	 0.353400402533736 
892	 0.354731877691791 
893	 0.355911197950527 
894	 0.356790716641478 
895	 0.358057404138502 
896	 0.359717766551259 
897	 0.361535750548474 
898	 0.361316915916217 
899	 0.36020093373265 
900	 0.362161925619257 
901	 0.364262882777382 
902	 0.365502179922401 
903	 0.366371843547307 
904	 0.366018799802679 
905	 0.364156154362453 
906	 0.364221852326768 
907	 0.366012543626411 
908	 0.368240438132937 
909	 0.369029526786176 
910	 0.368369865966751 
911	 0.368849727084368 
912	 0.370142730106644 
913	 0.371823145812296 
914	 0.372576922787284 
915	 0.372322278656466 
916	 0.371265024481033 
917	 0.370981840649926 
918	 0.371455294444082 
919	 0.371675519831301 
920	 0.37148774224922 
921	 0.370816312338111 
922	 0.369673123232824 
923	 0.369120035814314 
924	 0.370031633832339 
925	 0.370987772727033 
926	 0.371344767800366 
927	 0.370295896551839 
928	 0.368837664711702 
929	 0.36773789595796 
930	 0.368377611039995 
931	 0.3697649522054 
932	 0.370351915550391 
933	 0.365492826878763 
934	 0.361242683850407 
935	 0.366867102637996 
936	 0.367756965474948 
937	 0.36500295465772 
938	 0.371823486338225 
939	 0.373467345987668 
940	 0.368041013926759 
941	 0.369381477897023 
942	 0.369796280435955 
943	 0.364138987109397 
944	 0.36122233343592 
945	 0.362015022097016 
946	 0.365882140673396 
947	 0.365195657450993 
948	 0.360528987302521 
949	 0.360297311802548 
950	 0.363377111155096 
951	 0.367774124459247 
952	 0.36602753730081 
953	 0.362582799333171 
954	 0.361603569183993 
955	 0.358139749200493 
956	 0.3544283029897 
957	 0.355609469195707 
958	 0.355212771165011 
959	 0.352894216188894 
960	 0.352909716700383 
961	 0.35570616193018 
962	 0.359640628638673 
963	 0.355307614931375 
964	 0.350362374178636 
965	 0.352700132063394 
966	 0.355846765186376 
967	 0.357660253722672 
968	 0.356310609480248 
969	 0.353731221790322 
970	 0.351563985380668 
971	 0.352923062562063 
972	 0.355335717951885 
973	 0.357340208759754 
974	 0.359878531018372 
975	 0.361438507639706 
976	 0.360555546468075 
977	 0.362808077986016 
978	 0.365685238421144 
979	 0.361589983417924 
980	 0.35885058682421 
981	 0.359531070007106 
982	 0.361551206790973 
983	 0.361444339360888 
984	 0.358327687311637 
985	 0.359550177757544 
986	 0.361561491757104 
987	 0.360158287447157 
988	 0.360049111404965 
989	 0.360931186221062 
990	 0.360351542842725 
991	 0.362640169831251 
992	 0.366813051888011 
993	 0.364811935521136 
994	 0.362599424383572 
995	 0.363152164394834 
996	 0.364765500260494 
997	 0.365989092802279 
998	 0.365666516949065 
999	 0.366098323150537 
1000	 0.367007751569446 
1001	 0.367280650767512 
1002	 0.364140883820661 
1003	 0.359652796341442 
1004	 0.362305956608401 
1005	 0.366436858398948 
1006	 0.368796647402996 
1007	 0.366873706588026 
1008	 0.363713538336877 
1009	 0.362266223221397 
1010	 0.364461575974279 
1011	 0.367968384743229 
1012	 0.369211072834028 
1013	 0.370002464114441 
1014	 0.369974147731984 
1015	 0.36746042420598 
1016	 0.364216545066507 
1017	 0.362911261685629 
1018	 0.3708679322748 
1019	 0.377859872113712 
1020	 0.37808370169673 
1021	 0.375350997944109 
1022	 0.371904570856347 
1023	 0.3701945059863 
1024	 0.374835895141013 
1025	 0.378932668554006 
1026	 0.370674031590854 
1027	 0.366595909452868 
1028	 0.370106506474235 
1029	 0.378016256294467 
1030	 0.38195610065314 
1031	 0.380163772970452 
1032	 0.382132873127931 
1033	 0.381806713641921 
1034	 0.376383689281156 
1035	 0.373481287750618 
1036	 0.374115571814548 
1037	 0.377889656947342 
1038	 0.378567702751905 
1039	 0.374735432532499 
1040	 0.366407962653746 
1041	 0.361253452120167 
1042	 0.361347370870561 
1043	 0.365748310465318 
1044	 0.369739972240066 
1045	 0.373391709878933 
1046	 0.387498582450953 
1047	 0.384389360460161 
1048	 0.356482890214176 
1049	 0.362424036161428 
1050	 0.379953481807109 
1051	 0.382019047458269 
1052	 0.359561492453044 
1053	 0.340639285966393 
1054	 0.367685006776817 
1055	 0.367980093617793 
1056	 0.344672088861496 
1057	 0.34356024541145 
1058	 0.341501956586903 
1059	 0.338832872153567 
1060	 0.358405205292957 
1061	 0.384143396644683 
1062	 0.399067949428298 
1063	 0.364186409464057 
1064	 0.338700411210955 
1065	 0.361158188962077 
1066	 0.354288405457429 
1067	 0.338426785781648 
1068	 0.340636894759101 
1069	 0.330056106293322 
1070	 0.323810129680422 
1071	 0.355152775719366 
1072	 0.358072823632111 
1073	 0.331768162370909 
1074	 0.315063127700703 
1075	 0.324753994936515 
