Wavelength	SHSI00103.asd
325	 2.69679023050269E-02 
326	 2.81134610172153E-02 
327	 4.04283267720035E-02 
328	 4.86628950315145E-02 
329	 4.14169438320319E-02 
330	 0.022788437499011 
331	 3.51223959790526E-02 
332	 5.23983854446332E-02 
333	 4.80084333144958E-02 
334	 0.04265233122023 
335	 3.83081573226038E-02 
336	 2.92513408489827E-02 
337	 3.02347383370146E-02 
338	 4.08205017346945E-02 
339	 0.037223165860771 
340	 3.17402185375652E-02 
341	 3.47269667082873E-02 
342	 3.43209119856166E-02 
343	 3.33978528618867E-02 
344	 4.11833470797693E-02 
345	 4.46094613102971E-02 
346	 4.13809121209128E-02 
347	 3.72955528934308E-02 
348	 3.32375763541801E-02 
349	 3.02036769025671E-02 
350	 3.27373143177068E-02 
351	 3.71501747359157E-02 
352	 3.70781900409064E-02 
353	 3.79800531609519E-02 
354	 4.00005597903282E-02 
355	 3.89827329238659E-02 
356	 3.74845121853122E-02 
357	 3.70430594175944E-02 
358	 3.61735524788842E-02 
359	 3.54779324093593E-02 
360	 3.60949305994741E-02 
361	 0.036641986366067 
362	 3.64037009720692E-02 
363	 3.39568470570736E-02 
364	 3.33218387364679E-02 
365	 3.60456508777787E-02 
366	 3.73895898255696E-02 
367	 3.65616098661465E-02 
368	 3.32145223681525E-02 
369	 3.30584893921638E-02 
370	 3.56320645056728E-02 
371	 3.46212962535254E-02 
372	 0.033179623958971 
373	 3.31409031647706E-02 
374	 3.51392928025684E-02 
375	 3.65384230305115E-02 
376	 0.033808460373743 
377	 3.20988367481802E-02 
378	 0.032375584447231 
379	 3.31580237179419E-02 
380	 3.42149722683039E-02 
381	 3.47997628193211E-02 
382	 3.17309788440349E-02 
383	 2.82649002606492E-02 
384	 2.89564135066443E-02 
385	 3.11697065664377E-02 
386	 3.33488751305989E-02 
387	 3.32037793310785E-02 
388	 3.14957968282968E-02 
389	 2.94936454396418E-02 
390	 3.22149798861263E-02 
391	 3.49543871171495E-02 
392	 3.21418621048902E-02 
393	 0.030810995712553 
394	 3.16269487119554E-02 
395	 3.18405572388471E-02 
396	 3.20750076493615E-02 
397	 3.24075435103774E-02 
398	 0.032111018080067 
399	 3.16612969251884E-02 
400	 3.15806174555963E-02 
401	 0.031494889747863 
402	 3.13115769532082E-02 
403	 3.08856161100429E-02 
404	 3.08525506088511E-02 
405	 3.13222751965581E-02 
406	 3.11762985508296E-02 
407	 3.11100952743157E-02 
408	 3.20664172227026E-02 
409	 3.23265977494338E-02 
410	 3.17160983483733E-02 
411	 3.07947921195745E-02 
412	 0.030535572184217 
413	 3.11048572256743E-02 
414	 3.01002807198629E-02 
415	 2.91233521198019E-02 
416	 3.04758403622717E-02 
417	 3.16015746923966E-02 
418	 3.19064636895183E-02 
419	 3.17103828720001E-02 
420	 3.08417120521697E-02 
421	 2.94928268677583E-02 
422	 2.94194212870628E-02 
423	 2.99936354605167E-02 
424	 3.00013290857702E-02 
425	 3.02132739503832E-02 
426	 3.05131207378714E-02 
427	 0.029759995428766 
428	 2.95502140751869E-02 
429	 0.030754474832773 
430	 3.15387835151962E-02 
431	 3.15700959431307E-02 
432	 3.07389560384606E-02 
433	 3.02677364461661E-02 
434	 3.03952257648658E-02 
435	 3.04798541903449E-02 
436	 3.05837900767755E-02 
437	 3.06923222999445E-02 
438	 3.01986974639677E-02 
439	 2.96762374328086E-02 
440	 3.03182851874778E-02 
441	 3.10063953666438E-02 
442	 3.13649580307062E-02 
443	 3.15192097595264E-02 
444	 3.11912986295065E-02 
445	 3.02955499663359E-02 
446	 3.04497416880575E-02 
447	 3.12203354628341E-02 
448	 3.10310165925969E-02 
449	 3.08050709543028E-02 
450	 3.07909389424821E-02 
451	 0.030705351594479 
452	 3.06437334963409E-02 
453	 3.06992717927748E-02 
454	 3.05479950698622E-02 
455	 3.04201280286536E-02 
456	 3.12009361384778E-02 
457	 3.15966642642438E-02 
458	 3.11371923620335E-02 
459	 3.05697832544371E-02 
460	 3.02424627116583E-02 
461	 3.04715186496714E-02 
462	 3.09299007047635E-02 
463	 3.12471089469424E-02 
464	 3.04786815098378E-02 
465	 3.03962000505018E-02 
466	 3.15598224148975E-02 
467	 3.07689027645106E-02 
468	 2.94863383006527E-02 
469	 3.03586438220923E-02 
470	 3.09762930350314E-02 
471	 3.10116007520836E-02 
472	 3.17625450703902E-02 
473	 3.20059850463212E-02 
474	 3.10963183853037E-02 
475	 3.04875212158987E-02 
476	 3.03288043493095E-02 
477	 3.04665549860826E-02 
478	 3.09554456103242E-02 
479	 3.15546254614732E-02 
480	 3.14123033042396E-02 
481	 3.10453145218651E-02 
482	 3.09265940850176E-02 
483	 3.12551979469179E-02 
484	 3.17760359308389E-02 
485	 3.17912030262653E-02 
486	 3.17914480287317E-02 
487	 3.19077858518895E-02 
488	 0.031917135848636 
489	 3.17609288226812E-02 
490	 3.14353301745449E-02 
491	 3.17328969121654E-02 
492	 3.23823243466165E-02 
493	 3.23243024403236E-02 
494	 3.17386950437302E-02 
495	 0.030964052294945 
496	 3.16249419444731E-02 
497	 3.25743950250536E-02 
498	 3.21552623842029E-02 
499	 3.17551885484961E-02 
500	 3.16889964422656E-02 
501	 3.17979214507785E-02 
502	 3.19247019423715E-02 
503	 3.19871946434477E-02 
504	 3.22847336184268E-02 
505	 3.24545424173218E-02 
506	 3.17832815066544E-02 
507	 3.19578785702368E-02 
508	 3.30513104391032E-02 
509	 3.34016572056033E-02 
510	 3.30515110800434E-02 
511	 3.21968212532269E-02 
512	 3.22731528340808E-02 
513	 3.29966212368924E-02 
514	 3.31644571983529E-02 
515	 3.28899918838411E-02 
516	 3.24131233214718E-02 
517	 3.30422638719472E-02 
518	 3.37073388335587E-02 
519	 3.32201803758758E-02 
520	 3.37308828828017E-02 
521	 3.48092212259664E-02 
522	 3.40470613434326E-02 
523	 3.35288011517787E-02 
524	 3.41321474933721E-02 
525	 3.49423338516755E-02 
526	 3.53632247560787E-02 
527	 3.47009739624772E-02 
528	 3.44310468115664E-02 
529	 3.47763553705267E-02 
530	 3.49929653252878E-02 
531	 3.51304749896767E-02 
532	 0.035238840552059 
533	 3.54978886517569E-02 
534	 3.58132236531987E-02 
535	 3.59550853314668E-02 
536	 3.60306365527827E-02 
537	 3.61091475680805E-02 
538	 0.036421458619019 
539	 3.64423286300224E-02 
540	 3.57354479219991E-02 
541	 3.59024405456285E-02 
542	 3.66931163549215E-02 
543	 3.65843031198239E-02 
544	 3.63344161487274E-02 
545	 3.62413956362341E-02 
546	 3.61124497141016E-02 
547	 3.61915834751387E-02 
548	 3.68003415745326E-02 
549	 0.037150360896096 
550	 3.71528362242176E-02 
551	 3.73109573533439E-02 
552	 3.73069302469286E-02 
553	 3.70167762172746E-02 
554	 3.71338396978609E-02 
555	 3.74639926619135E-02 
556	 3.74578740784785E-02 
557	 3.74945735055515E-02 
558	 3.76785351485008E-02 
559	 3.79281072152607E-02 
560	 3.82084491125341E-02 
561	 3.84622460732693E-02 
562	 3.83196188551022E-02 
563	 3.79383610168411E-02 
564	 3.78410814580761E-02 
565	 3.80687724977618E-02 
566	 3.85079801617064E-02 
567	 3.82790507716146E-02 
568	 3.78045636701162E-02 
569	 3.77288392843038E-02 
570	 0.037923725815971 
571	 3.81913919370612E-02 
572	 0.03793485137837 
573	 3.77539914219813E-02 
574	 3.79569031586863E-02 
575	 3.78170510955076E-02 
576	 3.75442670067816E-02 
577	 3.76746019899818E-02 
578	 3.81169195192479E-02 
579	 3.87248640382127E-02 
580	 0.039089310859789 
581	 3.90000445322121E-02 
582	 3.83738677379575E-02 
583	 3.83692784049861E-02 
584	 3.88140309476551E-02 
585	 3.86412344162848E-02 
586	 3.85801738782883E-02 
587	 3.88841071991249E-02 
588	 0.039355798474392 
589	 3.94936402711257E-02 
590	 3.86897313141381E-02 
591	 3.86229216529346E-02 
592	 3.92727287709446E-02 
593	 3.90818647170311E-02 
594	 3.90178030494744E-02 
595	 3.95298798686972E-02 
596	 3.94581726885893E-02 
597	 3.90993730512874E-02 
598	 3.92299092044683E-02 
599	 3.94143518613263E-02 
600	 3.94986070060985E-02 
601	 3.93115980979772E-02 
602	 3.93801203418786E-02 
603	 4.00991647527493E-02 
604	 4.03315589973897E-02 
605	 4.01814789289763E-02 
606	 4.06115687245736E-02 
607	 4.01678963649422E-02 
608	 3.87491318392772E-02 
609	 3.94396008414259E-02 
610	 4.06604445632212E-02 
611	 4.01008789725039E-02 
612	 3.97921089868753E-02 
613	 4.00637585175883E-02 
614	 4.03318072681562E-02 
615	 4.05331726109028E-02 
616	 4.06404160671514E-02 
617	 4.09503242967912E-02 
618	 4.11969214840609E-02 
619	 4.08385137070909E-02 
620	 4.06926869988293E-02 
621	 4.09246033034397E-02 
622	 0.041054697337593 
623	 4.11854879964656E-02 
624	 4.13826079311775E-02 
625	 4.10227059227079E-02 
626	 4.04937914330631E-02 
627	 4.10911635436257E-02 
628	 4.17502411606991E-02 
629	 4.19758902209587E-02 
630	 4.16364395423221E-02 
631	 4.12354091858876E-02 
632	 4.14045732903944E-02 
633	 4.20155390141752E-02 
634	 4.27344487027883E-02 
635	 4.26456084328272E-02 
636	 4.23707777466957E-02 
637	 4.23244870407279E-02 
638	 4.26842657745762E-02 
639	 4.29355539505527E-02 
640	 4.20623846220708E-02 
641	 4.18699387976793E-02 
642	 4.26676282836897E-02 
643	 4.32388350950972E-02 
644	 4.30532772124173E-02 
645	 4.18238377782196E-02 
646	 4.18265602517307E-02 
647	 4.27467164443313E-02 
648	 4.25641261243091E-02 
649	 4.20013860983828E-02 
650	 4.15173128836191E-02 
651	 4.21818119743831E-02 
652	 4.29800092483796E-02 
653	 4.26245084571156E-02 
654	 4.26596426705495E-02 
655	 4.30981474683678E-02 
656	 4.26135654755107E-02 
657	 4.20928302946228E-02 
658	 4.20971938724463E-02 
659	 4.23639702115492E-02 
660	 4.26894419325129E-02 
661	 4.28331565977553E-02 
662	 4.26504220084328E-02 
663	 4.23093995755836E-02 
664	 4.27250175981053E-02 
665	 4.30998184759679E-02 
666	 4.27830101809351E-02 
667	 0.042583901412045 
668	 0.042496790406051 
669	 4.21280534729707E-02 
670	 4.17722544208212E-02 
671	 0.041625819074764 
672	 4.20340633356257E-02 
673	 4.26690395056125E-02 
674	 4.31254318467571E-02 
675	 4.35813644879448E-02 
676	 4.37893787149205E-02 
677	 4.27981614496915E-02 
678	 4.23416094671186E-02 
679	 4.32651998883682E-02 
680	 4.42063540214645E-02 
681	 0.044757658748416 
682	 4.45525625973342E-02 
683	 4.47162932381972E-02 
684	 4.53574828157007E-02 
685	 4.53687732369693E-02 
686	 4.56672324875999E-02 
687	 4.70466650563858E-02 
688	 4.82222833606096E-02 
689	 4.90068903017923E-02 
690	 4.98876003436568E-02 
691	 5.07736027734797E-02 
692	 0.051482390234732 
693	 5.08822970655859E-02 
694	 5.09114018206216E-02 
695	 0.053472549914768 
696	 5.47343011926024E-02 
697	 5.49077992422549E-02 
698	 5.69485518991359E-02 
699	 5.81837970735827E-02 
700	 5.76944223619383E-02 
701	 5.86132548918157E-02 
702	 6.01657144845365E-02 
703	 6.08173290210786E-02 
704	 6.15279399778597E-02 
705	 6.23534248306234E-02 
706	 0.062678025982866 
707	 6.30009675309315E-02 
708	 6.36892655779719E-02 
709	 6.49203198459354E-02 
710	 6.62689676563385E-02 
711	 6.69639381410348E-02 
712	 6.73298198141741E-02 
713	 6.74972905226135E-02 
714	 6.75187276992529E-02 
715	 6.78845419854121E-02 
716	 6.90680844575588E-02 
717	 7.01403076532699E-02 
718	 7.10305992749208E-02 
719	 0.072128019575657 
720	 7.31592630206856E-02 
721	 7.37758027126763E-02 
722	 7.30244725174998E-02 
723	 7.23485621224145E-02 
724	 7.34095698703756E-02 
725	 7.39558692859207E-02 
726	 7.40017347810993E-02 
727	 7.54724308816762E-02 
728	 7.69954111018669E-02 
729	 7.77825581971799E-02 
730	 7.76069242154028E-02 
731	 0.077236965377207 
732	 7.77117688882252E-02 
733	 7.84985362538581E-02 
734	 7.92224033857622E-02 
735	 7.89291911147481E-02 
736	 7.90787999374431E-02 
737	 8.04977702120888E-02 
738	 8.13938180955573E-02 
739	 8.16639452408695E-02 
740	 8.15981296853038E-02 
741	 8.16471260348719E-02 
742	 8.20732119293611E-02 
743	 8.32123725716484E-02 
744	 8.40498142970437E-02 
745	 8.38468199806764E-02 
746	 8.44978444978488E-02 
747	 0.085666206279169 
748	 8.57202031602062E-02 
749	 8.59005138981796E-02 
750	 8.65946007685689E-02 
751	 8.74168297152657E-02 
752	 8.80506654008783E-02 
753	 8.82154672130284E-02 
754	 8.84050873907495E-02 
755	 8.88212448595146E-02 
756	 8.97820446433336E-02 
757	 9.03176193068226E-02 
758	 9.01097273567598E-02 
759	 9.06071549432924E-02 
760	 9.17355340773292E-02 
761	 9.14161668993835E-02 
762	 9.22127747556308E-02 
763	 9.38519742789583E-02 
764	 9.41849402470372E-02 
765	 9.41437904920194E-02 
766	 9.41686539138529E-02 
767	 9.45247014710661E-02 
768	 0.094980458751998 
769	 9.52611636737605E-02 
770	 9.55601313361736E-02 
771	 9.60810203100375E-02 
772	 9.74555593664265E-02 
773	 9.85342851022561E-02 
774	 9.86116713346115E-02 
775	 0.098788740527477 
776	 9.91003313344451E-02 
777	 9.92807719845229E-02 
778	 9.98222957520417E-02 
779	 0.100645020685276 
780	 0.100790693007629 
781	 0.100876055556476 
782	 0.101422103752184 
783	 0.102335662994185 
784	 0.103223649592941 
785	 0.103279161245583 
786	 0.103451112725039 
787	 0.103998715205943 
788	 0.104429159814348 
789	 0.104868439286252 
790	 0.1054821722059 
791	 0.106806511641383 
792	 0.108137630435257 
793	 0.107509830211943 
794	 0.107249071517813 
795	 0.108095702491484 
796	 0.109179336728988 
797	 0.10969907739493 
798	 0.109024119962554 
799	 0.109276356146273 
800	 0.110307501295821 
801	 0.110413403488718 
802	 0.11095334648948 
803	 0.112246750075227 
804	 0.113163890317689 
805	 0.113738979009858 
806	 0.114130686749077 
807	 0.114842616145695 
808	 0.115910348843183 
809	 0.117263558407116 
810	 0.117564314338039 
811	 0.116465834083254 
812	 0.116055593236089 
813	 0.116583604717669 
814	 0.118084288608014 
815	 0.119104274350192 
816	 0.119575611833128 
817	 0.120916755839088 
818	 0.121647982658069 
819	 0.121520126778089 
820	 0.122873433709838 
821	 0.124229542695758 
822	 0.123695884274738 
823	 0.124088679796814 
824	 0.125135657889491 
825	 0.124095606188335 
826	 0.123832867365473 
827	 0.12536962174979 
828	 0.127012536409158 
829	 0.127904167004308 
830	 0.127305265718165 
831	 0.128557219807081 
832	 0.131132819284754 
833	 0.13147824701471 
834	 0.131224863872711 
835	 0.131111018872842 
836	 0.13114705171165 
837	 0.131606373280684 
838	 0.13273424220408 
839	 0.133712221695117 
840	 0.134409227733312 
841	 0.135049895220419 
842	 0.135665957689411 
843	 0.136136872031329 
844	 0.135459417157186 
845	 0.135409263709832 
846	 0.13789732531074 
847	 0.139348769239396 
848	 0.139460719819601 
849	 0.13974761752338 
850	 0.139732486113207 
851	 0.139576202292648 
852	 0.140839305472469 
853	 0.14242862135063 
854	 0.143054128318024 
855	 0.143157672571045 
856	 0.143168554375338 
857	 0.143889383113651 
858	 0.144857573252487 
859	 0.145891349685953 
860	 0.147011560136945 
861	 0.14764358310673 
862	 0.147324169842849 
863	 0.147349220666372 
864	 0.147660144652668 
865	 0.147296063990937 
866	 0.148503522122784 
867	 0.15113277028873 
868	 0.150768787083336 
869	 0.150319588773247 
870	 0.152210787588435 
871	 0.15477250796855 
872	 0.156522321582277 
873	 0.155063609580152 
874	 0.154645782605869 
875	 0.156192784856151 
876	 0.157609407846778 
877	 0.158130772569519 
878	 0.157421008879365 
879	 0.157418945597137 
880	 0.158250191477731 
881	 0.159609222695915 
882	 0.161235239079886 
883	 0.162706208021579 
884	 0.163157307051295 
885	 0.163298697412293 
886	 0.163451047186033 
887	 0.16245615661208 
888	 0.162258787574283 
889	 0.165447919000155 
890	 0.166865959757095 
891	 0.166319393355193 
892	 0.167443379046584 
893	 0.168311878455334 
894	 0.168291552071051 
895	 0.168997390604506 
896	 0.170062022126813 
897	 0.170890275496484 
898	 0.171959188900203 
899	 0.173184541036384 
900	 0.174386430716094 
901	 0.174327005992061 
902	 0.173154611219655 
903	 0.173300597606235 
904	 0.174145659394586 
905	 0.175068803015341 
906	 0.175692633196494 
907	 0.176248688615497 
908	 0.177399647873128 
909	 0.175444250935869 
910	 0.171344148542548 
911	 0.172485641490694 
912	 0.175994221384168 
913	 0.179574086066456 
914	 0.180873433889611 
915	 0.18089844063831 
916	 0.181276217505549 
917	 0.180514160076931 
918	 0.18043292222866 
919	 0.187199327112588 
920	 0.189758736484889 
921	 0.185649114723381 
922	 0.183554809792686 
923	 0.183657483501188 
924	 0.185760214463823 
925	 0.189664114950824 
926	 0.191727417699805 
927	 0.183992083712724 
928	 0.182155702078974 
929	 0.189502199635612 
930	 0.189134614274528 
931	 0.187066483061907 
932	 0.188188039763069 
933	 0.190076506192362 
934	 0.190394272918943 
935	 0.186568937288535 
936	 0.189865188453173 
937	 0.197198735118708 
938	 0.194084070947494 
939	 0.184453217739777 
940	 0.174986776100999 
941	 0.189554853560216 
942	 0.19992213890115 
943	 0.188108620940354 
944	 0.186020151053074 
945	 0.186719349712197 
946	 0.172511572448091 
947	 0.169249595824536 
948	 0.180292048326133 
949	 0.193441162582231 
950	 0.200144616449268 
951	 0.197049560120274 
952	 0.186937048156536 
953	 0.182160426526665 
954	 0.192456353863132 
955	 0.19304766830207 
956	 0.189815621057862 
957	 0.200231675815973 
958	 0.206701496402417 
959	 0.204851974249222 
960	 0.196879361229082 
961	 0.191405401712744 
962	 0.192512405842914 
963	 0.197021947033246 
964	 0.20139923617495 
965	 0.202523262408888 
966	 0.199800226228565 
967	 0.194634703643048 
968	 0.1886993576852 
969	 0.192164344362127 
970	 0.202172036715524 
971	 0.197341455559405 
972	 0.196569765974956 
973	 0.207646249867767 
974	 0.208975992181518 
975	 0.204848691524032 
976	 0.202400450976375 
977	 0.200016025875625 
978	 0.200288088927517 
979	 0.209514930049536 
980	 0.207482571510986 
981	 0.194532471393529 
982	 0.19613711832934 
983	 0.20229309608858 
984	 0.207453157048787 
985	 0.213659109843365 
986	 0.216226208053542 
987	 0.211064617477494 
988	 0.207610156990252 
989	 0.206073130803106 
990	 0.202723326257555 
991	 0.203157850458463 
992	 0.209123172482684 
993	 0.223543964793164 
994	 0.224403318065644 
995	 0.205906352048914 
996	 0.210833062226743 
997	 0.216879529111731 
998	 0.202793595574753 
999	 0.212327045996464 
1000	 0.229804246848638 
1001	 0.217312504109919 
1002	 0.21483177564993 
1003	 0.223071927557719 
1004	 0.208733223269258 
1005	 0.196430925435091 
1006	 0.197355900719351 
1007	 0.210655516912939 
1008	 0.222148568499452 
1009	 0.220771469515635 
1010	 0.218512583625927 
1011	 0.218300232013007 
1012	 0.221488206904457 
1013	 0.223203196540198 
1014	 0.220596911464181 
1015	 0.207962525712803 
1016	 0.213300933952961 
1017	 0.236033926010348 
1018	 0.239484003734685 
1019	 0.23393221627797 
1020	 0.227942568839689 
1021	 0.239500207547258 
1022	 0.242811451320568 
1023	 0.216350339865944 
1024	 0.214035894696968 
1025	 0.224006279147392 
1026	 0.210185348335202 
1027	 0.218355751908178 
1028	 0.242006142165914 
1029	 0.227649905612492 
1030	 0.226800596329154 
1031	 0.244953295951623 
1032	 0.222792818345604 
1033	 0.204959201224239 
1034	 0.219069213061952 
1035	 0.233627138390979 
1036	 0.243016578491863 
1037	 0.244063302715438 
1038	 0.251595814496574 
1039	 0.252190747827006 
1040	 0.2181239142247 
1041	 0.205249625634773 
1042	 0.217962764049787 
1043	 0.216607235462301 
1044	 0.207286670957409 
1045	 0.195156555459569 
1046	 0.200065356958589 
1047	 0.201539636474721 
1048	 0.191138044317632 
1049	 0.195822163769866 
1050	 0.208524505626711 
1051	 0.218787303339532 
1052	 0.209442137664094 
1053	 0.197003849178936 
1054	 0.21242516335278 
1055	 0.208542667883017 
1056	 0.185445845469301 
1057	 0.165113841055326 
1058	 0.185165558060363 
1059	 0.236309954916261 
1060	 0.250869252652514 
1061	 0.229024264836177 
1062	 0.182862641448521 
1063	 0.204784821308548 
1064	 0.220151220341905 
1065	 0.189221599154262 
1066	 0.233131054160507 
1067	 0.269282839243802 
1068	 0.205421914830284 
1069	 0.192510211639928 
1070	 0.220247576527419 
1071	 0.225266758173758 
1072	 0.196548643527379 
1073	 0.147321506445479 
1074	 0.163585428899301 
1075	 0.161232700705575 
