Wavelength	SHSI00275.asd
325	 7.73037795823271E-02 
326	 7.59023648198595E-02 
327	 7.30512610142687E-02 
328	 7.20292844817989E-02 
329	 7.45877826649227E-02 
330	 7.95714337817489E-02 
331	 7.77963936962931E-02 
332	 7.46133250082952E-02 
333	 7.53900813217259E-02 
334	 7.61107368355085E-02 
335	 7.62197124275048E-02 
336	 7.63406986476018E-02 
337	 7.50513287952043E-02 
338	 0.072553335195968 
339	 7.08785139896889E-02 
340	 7.27402642449319E-02 
341	 7.92485731220264E-02 
342	 7.95834402780331E-02 
343	 7.77189772232796E-02 
344	 8.48648622533537E-02 
345	 0.086283359088607 
346	 8.13231043057285E-02 
347	 0.082977878799614 
348	 0.084954747757204 
349	 8.32473577135378E-02 
350	 8.29974561006997E-02 
351	 8.38021137834956E-02 
352	 8.43231201907848E-02 
353	 8.06363538946091E-02 
354	 7.49384040360022E-02 
355	 7.87469313695442E-02 
356	 8.33858536124873E-02 
357	 8.36297354662787E-02 
358	 8.44481571668787E-02 
359	 8.49074550069006E-02 
360	 0.08281856181467 
361	 8.16175038186527E-02 
362	 0.081860914048446 
363	 8.23259751905795E-02 
364	 8.21935622264132E-02 
365	 8.12867747859297E-02 
366	 8.12736488571084E-02 
367	 8.27229303038688E-02 
368	 0.086140922675487 
369	 8.76389112757756E-02 
370	 8.67820303241827E-02 
371	 0.084960777050401 
372	 8.65973780064302E-02 
373	 0.092712584175004 
374	 9.28841570186997E-02 
375	 8.82179723756991E-02 
376	 8.20128998708175E-02 
377	 7.94023830103925E-02 
378	 8.07935928674677E-02 
379	 8.26683834692987E-02 
380	 0.084516497578725 
381	 0.085837743128089 
382	 8.72357792623528E-02 
383	 8.67229819660617E-02 
384	 0.081830026731785 
385	 8.02227827029772E-02 
386	 8.23551827949761E-02 
387	 8.36938706897857E-02 
388	 8.37213877955086E-02 
389	 8.24057497103582E-02 
390	 8.13566582373946E-02 
391	 8.20866171262874E-02 
392	 8.59791777122737E-02 
393	 8.61074283139346E-02 
394	 8.26632439026077E-02 
395	 8.07963275896143E-02 
396	 7.99763704664321E-02 
397	 7.98100612874316E-02 
398	 0.079229591887559 
399	 7.87468330234913E-02 
400	 7.89315940327405E-02 
401	 7.86395583287286E-02 
402	 7.86030196915235E-02 
403	 8.15616368336907E-02 
404	 8.32030648173548E-02 
405	 8.21515132391146E-02 
406	 8.22280581609963E-02 
407	 8.26583752391075E-02 
408	 8.20859697220637E-02 
409	 8.12576698805334E-02 
410	 8.06966149998535E-02 
411	 8.12628909871894E-02 
412	 8.24308312339421E-02 
413	 8.35914884544703E-02 
414	 8.28374967662105E-02 
415	 8.16968596735404E-02 
416	 8.23293823667804E-02 
417	 8.27913027783243E-02 
418	 8.27006270673477E-02 
419	 8.23317225908322E-02 
420	 8.19317460894341E-02 
421	 8.17328784712042E-02 
422	 8.22539125002054E-02 
423	 8.28304628720162E-02 
424	 0.08243725196805 
425	 8.22805183713115E-02 
426	 8.26381195918762E-02 
427	 8.33575546666592E-02 
428	 8.38448161414088E-02 
429	 8.37131306903602E-02 
430	 8.34441529016853E-02 
431	 8.29906890928903E-02 
432	 8.21362568556956E-02 
433	 8.18213535118089E-02 
434	 8.20809773319453E-02 
435	 8.19766052025774E-02 
436	 8.22344826284427E-02 
437	 8.32109096298228E-02 
438	 8.34800567536486E-02 
439	 8.32487426336849E-02 
440	 8.32724413856541E-02 
441	 0.083414349207766 
442	 8.36045204655889E-02 
443	 8.35529677198465E-02 
444	 8.37607335451515E-02 
445	 8.45472476472863E-02 
446	 8.46569181824457E-02 
447	 0.084346907399734 
448	 8.46509399234009E-02 
449	 8.50169282167481E-02 
450	 8.52936940923074E-02 
451	 8.55257420583456E-02 
452	 8.60725528411562E-02 
453	 8.72403370100138E-02 
454	 8.81267774088297E-02 
455	 8.85161359698152E-02 
456	 8.84266473688086E-02 
457	 8.81398389286218E-02 
458	 8.78552884759981E-02 
459	 8.76869980230604E-02 
460	 8.78890868781792E-02 
461	 0.088701445600005 
462	 8.87143571978748E-02 
463	 8.81287945792531E-02 
464	 8.85916859561644E-02 
465	 8.93388927785288E-02 
466	 8.99370285099703E-02 
467	 9.03615938269117E-02 
468	 0.090324944291399 
469	 8.94477077736723E-02 
470	 8.91507744046826E-02 
471	 8.95736637544675E-02 
472	 8.95822903102021E-02 
473	 9.00843657005093E-02 
474	 0.09142151364753 
475	 9.15152421309171E-02 
476	 9.09765502637039E-02 
477	 9.13491880653389E-02 
478	 9.19725831401981E-02 
479	 9.24972317329839E-02 
480	 9.22263169303183E-02 
481	 9.19958930079543E-02 
482	 9.24746042100835E-02 
483	 9.30469256633799E-02 
484	 9.34848667105532E-02 
485	 9.35248690705178E-02 
486	 9.34230323693492E-02 
487	 9.32734953043489E-02 
488	 9.30028856444595E-02 
489	 9.26910998544116E-02 
490	 9.24533679059279E-02 
491	 0.093086417542796 
492	 9.41816815141287E-02 
493	 9.42983337465779E-02 
494	 9.41600480639846E-02 
495	 9.41715431545224E-02 
496	 0.094833080394664 
497	 9.55571245044254E-02 
498	 9.55269181610593E-02 
499	 0.096192966689059 
500	 9.73261987130921E-02 
501	 0.096901639216562 
502	 9.65292107266161E-02 
503	 9.70898008823902E-02 
504	 0.097247408435713 
505	 9.72876050608767E-02 
506	 9.79592964317213E-02 
507	 0.098530665756586 
508	 9.89236515359841E-02 
509	 9.96821341643002E-02 
510	 0.100570520106396 
511	 0.101354153288938 
512	 0.101672627797608 
513	 0.101842218519205 
514	 0.10274147461047 
515	 0.103661999286018 
516	 0.104280170672086 
517	 0.104333839134067 
518	 0.104496254458504 
519	 0.105446309508539 
520	 0.105778452724558 
521	 0.105677119569505 
522	 0.106410970010361 
523	 0.107172660847115 
524	 0.107695789656099 
525	 0.108751130731398 
526	 0.109886784187873 
527	 0.110372095922587 
528	 0.110444770949528 
529	 0.11044201666782 
530	 0.111200989047969 
531	 0.112240710015599 
532	 0.113177497335204 
533	 0.113697622312672 
534	 0.113922038636683 
535	 0.114160392035566 
536	 0.114638519182014 
537	 0.115427740058316 
538	 0.116382421839463 
539	 0.117252602643837 
540	 0.117797396877982 
541	 0.11798403468406 
542	 0.118013833793259 
543	 0.118314656574678 
544	 0.119095370813328 
545	 0.120272332133471 
546	 0.120696684496076 
547	 0.120873130983433 
548	 0.121597545775038 
549	 0.121995771106165 
550	 0.122049568923372 
551	 0.122394386784469 
552	 0.122879958212736 
553	 0.123420916368457 
554	 0.124092489987226 
555	 0.124819518689655 
556	 0.125472377115074 
557	 0.126069308502808 
558	 0.126523338831743 
559	 0.126448054894747 
560	 0.126467569456744 
561	 0.127133803446006 
562	 0.127758595175388 
563	 0.12825768877991 
564	 0.128854547797866 
565	 0.129016614690656 
566	 0.128700406004805 
567	 0.129025371097447 
568	 0.129712700184317 
569	 0.130270622462244 
570	 0.130455608236437 
571	 0.130323125894854 
572	 0.130291709553787 
573	 0.130537629691125 
574	 0.131129115506267 
575	 0.13156767004578 
576	 0.131907508008752 
577	 0.132406298749881 
578	 0.132668746295415 
579	 0.13269388048521 
580	 0.133014908768298 
581	 0.133490996029714 
582	 0.13396669842828 
583	 0.134342165561449 
584	 0.134626619882342 
585	 0.134934906072797 
586	 0.135078973203994 
587	 0.135063695927766 
588	 0.135389682582158 
589	 0.135815465820562 
590	 0.135955108096228 
591	 0.135952405395592 
592	 0.136023263840336 
593	 0.136770078338315 
594	 0.137317144552821 
595	 0.137217173566477 
596	 0.137351703154973 
597	 0.137768540968426 
598	 0.138373743721014 
599	 0.138523583533711 
600	 0.13825986787258 
601	 0.138789869350058 
602	 0.139276690316878 
603	 0.139025042241482 
604	 0.139355433439868 
605	 0.140135857398702 
606	 0.140474401777196 
607	 0.140591273961232 
608	 0.140516156461416 
609	 0.140099483012515 
610	 0.139642563218517 
611	 0.139525138295561 
612	 0.139855281101301 
613	 0.140281538994111 
614	 0.13950744263272 
615	 0.139043054439019 
616	 0.139666638922956 
617	 0.13955722966697 
618	 0.13908450536728 
619	 0.139314518450722 
620	 0.139575025346467 
621	 0.139667325290304 
622	 0.139617306436745 
623	 0.139512516868948 
624	 0.13945562949633 
625	 0.139736410386032 
626	 0.140160784970137 
627	 0.140042107110122 
628	 0.140205962662748 
629	 0.140849118743282 
630	 0.141071189860683 
631	 0.141023548349118 
632	 0.140997821024983 
633	 0.141175001095131 
634	 0.141577826233611 
635	 0.142110380565778 
636	 0.142487533705442 
637	 0.142607097452637 
638	 0.143181534309981 
639	 0.143957177449202 
640	 0.144325599749005 
641	 0.144631782612037 
642	 0.144797748477034 
643	 0.143970438928364 
644	 0.143622304214783 
645	 0.144924515119661 
646	 0.145272200815272 
647	 0.144838097373494 
648	 0.145497006074125 
649	 0.145893289393835 
650	 0.145592326056577 
651	 0.145214303168412 
652	 0.145141585680062 
653	 0.145740981564607 
654	 0.145458781724747 
655	 0.144213250081524 
656	 0.143323943715352 
657	 0.142532608824296 
658	 0.141696719364198 
659	 0.140545263383339 
660	 0.139476389352944 
661	 0.139258434733928 
662	 0.138191791064505 
663	 0.13623299054102 
664	 0.135466167273138 
665	 0.134791298185785 
666	 0.133301850052948 
667	 0.132155898118502 
668	 0.131469550322385 
669	 0.131091134580904 
670	 0.130354696161512 
671	 0.129207956206463 
672	 0.128964556115912 
673	 0.129165983213302 
674	 0.129165141278663 
675	 0.129343009896452 
676	 0.129615766746914 
677	 0.129492719132606 
678	 0.129570817767312 
679	 0.130176683875725 
680	 0.131075376626395 
681	 0.132095023426421 
682	 0.132990196078431 
683	 0.134720875212824 
684	 0.137197088720299 
685	 0.139031869175835 
686	 0.141024664728126 
687	 0.143844981487173 
688	 0.146965543231899 
689	 0.149870021750044 
690	 0.152328057419365 
691	 0.155147068477766 
692	 0.158619169415578 
693	 0.162481257827148 
694	 0.166208728557464 
695	 0.16913899017525 
696	 0.171975315535325 
697	 0.174917676873623 
698	 0.178254118045082 
699	 0.181183392615494 
700	 0.183416771448154 
701	 0.186329362615178 
702	 0.189244139436071 
703	 0.191062562014186 
704	 0.193237086086632 
705	 0.195795610802069 
706	 0.197428965786442 
707	 0.199024319349545 
708	 0.201066507827655 
709	 0.202546212544239 
710	 0.20373800080903 
711	 0.205362005182808 
712	 0.207249113489892 
713	 0.209105779381571 
714	 0.210018718297249 
715	 0.210278933416909 
716	 0.210281003402289 
717	 0.211398089046037 
718	 0.213512150457709 
719	 0.21471933823021 
720	 0.215708447244959 
721	 0.216639040165187 
722	 0.217327649959982 
723	 0.218171728332388 
724	 0.219553602026517 
725	 0.220534782612964 
726	 0.221187737023899 
727	 0.222860228802805 
728	 0.223689899682425 
729	 0.223189356139777 
730	 0.224945081279895 
731	 0.227280591346125 
732	 0.227394442521564 
733	 0.227812909882503 
734	 0.228916694097452 
735	 0.229939186148427 
736	 0.23071695440588 
737	 0.231178375261703 
738	 0.232082823063492 
739	 0.233196134362965 
740	 0.233881194696122 
741	 0.234440035431886 
742	 0.23499049165314 
743	 0.235634899544275 
744	 0.236346426309311 
745	 0.237090104577241 
746	 0.237729387475566 
747	 0.23831182001654 
748	 0.239016365408042 
749	 0.239764807583802 
750	 0.240515619991931 
751	 0.241226213611307 
752	 0.241872495252913 
753	 0.242428313850943 
754	 0.242649627378718 
755	 0.242833921077867 
756	 0.24420495833898 
757	 0.244178401967382 
758	 0.24185647747567 
759	 0.240600297395261 
760	 0.241706697385471 
761	 0.246808569607536 
762	 0.248497951565727 
763	 0.247009012234134 
764	 0.248599358486553 
765	 0.250563385614666 
766	 0.251728662496067 
767	 0.251922662388368 
768	 0.251924770255411 
769	 0.252588780409195 
770	 0.252999387813156 
771	 0.253212373628525 
772	 0.254195114284459 
773	 0.255373665072985 
774	 0.256286260693182 
775	 0.256507345793655 
776	 0.256498193936254 
777	 0.257196146185211 
778	 0.257916062892057 
779	 0.258503184654113 
780	 0.25918629565184 
781	 0.259915902623639 
782	 0.260643605364652 
783	 0.261401494982426 
784	 0.261984598210586 
785	 0.261941633687839 
786	 0.261962860461666 
787	 0.262268453819244 
788	 0.262599013443502 
789	 0.262933345577669 
790	 0.263276854166646 
791	 0.263844371378712 
792	 0.264706465179079 
793	 0.266015491980206 
794	 0.266873461876833 
795	 0.26707617969759 
796	 0.267537509119884 
797	 0.268023681222314 
798	 0.26827022242333 
799	 0.268641287655099 
800	 0.269328847194184 
801	 0.2707208844704 
802	 0.271678016528355 
803	 0.271824503991879 
804	 0.272089583847235 
805	 0.272209031686372 
806	 0.271890517755525 
807	 0.272533650651652 
808	 0.273852539084495 
809	 0.274169553034879 
810	 0.274564738960764 
811	 0.275259470464885 
812	 0.27478939504219 
813	 0.273827778592729 
814	 0.273456870472765 
815	 0.274355597936611 
816	 0.276268162805599 
817	 0.277715472536567 
818	 0.278765250088666 
819	 0.279345464257127 
820	 0.279168496958752 
821	 0.279134729643866 
822	 0.280280311091109 
823	 0.281961374306661 
824	 0.283441137493473 
825	 0.283410994970979 
826	 0.282987054052351 
827	 0.282821713311386 
828	 0.283671199918843 
829	 0.284633214659489 
830	 0.284558082324313 
831	 0.285578305951308 
832	 0.287412726127478 
833	 0.288029343421173 
834	 0.288044732674225 
835	 0.287913222369196 
836	 0.288651356707915 
837	 0.289771678655672 
838	 0.290612370920893 
839	 0.290778840008509 
840	 0.290728594988368 
841	 0.292072215891157 
842	 0.293237738441779 
843	 0.293543320071931 
844	 0.293341151475263 
845	 0.293148526708148 
846	 0.293491688730368 
847	 0.293804960849582 
848	 0.293902755165551 
849	 0.293590545691442 
850	 0.293257044166845 
851	 0.293332786812481 
852	 0.294987351639337 
853	 0.29689712326652 
854	 0.297607844097251 
855	 0.298989697870114 
856	 0.300202910998213 
857	 0.298125159920377 
858	 0.297221055497114 
859	 0.298446955496999 
860	 0.297909193241052 
861	 0.29754825779272 
862	 0.299185491928557 
863	 0.299041555382542 
864	 0.298213014152698 
865	 0.300966960280556 
866	 0.303234192172517 
867	 0.303654153871281 
868	 0.303164203889546 
869	 0.302990123467034 
870	 0.303926557277629 
871	 0.303577104992477 
872	 0.302781599112121 
873	 0.303876385237696 
874	 0.304570694188282 
875	 0.304617893631266 
876	 0.305993678919678 
877	 0.307231572214129 
878	 0.307582626367674 
879	 0.310045827762726 
880	 0.313014438995655 
881	 0.313342784642232 
882	 0.312359690525986 
883	 0.311369849848142 
884	 0.313530147371289 
885	 0.315476603807566 
886	 0.315480455813865 
887	 0.316254285373196 
888	 0.316517153159691 
889	 0.31433345448995 
890	 0.314377642913213 
891	 0.316057472699158 
892	 0.313749979688786 
893	 0.311718412770803 
894	 0.312147581856569 
895	 0.314966935041232 
896	 0.317883069677288 
897	 0.318190944212861 
898	 0.317865904809308 
899	 0.318373671168064 
900	 0.32238153136287 
901	 0.324580643585296 
902	 0.323557991302402 
903	 0.322151252079203 
904	 0.32069518009213 
905	 0.319679132263959 
906	 0.321341370164274 
907	 0.324345490439695 
908	 0.325797452774953 
909	 0.324872569404887 
910	 0.322731438151639 
911	 0.325148001957518 
912	 0.326418951164562 
913	 0.324252289823705 
914	 0.326848901430042 
915	 0.330711549672926 
916	 0.330650529265515 
917	 0.330326010301788 
918	 0.330018543767181 
919	 0.328217111241899 
920	 0.327698936371423 
921	 0.328515643197289 
922	 0.325292422569069 
923	 0.323143645828774 
924	 0.326266746014204 
925	 0.327077331298071 
926	 0.324720379520088 
927	 0.320083702345083 
928	 0.319290450631362 
929	 0.32312794962993 
930	 0.322171038601815 
931	 0.318810145784677 
932	 0.316399598245083 
933	 0.325272398347193 
934	 0.334466064160228 
935	 0.326254943418782 
936	 0.320234307268428 
937	 0.320200152981126 
938	 0.322279300959262 
939	 0.319821644110451 
940	 0.313697600531818 
941	 0.317377054326561 
942	 0.323789044900223 
943	 0.326686410461613 
944	 0.321942711945129 
945	 0.31559669603835 
946	 0.31802930845683 
947	 0.318231030610102 
948	 0.315593198007636 
949	 0.31757905884568 
950	 0.319271360880436 
951	 0.319518805536219 
952	 0.324598014483984 
953	 0.326973911918381 
954	 0.321199318749334 
955	 0.325213821020145 
956	 0.332352299912547 
957	 0.325275864955179 
958	 0.328769822160069 
959	 0.340615730155459 
960	 0.330999286335524 
961	 0.324981897656533 
962	 0.332173720451555 
963	 0.333143728937178 
964	 0.330392993165875 
965	 0.327836124244342 
966	 0.327391271256364 
967	 0.327667281598368 
968	 0.324748528785041 
969	 0.326490169078569 
970	 0.3315036465034 
971	 0.326314311760885 
972	 0.322132081627297 
973	 0.325069258139851 
974	 0.331738137280036 
975	 0.336514035849984 
976	 0.334204610837051 
977	 0.33644466592149 
978	 0.341160155560751 
979	 0.339060766256862 
980	 0.339380730231516 
981	 0.342559248032825 
982	 0.339239505245644 
983	 0.33888369940206 
984	 0.34463172382262 
985	 0.34215960755282 
986	 0.337814697910385 
987	 0.339331786911756 
988	 0.337326557365885 
989	 0.334335109106608 
990	 0.338582224857253 
991	 0.341402797385458 
992	 0.340703615296187 
993	 0.337424876480027 
994	 0.340928196459773 
995	 0.351907693777754 
996	 0.345747188434782 
997	 0.333747434845905 
998	 0.32940306711882 
999	 0.33457467288149 
1000	 0.343343044289906 
1001	 0.345227437074264 
1002	 0.344919779652004 
1003	 0.343639796818806 
1004	 0.341271472654601 
1005	 0.342690735356167 
1006	 0.347196491580575 
1007	 0.339222429876912 
1008	 0.337687946053869 
1009	 0.354043873397854 
1010	 0.35239380684434 
1011	 0.343504614127655 
1012	 0.348729002707934 
1013	 0.348509424278657 
1014	 0.346151792520457 
1015	 0.360527082284268 
1016	 0.360831813065249 
1017	 0.345124187112992 
1018	 0.345469490710694 
1019	 0.352417223173401 
1020	 0.358756720951314 
1021	 0.357204209370774 
1022	 0.347321405968183 
1023	 0.332429212533001 
1024	 0.34038725486574 
1025	 0.35914061835179 
1026	 0.361583777821018 
1027	 0.343432194150756 
1028	 0.319646053891844 
1029	 0.340454413998014 
1030	 0.349239991825913 
1031	 0.335594458504005 
1032	 0.348234301923965 
1033	 0.360213851665251 
1034	 0.354731931117462 
1035	 0.345881854805006 
1036	 0.345108096698042 
1037	 0.361055832623768 
1038	 0.360401657213127 
1039	 0.352668211101659 
1040	 0.363832705229609 
1041	 0.365683927302928 
1042	 0.356479785738275 
1043	 0.35038615894093 
1044	 0.346279501280446 
1045	 0.342442714199461 
1046	 0.330224784117326 
1047	 0.317750037466536 
1048	 0.313191562932227 
1049	 0.329831957279982 
1050	 0.348129682283782 
1051	 0.346902870160472 
1052	 0.336569102039015 
1053	 0.332471807128859 
1054	 0.35405546321896 
1055	 0.351671259730667 
1056	 0.331792014206019 
1057	 0.335930887768874 
1058	 0.342634783237625 
1059	 0.341356313652556 
1060	 0.315154386291241 
1061	 0.307334017333689 
1062	 0.329790927788713 
1063	 0.318857877518578 
1064	 0.312040700213028 
1065	 0.332967476048105 
1066	 0.329513013485812 
1067	 0.313374344824865 
1068	 0.303028189937969 
1069	 0.305795117658496 
1070	 0.32603875491172 
1071	 0.370240166711881 
1072	 0.345716598143995 
1073	 0.287201641519692 
1074	 0.320105990904933 
1075	 0.320025201133486 
