Wavelength	SHSI00217.asd
325	 0.118177172802486 
326	 0.116472965956487 
327	 9.91741270722232E-02 
328	 0.106271046699321 
329	 0.113704193584944 
330	 0.112404171112324 
331	 0.106309675081086 
332	 9.99108640894873E-02 
333	 9.68425674629538E-02 
334	 9.64784495589641E-02 
335	 9.93535285480834E-02 
336	 0.108524313346239 
337	 0.109720043661552 
338	 0.101507023497707 
339	 9.86475624525195E-02 
340	 9.97833811719129E-02 
341	 0.102908775466315 
342	 0.107037734425672 
343	 0.110325984959459 
344	 0.10997399284002 
345	 0.109669767252324 
346	 0.110252585619314 
347	 0.110804011751101 
348	 0.11002985491744 
349	 0.107695585162552 
350	 0.108687556677673 
351	 0.111347118293307 
352	 0.112283464225549 
353	 0.111466328002054 
354	 0.110143059930198 
355	 0.112959543606811 
356	 0.115778500888429 
357	 0.116123543689423 
358	 0.116497797168926 
359	 0.116201915506526 
360	 0.113722380048177 
361	 0.113563577800899 
362	 0.115384205982761 
363	 0.114388625293095 
364	 0.1124383247484 
365	 0.111085527093621 
366	 0.113258193797077 
367	 0.11622742615831 
368	 0.115940592807068 
369	 0.116626302259881 
370	 0.118512778367251 
371	 0.11860928952894 
372	 0.120329349107225 
373	 0.124377586243045 
374	 0.122623148918772 
375	 0.11816631881704 
376	 0.116377612729312 
377	 0.116047687416852 
378	 0.116271089251837 
379	 0.114378523475837 
380	 0.114597088347444 
381	 0.118398939278578 
382	 0.120390401386199 
383	 0.12004020593263 
384	 0.117539248868719 
385	 0.115200442965653 
386	 0.113698588835734 
387	 0.112446823290914 
388	 0.112016947362526 
389	 0.112431148964436 
390	 0.112473346684878 
391	 0.112434158682759 
392	 0.11278593639598 
393	 0.112444036940172 
394	 0.111486833072915 
395	 0.110845891869961 
396	 0.110453668438572 
397	 0.109999746006296 
398	 0.107925645597744 
399	 0.106176618420479 
400	 0.106635395002587 
401	 0.10607023103819 
402	 0.105464242815782 
403	 0.109233076937825 
404	 0.111802014402187 
405	 0.111147048305326 
406	 0.110665337692747 
407	 0.110422024690036 
408	 0.110095311984949 
409	 0.109585023739344 
410	 0.109095411950345 
411	 0.109268833401322 
412	 0.109468165184481 
413	 0.109302603015678 
414	 0.108315889960991 
415	 0.10760094298866 
416	 0.108574089502066 
417	 0.108979349408233 
418	 0.10867068361361 
419	 0.108964342631473 
420	 0.10939434632556 
421	 0.109664817316948 
422	 0.109537382372814 
423	 0.109288790043069 
424	 0.109363178774555 
425	 0.109046866103228 
426	 0.108588644594694 
427	 0.109491900142517 
428	 0.110650846610709 
429	 0.111147292095774 
430	 0.110166151874516 
431	 0.108656983015401 
432	 0.108297353410597 
433	 0.108357016957419 
434	 0.108394712935484 
435	 0.107245572846117 
436	 0.107441947190311 
437	 0.110200559400434 
438	 0.110155451006733 
439	 0.108680515260532 
440	 0.109784172819183 
441	 0.110454313929983 
442	 0.110122543914647 
443	 0.110125780228077 
444	 0.110522822518328 
445	 0.11125987280306 
446	 0.111474382957254 
447	 0.111473347672257 
448	 0.112284107995169 
449	 0.113051364400885 
450	 0.113600340611682 
451	 0.114589147490147 
452	 0.115513616440313 
453	 0.115868933970742 
454	 0.11636561292728 
455	 0.116896548278256 
456	 0.116767393778097 
457	 0.116603836030695 
458	 0.116755132460805 
459	 0.117556244719167 
460	 0.118339399228044 
461	 0.118310173445671 
462	 0.11813158770684 
463	 0.118244388184047 
464	 0.119536809871838 
465	 0.12052597879939 
466	 0.120537898516057 
467	 0.120959215086934 
468	 0.121429811290124 
469	 0.121213948817486 
470	 0.120964754760731 
471	 0.120952960560072 
472	 0.121354760143774 
473	 0.122137594747291 
474	 0.12317405538931 
475	 0.123802944768984 
476	 0.123935961528173 
477	 0.123591114623888 
478	 0.123342821292913 
479	 0.123503528930939 
480	 0.124423197628672 
481	 0.125271892767666 
482	 0.125447858997959 
483	 0.126252771305171 
484	 0.127317475330781 
485	 0.127236956050389 
486	 0.127011775156379 
487	 0.126922537674848 
488	 0.126411562875937 
489	 0.125931932549889 
490	 0.125955712294553 
491	 0.126407465057572 
492	 0.126961355831129 
493	 0.126817818721988 
494	 0.126632191103948 
495	 0.126834191748484 
496	 0.128106898237604 
497	 0.129535099812607 
498	 0.129877369850619 
499	 0.130563952327398 
500	 0.13165343376782 
501	 0.13215148147475 
502	 0.132432088122309 
503	 0.132753970696092 
504	 0.13320711090535 
505	 0.133871133767627 
506	 0.134836085858563 
507	 0.135839922140783 
508	 0.136852818137739 
509	 0.138088217674372 
510	 0.139457504197891 
511	 0.140842801962277 
512	 0.141776937323375 
513	 0.142508306409316 
514	 0.143778819809946 
515	 0.145142183277867 
516	 0.146342932339982 
517	 0.14694821989163 
518	 0.14743436294607 
519	 0.148322993619277 
520	 0.148944529936531 
521	 0.149511554022942 
522	 0.150898922231494 
523	 0.152512162989903 
524	 0.154052803258207 
525	 0.155518150055968 
526	 0.156714060991509 
527	 0.157373485809154 
528	 0.158111514488352 
529	 0.159127012892631 
530	 0.160457848023886 
531	 0.161832856258017 
532	 0.163048506425749 
533	 0.164080366648959 
534	 0.164938857341513 
535	 0.165625634382703 
536	 0.166491439531924 
537	 0.167709701334496 
538	 0.169467714181583 
539	 0.17097730809172 
540	 0.1715018586744 
541	 0.171807473674896 
542	 0.172264028849272 
543	 0.173335007682307 
544	 0.174609513452164 
545	 0.17585654963519 
546	 0.176863324181845 
547	 0.177822311067028 
548	 0.179009567658329 
549	 0.179947257649763 
550	 0.180550764424111 
551	 0.180904988783224 
552	 0.181472434597088 
553	 0.182545971900314 
554	 0.183862439560912 
555	 0.185130242599222 
556	 0.185905825806488 
557	 0.186743821298337 
558	 0.187691767010022 
559	 0.188123795830651 
560	 0.188443930162246 
561	 0.189053708242334 
562	 0.189885812570277 
563	 0.190845851459353 
564	 0.191790320065061 
565	 0.192371882039735 
566	 0.192523699084806 
567	 0.192901896221852 
568	 0.193399472488677 
569	 0.193798128989845 
570	 0.193776307136621 
571	 0.193541433719008 
572	 0.194091316760068 
573	 0.194542960369894 
574	 0.194449487500159 
575	 0.194821215568839 
576	 0.195516725147695 
577	 0.19603139869218 
578	 0.196478934714704 
579	 0.196867504105758 
580	 0.197200484260423 
581	 0.197411507329208 
582	 0.197496137354814 
583	 0.198184445724444 
584	 0.199251593465098 
585	 0.199821647377351 
586	 0.200204115620576 
587	 0.200487367644955 
588	 0.200612454017716 
589	 0.200623791766901 
590	 0.200582800360139 
591	 0.200766750160154 
592	 0.20113206788521 
593	 0.201327644999936 
594	 0.201410548331719 
595	 0.201451956985019 
596	 0.201712223238519 
597	 0.202236504744035 
598	 0.203088788265015 
599	 0.203353982830423 
600	 0.202986148216485 
601	 0.203211332865401 
602	 0.203489105992347 
603	 0.203353654756493 
604	 0.203646286467897 
605	 0.20417506156257 
606	 0.204109451613402 
607	 0.203868433857512 
608	 0.203633315908823 
609	 0.203520346044735 
610	 0.203339917651617 
611	 0.202844065257703 
612	 0.202524692553822 
613	 0.202292562836872 
614	 0.201436319166255 
615	 0.200488993850858 
616	 0.199851263326276 
617	 0.199818781466341 
618	 0.199963498519446 
619	 0.199444231222149 
620	 0.199402761444787 
621	 0.199966028139171 
622	 0.20017488019472 
623	 0.200134092906915 
624	 0.199992974955414 
625	 0.200124187617137 
626	 0.200405177068432 
627	 0.200257656665818 
628	 0.200404018213838 
629	 0.200997670247014 
630	 0.201166095060345 
631	 0.201010616959686 
632	 0.200763753652922 
633	 0.20097208366635 
634	 0.20154336432918 
635	 0.201709786247022 
636	 0.201681661882474 
637	 0.201701115301279 
638	 0.202706297131402 
639	 0.203951505560691 
640	 0.203903253542866 
641	 0.20386204819859 
642	 0.20410227713332 
643	 0.203900224735314 
644	 0.20399532475952 
645	 0.20495179072011 
646	 0.205043942523104 
647	 0.204485676898729 
648	 0.204762053044785 
649	 0.204972930383203 
650	 0.204705519854041 
651	 0.203621738741668 
652	 0.202687419727826 
653	 0.203040186085865 
654	 0.202846832866669 
655	 0.201645253684127 
656	 0.199870762472985 
657	 0.1972914649906 
658	 0.194228400683003 
659	 0.192661321797526 
660	 0.191701538292249 
661	 0.189665311339463 
662	 0.187388081557184 
663	 0.185042031198661 
664	 0.182393473690878 
665	 0.179942658331351 
666	 0.17807749959893 
667	 0.17629945078006 
668	 0.174563526935129 
669	 0.172978577844856 
670	 0.171369432922961 
671	 0.169893210048998 
672	 0.169726158289164 
673	 0.169901036665484 
674	 0.169235377395926 
675	 0.169121402137563 
676	 0.169625638478098 
677	 0.169988149040808 
678	 0.170407489355769 
679	 0.171053934788498 
680	 0.172303683196024 
681	 0.174130558768588 
682	 0.176423867245328 
683	 0.179013904120439 
684	 0.181829798000164 
685	 0.184998265379108 
686	 0.188876657605888 
687	 0.193716399084874 
688	 0.199078479940193 
689	 0.204344011964117 
690	 0.209548106975621 
691	 0.21529625011259 
692	 0.221815139921521 
693	 0.228683193259061 
694	 0.235328383712095 
695	 0.240918739564602 
696	 0.246188768775665 
697	 0.251452576161217 
698	 0.257313356744438 
699	 0.262900172028462 
700	 0.267775670174123 
701	 0.272808860303476 
702	 0.277717483865194 
703	 0.282047845474611 
704	 0.285794304073068 
705	 0.289150375313871 
706	 0.292538551578444 
707	 0.295870334293516 
708	 0.299024815233067 
709	 0.301582566063874 
710	 0.303881481352578 
711	 0.306594344698397 
712	 0.309519171340661 
713	 0.312464279271057 
714	 0.314946661299354 
715	 0.31710456665112 
716	 0.319223189132606 
717	 0.321627024439866 
718	 0.324322143774863 
719	 0.326678811346145 
720	 0.328504830247847 
721	 0.329705512482131 
722	 0.330438378940513 
723	 0.331323659251605 
724	 0.332947431638736 
725	 0.334288091935609 
726	 0.335448883526906 
727	 0.337964410605136 
728	 0.339857183654087 
729	 0.340389980769545 
730	 0.342070327183023 
731	 0.344003704397764 
732	 0.344610893686059 
733	 0.34521008302374 
734	 0.346170156990886 
735	 0.347634457154745 
736	 0.34884584848182 
737	 0.349319644064078 
738	 0.34994243273226 
739	 0.350909889093195 
740	 0.352360735156886 
741	 0.353330599787596 
742	 0.353739358490671 
743	 0.35470991387096 
744	 0.355749131792605 
745	 0.356427776670585 
746	 0.357054891906718 
747	 0.357777129415931 
748	 0.358882551767785 
749	 0.359621768687142 
750	 0.359948157324421 
751	 0.361240649573265 
752	 0.362669727342802 
753	 0.363273408030144 
754	 0.363528851168966 
755	 0.363950919476538 
756	 0.366135364107767 
757	 0.365862486402289 
758	 0.361908057671891 
759	 0.362230229481173 
760	 0.368113816201139 
761	 0.374512739815634 
762	 0.377074737435427 
763	 0.376563825139007 
764	 0.378007076367386 
765	 0.37898314632592 
766	 0.378809196955868 
767	 0.378464332771552 
768	 0.378018757251998 
769	 0.377392150991537 
770	 0.377449894407601 
771	 0.378212047609551 
772	 0.378806668144439 
773	 0.379665056332216 
774	 0.380966362057688 
775	 0.381627522956914 
776	 0.382122005172966 
777	 0.383633654984897 
778	 0.384624273132991 
779	 0.384924812673008 
780	 0.385983123975882 
781	 0.386808705654179 
782	 0.386729478287388 
783	 0.387558321244336 
784	 0.388942173804791 
785	 0.389494434275521 
786	 0.39002882563418 
787	 0.390681116185204 
788	 0.390798404717152 
789	 0.391055493671936 
790	 0.39208167052272 
791	 0.393295407637276 
792	 0.394543329729407 
793	 0.395843868952194 
794	 0.396615657946938 
795	 0.396759872873478 
796	 0.396998190406277 
797	 0.39725649112283 
798	 0.39747652693612 
799	 0.398741263316787 
800	 0.400665056934384 
801	 0.40171137282107 
802	 0.402320205658588 
803	 0.402722286730414 
804	 0.403467114559731 
805	 0.404150491949764 
806	 0.404322537561137 
807	 0.404610635317249 
808	 0.405207908208082 
809	 0.406268160488879 
810	 0.407325313342402 
811	 0.408066242617113 
812	 0.408021515951688 
813	 0.4082180591988 
814	 0.410034422817515 
815	 0.412665442087594 
816	 0.415254016764748 
817	 0.416082579255587 
818	 0.416521238809617 
819	 0.417149512841348 
820	 0.417114137528154 
821	 0.417581557800359 
822	 0.419916885836624 
823	 0.422148245617246 
824	 0.423235655568216 
825	 0.421930212314617 
826	 0.421097461072885 
827	 0.421923199493638 
828	 0.423284616174495 
829	 0.424345973222285 
830	 0.424275848024316 
831	 0.42546209372062 
832	 0.427502338745218 
833	 0.427804309456186 
834	 0.427526420867849 
835	 0.427303209962881 
836	 0.427720060375735 
837	 0.428472940550867 
838	 0.429133519086589 
839	 0.429167599254997 
840	 0.428901439117894 
841	 0.429510354639197 
842	 0.430794171982751 
843	 0.432274342009214 
844	 0.431851073720235 
845	 0.430614922260059 
846	 0.430015152413558 
847	 0.43007901949191 
848	 0.430746765248308 
849	 0.431944471609954 
850	 0.431723660946995 
851	 0.430092379378539 
852	 0.432247148661938 
853	 0.435476888979377 
854	 0.436459696139979 
855	 0.437019617702297 
856	 0.437121600978452 
857	 0.435650451453178 
858	 0.435445446892243 
859	 0.436984869483509 
860	 0.437138798689816 
861	 0.436731339086001 
862	 0.436727015663185 
863	 0.436964929019442 
864	 0.43767670077183 
865	 0.439406414897825 
866	 0.441159327780021 
867	 0.442408485705553 
868	 0.442857234009842 
869	 0.443178744634953 
870	 0.443874970635927 
871	 0.4438227568467 
872	 0.44377495689177 
873	 0.445463872125905 
874	 0.447063843563627 
875	 0.448176550033106 
876	 0.449601994412398 
877	 0.451289743438133 
878	 0.453217370759226 
879	 0.455422280477708 
880	 0.457589426738103 
881	 0.459281204072399 
882	 0.459901156269297 
883	 0.459996472196296 
884	 0.462074171769276 
885	 0.463779483024577 
886	 0.46390055217863 
887	 0.463953292470591 
888	 0.46454416349313 
889	 0.466190615277521 
890	 0.46640755188435 
891	 0.46561233701045 
892	 0.46724658776621 
893	 0.4678343273913 
894	 0.466497751676261 
895	 0.468306608479943 
896	 0.472334469806433 
897	 0.476729024648337 
898	 0.479717885351962 
899	 0.481069258233972 
900	 0.481743141928633 
901	 0.481700101366622 
902	 0.481349256808251 
903	 0.481704194864083 
904	 0.482640654654095 
905	 0.483952190486194 
906	 0.484833272817854 
907	 0.485874919747965 
908	 0.488466991654536 
909	 0.487581069132927 
910	 0.484210511946453 
911	 0.487873943905899 
912	 0.491924478536932 
913	 0.492881798244701 
914	 0.495615422586173 
915	 0.497969779726504 
916	 0.496908818389262 
917	 0.49538309879686 
918	 0.494123422928753 
919	 0.492925042865199 
920	 0.49310225257988 
921	 0.494197952067725 
922	 0.491562221683266 
923	 0.488750567760887 
924	 0.488889450113595 
925	 0.488617427652235 
926	 0.487446441343018 
927	 0.485557684151865 
928	 0.483077995468678 
929	 0.481701419675508 
930	 0.488626472658441 
931	 0.496019324496905 
932	 0.497344679583739 
933	 0.501581856638816 
934	 0.5076875365898 
935	 0.5121731266588 
936	 0.508527795051496 
937	 0.499631991479792 
938	 0.496114520968898 
939	 0.493151861174809 
940	 0.491493461576468 
941	 0.500307108753221 
942	 0.508109608000048 
943	 0.506345510682142 
944	 0.498788940499704 
945	 0.495380191188252 
946	 0.51060184024219 
947	 0.514652069853502 
948	 0.505602449496324 
949	 0.505004891939959 
950	 0.504502229662021 
951	 0.501703835838008 
952	 0.502167039524628 
953	 0.504372215345239 
954	 0.506330064378465 
955	 0.504949956425876 
956	 0.502450124192627 
957	 0.5034927358498 
958	 0.507728333397249 
959	 0.511694196281873 
960	 0.503929978590066 
961	 0.501098584456886 
962	 0.508102745830327 
963	 0.503498534498212 
964	 0.498148139105485 
965	 0.503260064621583 
966	 0.508135809974239 
967	 0.507382566121987 
968	 0.493450566209077 
969	 0.494494626263326 
970	 0.50972168819913 
971	 0.505508451005233 
972	 0.497925189255 
973	 0.49657748260841 
974	 0.501542405641219 
975	 0.508327863058407 
976	 0.511589566290054 
977	 0.50852524924383 
978	 0.504038017706597 
979	 0.509824172322413 
980	 0.51046660708593 
981	 0.5045885114173 
982	 0.504993522733375 
983	 0.506920189555615 
984	 0.507639608174462 
985	 0.507550518845401 
986	 0.507471112107441 
987	 0.50820327000156 
988	 0.50818004713505 
989	 0.508057539116177 
990	 0.509495336897185 
991	 0.514334828008682 
992	 0.518888372940355 
993	 0.507257485752811 
994	 0.501929678260174 
995	 0.511187563068271 
996	 0.511081442100815 
997	 0.507490140743548 
998	 0.508207240764361 
999	 0.514706844539577 
1000	 0.52116953994703 
1001	 0.51784793584601 
1002	 0.510651810098229 
1003	 0.505675097397636 
1004	 0.516264087252789 
1005	 0.525637781604814 
1006	 0.526244985284137 
1007	 0.520884597970209 
1008	 0.515437689964492 
1009	 0.514577116815886 
1010	 0.514469770233331 
1011	 0.51547516732655 
1012	 0.518553352768303 
1013	 0.523301820337352 
1014	 0.527082734538988 
1015	 0.523670068873508 
1016	 0.520661025501688 
1017	 0.519335436760275 
1018	 0.513144946840794 
1019	 0.513634285896053 
1020	 0.52533142283922 
1021	 0.534680975238638 
1022	 0.53609942915464 
1023	 0.527039401121989 
1024	 0.525512805355639 
1025	 0.527949680980187 
1026	 0.523185629085807 
1027	 0.525666569926121 
1028	 0.531620708597883 
1029	 0.517550943205957 
1030	 0.513685443171374 
1031	 0.526867329498302 
1032	 0.537935233833293 
1033	 0.537769071884124 
1034	 0.525230238764153 
1035	 0.529791324370017 
1036	 0.537336329123731 
1037	 0.53030888375299 
1038	 0.523705065504708 
1039	 0.525187081701423 
1040	 0.54216978363706 
1041	 0.544248752049215 
1042	 0.533338783304544 
1043	 0.537677447835471 
1044	 0.541531609046902 
1045	 0.540191909715891 
1046	 0.537319728138036 
1047	 0.532750761749986 
1048	 0.527444898605176 
1049	 0.524371443774738 
1050	 0.53135814852962 
1051	 0.550479944669809 
1052	 0.538907567876195 
1053	 0.512960871788899 
1054	 0.510780408482892 
1055	 0.519848428888005 
1056	 0.534467523567968 
1057	 0.547619229164647 
1058	 0.528792975795912 
1059	 0.488935353618797 
1060	 0.49371294380246 
1061	 0.518985269650709 
1062	 0.545488577983215 
1063	 0.539585175776306 
1064	 0.522592852322797 
1065	 0.514334482083713 
1066	 0.52896276508856 
1067	 0.544181297942544 
1068	 0.53705879321113 
1069	 0.528827629160189 
1070	 0.529037988146865 
1071	 0.544955876991238 
1072	 0.51246460729044 
1073	 0.464446684432537 
1074	 0.49355516010028 
1075	 0.532226090707129 
