Wavelength	SHSI00234.asd
325	 9.56043632370231E-02 
326	 8.89086631835352E-02 
327	 7.17964650392681E-02 
328	 7.07175619920962E-02 
329	 7.32307373824859E-02 
330	 0.074070493318922 
331	 7.10640986826947E-02 
332	 0.072512447040901 
333	 8.51447562764857E-02 
334	 8.18073855891707E-02 
335	 7.01789892980522E-02 
336	 7.88510868021347E-02 
337	 8.64357733002747E-02 
338	 8.60425769256886E-02 
339	 7.69981319334829E-02 
340	 7.20854526212392E-02 
341	 7.99093500844741E-02 
342	 8.04946741539518E-02 
343	 7.67470760962355E-02 
344	 8.03592354208507E-02 
345	 8.11246989036685E-02 
346	 7.76574832317525E-02 
347	 7.43997430165688E-02 
348	 0.074773759215004 
349	 7.98292036048772E-02 
350	 8.05335550223649E-02 
351	 7.80663917929674E-02 
352	 7.60406412133401E-02 
353	 7.47084513823385E-02 
354	 7.46953078766766E-02 
355	 7.74048355375288E-02 
356	 8.01826916986081E-02 
357	 8.13652830895328E-02 
358	 8.20837748790054E-02 
359	 8.21235793480979E-02 
360	 8.09919416116822E-02 
361	 8.03317247028092E-02 
362	 8.01821017796335E-02 
363	 7.88675003116026E-02 
364	 7.85744503095245E-02 
365	 8.02019375325256E-02 
366	 8.15542782999701E-02 
367	 8.27470496441031E-02 
368	 8.42600458363459E-02 
369	 0.083955384794876 
370	 8.25353039533033E-02 
371	 8.39323451694932E-02 
372	 8.58930090011724E-02 
373	 8.69844429916268E-02 
374	 8.70908786036793E-02 
375	 8.56570750234501E-02 
376	 0.082105904772554 
377	 8.05480831928653E-02 
378	 8.14366124941859E-02 
379	 8.28564869294106E-02 
380	 8.34206589690591E-02 
381	 8.26287309076268E-02 
382	 8.33273499950575E-02 
383	 8.37212176195715E-02 
384	 8.11901437990911E-02 
385	 8.15035640798789E-02 
386	 8.38286239331996E-02 
387	 8.14713992873166E-02 
388	 7.99425547852095E-02 
389	 8.11925174232604E-02 
390	 8.10758224297317E-02 
391	 8.11789357201666E-02 
392	 8.36808268322047E-02 
393	 8.33786415234715E-02 
394	 8.04212739959409E-02 
395	 7.86851785529051E-02 
396	 7.71484176585179E-02 
397	 7.56801305999539E-02 
398	 7.54769098970071E-02 
399	 7.60130493628388E-02 
400	 7.66646074957124E-02 
401	 7.63455824156691E-02 
402	 7.60225242074517E-02 
403	 7.89822941723832E-02 
404	 8.07790057255518E-02 
405	 7.99196765678599E-02 
406	 7.97801244680164E-02 
407	 8.00872469624924E-02 
408	 8.01158939066256E-02 
409	 7.96003783365249E-02 
410	 7.89314039335485E-02 
411	 7.93831593412195E-02 
412	 7.99998742957455E-02 
413	 8.01029103862971E-02 
414	 7.83954488875027E-02 
415	 7.70436358532932E-02 
416	 7.89087829071723E-02 
417	 7.95490947033834E-02 
418	 7.88802292530145E-02 
419	 8.03618257399333E-02 
420	 8.06909620359649E-02 
421	 7.86475385269529E-02 
422	 7.89236530095223E-02 
423	 8.04267624661953E-02 
424	 8.08245746685935E-02 
425	 8.04737827819893E-02 
426	 7.98630460002469E-02 
427	 8.05726963263218E-02 
428	 8.13688118574565E-02 
429	 8.14006714571614E-02 
430	 8.09881417395006E-02 
431	 8.03511052029147E-02 
432	 7.97464380225368E-02 
433	 7.97327465181314E-02 
434	 8.01601974377625E-02 
435	 7.98358024444606E-02 
436	 7.98786115725199E-02 
437	 8.09214184317338E-02 
438	 8.14871455307251E-02 
439	 8.15461961235718E-02 
440	 8.14538145358221E-02 
441	 8.13809819744816E-02 
442	 8.13658404087562E-02 
443	 8.10449130446233E-02 
444	 8.13750457196633E-02 
445	 8.29433844699411E-02 
446	 8.32251131134953E-02 
447	 8.26138597620102E-02 
448	 8.29559302959832E-02 
449	 8.32649602644935E-02 
450	 0.083350871773894 
451	 8.36973159081679E-02 
452	 8.44035230007936E-02 
453	 0.085493574989553 
454	 8.60829350327116E-02 
455	 8.62421814998948E-02 
456	 8.68118550679708E-02 
457	 8.67559306600004E-02 
458	 8.60003177863197E-02 
459	 8.65820618764242E-02 
460	 8.76670219820799E-02 
461	 8.80590550326428E-02 
462	 8.72660572499811E-02 
463	 8.60277579114861E-02 
464	 8.69023792182676E-02 
465	 8.82214607036574E-02 
466	 8.90346925828914E-02 
467	 8.93471459406127E-02 
468	 8.92510833310785E-02 
469	 8.89197252274645E-02 
470	 8.85557952456331E-02 
471	 8.84669686143815E-02 
472	 8.93764039580025E-02 
473	 9.03101575407725E-02 
474	 9.06165341494758E-02 
475	 0.090582779590422 
476	 9.02866905485391E-02 
477	 8.97568835796746E-02 
478	 8.96427566759705E-02 
479	 9.00909006686395E-02 
480	 9.07275206841081E-02 
481	 9.14198186880948E-02 
482	 9.20485925345899E-02 
483	 9.24702438676516E-02 
484	 9.26887945612966E-02 
485	 9.28135757378986E-02 
486	 9.26494994372427E-02 
487	 9.22442140784384E-02 
488	 9.21757942731459E-02 
489	 9.20135999770465E-02 
490	 9.13697935652312E-02 
491	 0.092090323720571 
492	 0.093621141095674 
493	 9.36083363039436E-02 
494	 9.31229494990116E-02 
495	 0.092773330671689 
496	 9.32758103519372E-02 
497	 9.42564382598328E-02 
498	 9.51354368835153E-02 
499	 9.55026295651253E-02 
500	 9.54865579781926E-02 
501	 9.60070765270662E-02 
502	 9.64001377524271E-02 
503	 9.63313451826569E-02 
504	 0.096422168873572 
505	 9.68309540420768E-02 
506	 9.76648468825469E-02 
507	 9.86746484274572E-02 
508	 9.95909915185326E-02 
509	 9.96365076796494E-02 
510	 0.100129385848558 
511	 0.101964334122714 
512	 0.10272945702068 
513	 0.10272155071404 
514	 0.103601163576281 
515	 0.10445954014048 
516	 0.105005842571819 
517	 0.105375369287121 
518	 0.105732948250751 
519	 0.106233635089055 
520	 0.106498744588441 
521	 0.106780126726167 
522	 0.10797571752728 
523	 0.109037033380503 
524	 0.109594984098138 
525	 0.110667079709069 
526	 0.11189840419604 
527	 0.112657656061485 
528	 0.112638046503758 
529	 0.112286984796546 
530	 0.113281018979889 
531	 0.114771131119735 
532	 0.116060829175691 
533	 0.116365349544651 
534	 0.116181350962376 
535	 0.116688081534374 
536	 0.117433625338244 
537	 0.118300615968254 
538	 0.119295895112612 
539	 0.120288638860496 
540	 0.121118496248736 
541	 0.121184154225537 
542	 0.120907573633261 
543	 0.121660343943162 
544	 0.122577662130964 
545	 0.1232563496227 
546	 0.123550214612221 
547	 0.12386746248181 
548	 0.124750587988406 
549	 0.125389308536688 
550	 0.125619094338435 
551	 0.125580298287564 
552	 0.125723242257609 
553	 0.126361030432472 
554	 0.12747764436587 
555	 0.128550783243351 
556	 0.128623390270724 
557	 0.129019080438182 
558	 0.129881383498554 
559	 0.129761273572057 
560	 0.129560486760814 
561	 0.130135425267447 
562	 0.130852357556003 
563	 0.131521490088886 
564	 0.132057267378766 
565	 0.132132220740805 
566	 0.131776262595339 
567	 0.132052870467438 
568	 0.132603910179779 
569	 0.132845692564712 
570	 0.133054952064923 
571	 0.133242283164483 
572	 0.133254777568953 
573	 0.133278949533577 
574	 0.133427218746056 
575	 0.133517317903149 
576	 0.133771754503649 
577	 0.134675137474106 
578	 0.135103024905949 
579	 0.134879490938162 
580	 0.134928908003325 
581	 0.135376182513728 
582	 0.136233972751957 
583	 0.136600692730505 
584	 0.136560725170531 
585	 0.136762120678198 
586	 0.137161942392235 
587	 0.137667938100343 
588	 0.13768935121107 
589	 0.137447409093265 
590	 0.137316717617754 
591	 0.137609140957765 
592	 0.138085606570798 
593	 0.137626183394514 
594	 0.137617001762968 
595	 0.138711954382052 
596	 0.139099729771591 
597	 0.139138683235845 
598	 0.139942563750442 
599	 0.140145064974617 
600	 0.1396207203089 
601	 0.139699252350475 
602	 0.139971876777577 
603	 0.140066757301678 
604	 0.140593942226904 
605	 0.141247155063055 
606	 0.141002275220833 
607	 0.140752655869997 
608	 0.140805432354644 
609	 0.140670223465033 
610	 0.140508633165849 
611	 0.140567198539952 
612	 0.14088650164896 
613	 0.14117901747678 
614	 0.140437449711807 
615	 0.139933674537698 
616	 0.140303884783166 
617	 0.13981728948651 
618	 0.13898684963602 
619	 0.139064843292655 
620	 0.139415112215813 
621	 0.139838229215375 
622	 0.14032957431352 
623	 0.14067286482756 
624	 0.140682858488629 
625	 0.140510407139294 
626	 0.140413528030672 
627	 0.140938010453233 
628	 0.141541123461194 
629	 0.141940245941339 
630	 0.141993188366033 
631	 0.141863483039421 
632	 0.141775485844602 
633	 0.141743911278691 
634	 0.141817596753947 
635	 0.142080353634756 
636	 0.142422562587813 
637	 0.142755697494871 
638	 0.142980990958646 
639	 0.143184792368219 
640	 0.143563492025021 
641	 0.143719454858601 
642	 0.143626283074114 
643	 0.143730334395763 
644	 0.143951555740436 
645	 0.144192214419388 
646	 0.144261001326387 
647	 0.144208351580493 
648	 0.144252267905797 
649	 0.144439882400694 
650	 0.144698391314474 
651	 0.14445716299401 
652	 0.144205327053993 
653	 0.144564317975576 
654	 0.144385655972742 
655	 0.143637062737179 
656	 0.143507022316213 
657	 0.142529156887745 
658	 0.140258111479126 
659	 0.139418468915359 
660	 0.139368309657946 
661	 0.138639575462237 
662	 0.137802780963676 
663	 0.136910013399604 
664	 0.135710009304465 
665	 0.134295309743912 
666	 0.132815137450763 
667	 0.1320557459952 
668	 0.131732030600582 
669	 0.130772321246325 
670	 0.129903146281381 
671	 0.129466415431156 
672	 0.129868992171666 
673	 0.130231080072398 
674	 0.129553955213755 
675	 0.129419817813069 
676	 0.129861923140612 
677	 0.12978829415321 
678	 0.129872013718291 
679	 0.130475190088638 
680	 0.13140581992333 
681	 0.132558125906537 
682	 0.133802325189056 
683	 0.135390927364675 
684	 0.137366466883804 
685	 0.139705163795003 
686	 0.142441179285795 
687	 0.145530548247323 
688	 0.148650427893535 
689	 0.151613421787309 
690	 0.154869522489229 
691	 0.158155184047579 
692	 0.161640941087006 
693	 0.166209785201352 
694	 0.170880880426131 
695	 0.174414732113732 
696	 0.177593728247719 
697	 0.180806894518239 
698	 0.184808523204061 
699	 0.188539120556171 
700	 0.191511432743041 
701	 0.194679299328554 
702	 0.197873453579232 
703	 0.200748324625777 
704	 0.203486519324349 
705	 0.206121503304842 
706	 0.208447029251612 
707	 0.210868162195106 
708	 0.213548807525053 
709	 0.215592530585199 
710	 0.217303538489018 
711	 0.219452748616626 
712	 0.221588975084015 
713	 0.223594094756985 
714	 0.225662979179963 
715	 0.227352472116304 
716	 0.228376119095314 
717	 0.229905281177966 
718	 0.232025470256306 
719	 0.2337791405822 
720	 0.235106267699538 
721	 0.236019278735045 
722	 0.236898923185448 
723	 0.238196653991139 
724	 0.240316871113455 
725	 0.241718717636861 
726	 0.242381258378774 
727	 0.243954210378464 
728	 0.244912050577063 
729	 0.244831779119547 
730	 0.246295475817645 
731	 0.24834474249972 
732	 0.249289498406958 
733	 0.249956307812747 
734	 0.250709805695967 
735	 0.252097029364603 
736	 0.253408938303084 
737	 0.254160676929332 
738	 0.254958002799813 
739	 0.255832614403694 
740	 0.256668584584737 
741	 0.257474011227995 
742	 0.258305437168971 
743	 0.259452809979429 
744	 0.260395027493908 
745	 0.260738188968436 
746	 0.261259064086938 
747	 0.262006664265492 
748	 0.262722636490939 
749	 0.263612153240023 
750	 0.264699548093058 
751	 0.265838935266969 
752	 0.266643921275885 
753	 0.266766291317563 
754	 0.267088981963669 
755	 0.267768527731929 
756	 0.268943824315283 
757	 0.26850389201407 
758	 0.265931285050633 
759	 0.266365716640639 
760	 0.270374999585031 
761	 0.273708598599327 
762	 0.27445722529314 
763	 0.274013331301185 
764	 0.276461068227944 
765	 0.278788365482109 
766	 0.279759051677836 
767	 0.279564607950375 
768	 0.278982009279996 
769	 0.278739185492831 
770	 0.27920736441984 
771	 0.280243997816803 
772	 0.280841737114407 
773	 0.281500920872609 
774	 0.282544592511481 
775	 0.28379822924 
776	 0.28479294500778 
777	 0.284742103806977 
778	 0.285074100653682 
779	 0.286083257799388 
780	 0.286930762989425 
781	 0.287756611636745 
782	 0.288636541906793 
783	 0.288975159572056 
784	 0.289249546617815 
785	 0.290723422680991 
786	 0.291611799727599 
787	 0.291559740680299 
788	 0.291891440620557 
789	 0.292684658671232 
790	 0.293887362704723 
791	 0.294634557143031 
792	 0.295086530754319 
793	 0.29611390645287 
794	 0.296921013259721 
795	 0.297329551106639 
796	 0.297943843117632 
797	 0.298522343432799 
798	 0.298831445607145 
799	 0.299604887916653 
800	 0.300730765678397 
801	 0.301495394113085 
802	 0.302262300548767 
803	 0.303119345272757 
804	 0.303930345605682 
805	 0.304369464321368 
806	 0.304169041868353 
807	 0.304600908589499 
808	 0.305693857339903 
809	 0.306757915822284 
810	 0.307502257361252 
811	 0.307846565342516 
812	 0.308569578070445 
813	 0.309016634138147 
814	 0.308315071018236 
815	 0.309572911403455 
816	 0.312628482438527 
817	 0.314361019160599 
818	 0.315108515090551 
819	 0.315193425968378 
820	 0.315770773931067 
821	 0.316634870710964 
822	 0.317443637014824 
823	 0.319279100078442 
824	 0.321110470549458 
825	 0.319457894910297 
826	 0.318716748036765 
827	 0.320441774279101 
828	 0.321801527636676 
829	 0.322364985619492 
830	 0.321998732263167 
831	 0.322627789983935 
832	 0.324254962932826 
833	 0.325638115525939 
834	 0.326420109678326 
835	 0.326473086571688 
836	 0.326218455022766 
837	 0.326385775259561 
838	 0.327681116148813 
839	 0.328647003160454 
840	 0.3291986435424 
841	 0.330142983850487 
842	 0.330777812394625 
843	 0.330941364569574 
844	 0.331633118249126 
845	 0.331935384565246 
846	 0.330841969220814 
847	 0.330747389972136 
848	 0.331697756388565 
849	 0.332376669927375 
850	 0.332319793883793 
851	 0.331863918778648 
852	 0.334395649811887 
853	 0.337302158814053 
854	 0.33757864859154 
855	 0.337637591590641 
856	 0.337457284125893 
857	 0.335264677096417 
858	 0.335998832308909 
859	 0.340061266207547 
860	 0.340267024852594 
861	 0.338963870801905 
862	 0.338743438607056 
863	 0.338282294624507 
864	 0.338081737871859 
865	 0.339669916268833 
866	 0.341512389833607 
867	 0.342919361176739 
868	 0.343718242146537 
869	 0.344361835037503 
870	 0.345198046693254 
871	 0.345576614259529 
872	 0.345639691369101 
873	 0.345720670291915 
874	 0.347087983561841 
875	 0.349638397188446 
876	 0.351252596979933 
877	 0.352260249305246 
878	 0.353023686854797 
879	 0.354164708285828 
880	 0.355594916163684 
881	 0.357015362826288 
882	 0.357815985735871 
883	 0.358204311214677 
884	 0.359485720495504 
885	 0.361227920555864 
886	 0.362814198168406 
887	 0.361899115271225 
888	 0.360654973488513 
889	 0.362170673260085 
890	 0.361766732649123 
891	 0.35979826479245 
892	 0.360860494692237 
893	 0.361899895468755 
894	 0.362032760234642 
895	 0.36507400790712 
896	 0.367962786664599 
897	 0.367032008648201 
898	 0.369034324531761 
899	 0.373471401116219 
900	 0.375426479760916 
901	 0.376426392202319 
902	 0.376757728152651 
903	 0.375837582883314 
904	 0.374789140400384 
905	 0.374635011107456 
906	 0.376284265130981 
907	 0.378518321916341 
908	 0.378907197937644 
909	 0.379511499988424 
910	 0.380537934558362 
911	 0.380511245237328 
912	 0.380204066732258 
913	 0.380399422602895 
914	 0.383038548297297 
915	 0.385336472919682 
916	 0.38387874069183 
917	 0.384399638657522 
918	 0.386141623186407 
919	 0.383390824164272 
920	 0.382789806879987 
921	 0.385431327989961 
922	 0.384178035407623 
923	 0.382915970028121 
924	 0.384710063113169 
925	 0.380534891250535 
926	 0.373551176814105 
927	 0.373873904237859 
928	 0.375518669617873 
929	 0.377184163516982 
930	 0.382579916391761 
931	 0.385220203819954 
932	 0.381172828563296 
933	 0.389861149765401 
934	 0.400626696724766 
935	 0.394118811288132 
936	 0.390361784065627 
937	 0.391166575774607 
938	 0.387438887957119 
939	 0.384503969875658 
940	 0.384006539920766 
941	 0.386005791532091 
942	 0.387882349066898 
943	 0.387965422527041 
944	 0.389767574937623 
945	 0.391806664206005 
946	 0.39104580475741 
947	 0.391488776159282 
948	 0.392451682692078 
949	 0.388788495947937 
950	 0.382790905661349 
951	 0.377290549117563 
952	 0.380894776998938 
953	 0.388112476665099 
954	 0.392921123032707 
955	 0.38947723394908 
956	 0.383359663535551 
957	 0.386032981440711 
958	 0.389528261206222 
959	 0.391141187026176 
960	 0.389487424323899 
961	 0.387076979999555 
962	 0.385874305054535 
963	 0.38819268969907 
964	 0.39064217084348 
965	 0.390093478785343 
966	 0.391549762118757 
967	 0.392904648838518 
968	 0.388339967406535 
969	 0.386613203543808 
970	 0.388228695048832 
971	 0.385067733803758 
972	 0.384132744145101 
973	 0.388302071591227 
974	 0.389433775301807 
975	 0.390559192549155 
976	 0.395594109318614 
977	 0.39901323526167 
978	 0.398685141827577 
979	 0.392271341496089 
980	 0.390262352141283 
981	 0.393934661307643 
982	 0.39342214579178 
983	 0.397364584253516 
984	 0.407300596363842 
985	 0.40390834201693 
986	 0.395614578750451 
987	 0.393695958442547 
988	 0.399854435875172 
989	 0.407099071802522 
990	 0.400840121134889 
991	 0.399253201320953 
992	 0.403638520192179 
993	 0.397877154725934 
994	 0.398690468274283 
995	 0.410358527040209 
996	 0.406539880601518 
997	 0.39681104520678 
998	 0.393128489846914 
999	 0.399087219866488 
1000	 0.40690548597092 
1001	 0.402486076198635 
1002	 0.401199200432622 
1003	 0.405038818803534 
1004	 0.406536507211393 
1005	 0.409695727216987 
1006	 0.413637378260191 
1007	 0.406235541184486 
1008	 0.402935482297454 
1009	 0.413392890913189 
1010	 0.408652351786477 
1011	 0.402654371231802 
1012	 0.418738280881969 
1013	 0.417525450710523 
1014	 0.404894227830787 
1015	 0.41674869536597 
1016	 0.418941311182704 
1017	 0.408868984725498 
1018	 0.42048737499211 
1019	 0.425673483138316 
1020	 0.41312740003704 
1021	 0.418223714664622 
1022	 0.423054238081555 
1023	 0.409446792785624 
1024	 0.408947031049108 
1025	 0.417068874193729 
1026	 0.417996485881215 
1027	 0.418018653381633 
1028	 0.417711367240206 
1029	 0.41371246711182 
1030	 0.419679702052402 
1031	 0.434778843639864 
1032	 0.431314592469664 
1033	 0.425923084364844 
1034	 0.428102948583116 
1035	 0.420618394424579 
1036	 0.416563389902331 
1037	 0.429258727648705 
1038	 0.424524800548639 
1039	 0.411188220062359 
1040	 0.414282861327196 
1041	 0.418382451937065 
1042	 0.421800521852438 
1043	 0.431574916003944 
1044	 0.429859877051515 
1045	 0.413852318704957 
1046	 0.401024623629248 
1047	 0.396774162575961 
1048	 0.40172151001562 
1049	 0.394504670146507 
1050	 0.395403307971784 
1051	 0.420950810564935 
1052	 0.42036744271108 
1053	 0.41053529742403 
1054	 0.427828795966311 
1055	 0.428319283563189 
1056	 0.419295024180571 
1057	 0.439568734797825 
1058	 0.455078143331881 
1059	 0.451500422536312 
1060	 0.414924201911228 
1061	 0.398827584444225 
1062	 0.420528823026604 
1063	 0.412415226152696 
1064	 0.401296029215237 
1065	 0.406916293374663 
1066	 0.408196587987263 
1067	 0.40737290888248 
1068	 0.410130550519352 
1069	 0.429008666067084 
1070	 0.437405280260778 
1071	 0.39248051312977 
1072	 0.378177922632388 
1073	 0.403718138976322 
1074	 0.43104089506664 
1075	 0.447338012557246 
