Wavelength	SHSI00209.asd
325	 0.105036767894911 
326	 0.103987127909945 
327	 9.95300547766704E-02 
328	 0.106155811672047 
329	 0.110238348209555 
330	 0.107124958727509 
331	 0.100859997562086 
332	 9.91535926889788E-02 
333	 0.107741005826951 
334	 0.10642502389271 
335	 9.82242251732341E-02 
336	 9.79481449582578E-02 
337	 0.10032567887582 
338	 0.102239334386292 
339	 9.57523752166621E-02 
340	 9.29800575150957E-02 
341	 0.102420542248681 
342	 0.106175817953529 
343	 0.104748997684793 
344	 0.104342082546728 
345	 0.104986589042169 
346	 0.106215454356871 
347	 0.10510062479569 
348	 0.105323262116533 
349	 0.108648525095876 
350	 0.108343866064578 
351	 0.106675473569033 
352	 0.10846366328577 
353	 0.110175022252494 
354	 0.110672508022625 
355	 0.108933822874207 
356	 0.108037747066115 
357	 0.10985008942753 
358	 0.113214936692303 
359	 0.115660400515001 
360	 0.114016086827393 
361	 0.112140382529387 
362	 0.110989715420139 
363	 0.10973539504096 
364	 0.109546954720994 
365	 0.110833627932236 
366	 0.112218059583992 
367	 0.113065719831817 
368	 0.112734448110269 
369	 0.113656193560701 
370	 0.115639517794925 
371	 0.115761918561271 
372	 0.116736407472225 
373	 0.119224541647686 
374	 0.117264048157016 
375	 0.113940838185829 
376	 0.114196999603473 
377	 0.112348508611362 
378	 0.109440890364214 
379	 0.113139345137421 
380	 0.115797374304559 
381	 0.114414121905916 
382	 0.11834385108071 
383	 0.12120561271452 
384	 0.113835963080485 
385	 0.111358048452139 
386	 0.114297188199225 
387	 0.112894383581151 
388	 0.110258346553494 
389	 0.108252926229253 
390	 0.109703668748318 
391	 0.112159762869777 
392	 0.112461960745253 
393	 0.112046345896593 
394	 0.111156354607935 
395	 0.109584301784276 
396	 0.108951499917204 
397	 0.109288633032256 
398	 0.107261434188925 
399	 0.104680520126034 
400	 0.103525947810197 
401	 0.104062418672768 
402	 0.105783841207016 
403	 0.107600349496556 
404	 0.108622648434085 
405	 0.108647801530372 
406	 0.10925523061053 
407	 0.109744174833005 
408	 0.109112062935657 
409	 0.108197964204049 
410	 0.107480888710273 
411	 0.107656034393862 
412	 0.10793986422094 
413	 0.107904763143494 
414	 0.107442917501825 
415	 0.107088319776956 
416	 0.107522639081786 
417	 0.107744981946352 
418	 0.107758915320014 
419	 0.108477795948343 
420	 0.108669962480966 
421	 0.107873923049419 
422	 0.107932102371655 
423	 0.108163146715099 
424	 0.107256736633555 
425	 0.107042377943262 
426	 0.107836124903175 
427	 0.10912197432445 
428	 0.109705117337768 
429	 0.108924174367655 
430	 0.108489031621842 
431	 0.108204439723752 
432	 0.107352246422457 
433	 0.106465180479237 
434	 0.105868941418928 
435	 0.10592705404762 
436	 0.106986556064073 
437	 0.10895622472486 
438	 0.1089306731605 
439	 0.107912182436358 
440	 0.108571838436929 
441	 0.108712086482755 
442	 0.108188664637891 
443	 0.109047485273332 
444	 0.110242885846841 
445	 0.110859309870654 
446	 0.111106918565954 
447	 0.111207644156688 
448	 0.111572032078505 
449	 0.112051420033522 
450	 0.112565294341088 
451	 0.112870711752197 
452	 0.113349983956794 
453	 0.114370293472552 
454	 0.115425989700379 
455	 0.116193874033492 
456	 0.116162125610482 
457	 0.115977217083775 
458	 0.115953255680657 
459	 0.116009113221933 
460	 0.116330523927254 
461	 0.117105928162282 
462	 0.117249013840016 
463	 0.116926644717353 
464	 0.117462476020514 
465	 0.118115654925892 
466	 0.11849834112229 
467	 0.118704035359205 
468	 0.118974092691591 
469	 0.119654070396692 
470	 0.119598840346254 
471	 0.119061381282062 
472	 0.119949015410598 
473	 0.121127688181605 
474	 0.121806373539549 
475	 0.121906248665843 
476	 0.121739637153334 
477	 0.121867342235382 
478	 0.12205921206525 
479	 0.122331414976746 
480	 0.122954477561316 
481	 0.123594598629648 
482	 0.123993445180956 
483	 0.124480540669911 
484	 0.124974802339112 
485	 0.125138848754041 
486	 0.12538043662075 
487	 0.125640210096761 
488	 0.124885436984466 
489	 0.123884138265508 
490	 0.123495971603622 
491	 0.124212365236686 
492	 0.125474749792219 
493	 0.125579457103754 
494	 0.125535429627838 
495	 0.125832983208647 
496	 0.126621500531596 
497	 0.127713409426922 
498	 0.128846459073013 
499	 0.129414256026395 
500	 0.129476492343222 
501	 0.129819153015184 
502	 0.130247744805324 
503	 0.130674518119241 
504	 0.131255672943708 
505	 0.132048661247451 
506	 0.133115073006198 
507	 0.134225322994778 
508	 0.135356387375753 
509	 0.13668413918377 
510	 0.138255964221099 
511	 0.140007953507529 
512	 0.140778115879271 
513	 0.141110609447495 
514	 0.142721288970709 
515	 0.144361314650115 
516	 0.145538018920681 
517	 0.146211274871373 
518	 0.146737269384202 
519	 0.147487238012855 
520	 0.1477501393123 
521	 0.148012302435629 
522	 0.149892320635897 
523	 0.151939125071524 
524	 0.153490193128255 
525	 0.15501360703003 
526	 0.156300806636596 
527	 0.157005019417924 
528	 0.157487499370878 
529	 0.158058288493553 
530	 0.159256145382721 
531	 0.160902295849432 
532	 0.162752441059977 
533	 0.163803013614706 
534	 0.164364613951759 
535	 0.165325466478329 
536	 0.166532932126612 
537	 0.167887820538004 
538	 0.168996323810675 
539	 0.170080155700099 
540	 0.171335065670026 
541	 0.172077617543051 
542	 0.172488378538845 
543	 0.173325762717234 
544	 0.174561910118126 
545	 0.176042548242956 
546	 0.176806099860464 
547	 0.177317059677265 
548	 0.178289941396178 
549	 0.179491760690848 
550	 0.180705985158906 
551	 0.181404141267007 
552	 0.182005627685494 
553	 0.182817378065415 
554	 0.184011665598929 
555	 0.185279983702205 
556	 0.185996843701983 
557	 0.186926250946377 
558	 0.188102587638593 
559	 0.188550067509581 
560	 0.188848231449658 
561	 0.189554414619891 
562	 0.190250094586108 
563	 0.190945402827859 
564	 0.191935697928741 
565	 0.192548527165176 
566	 0.192573705000954 
567	 0.192600298155254 
568	 0.192914511346511 
569	 0.19379047570414 
570	 0.194089118576657 
571	 0.19382472097989 
572	 0.194076982431078 
573	 0.194546444950855 
574	 0.195044015359972 
575	 0.195478445648672 
576	 0.195895874898341 
577	 0.196417997931406 
578	 0.196939723023444 
579	 0.197369901576423 
580	 0.197442913724479 
581	 0.197727944125587 
582	 0.19865540031107 
583	 0.199002173324017 
584	 0.198801933054533 
585	 0.198614224303518 
586	 0.199046685332703 
587	 0.200178372602975 
588	 0.200585380612529 
589	 0.200520820778958 
590	 0.20050253650435 
591	 0.200233882768269 
592	 0.199944874151859 
593	 0.200438918805746 
594	 0.201088618813953 
595	 0.201533965971619 
596	 0.202083922289842 
597	 0.202724544190167 
598	 0.203428419781219 
599	 0.20355478179895 
600	 0.203090984533071 
601	 0.202911547393055 
602	 0.202940770390732 
603	 0.203096157612303 
604	 0.203640080038707 
605	 0.204288672487128 
606	 0.204292425229934 
607	 0.204056709598957 
608	 0.20374620871815 
609	 0.203427986993691 
610	 0.202908150928561 
611	 0.201945229697925 
612	 0.201829821608602 
613	 0.202284122970389 
614	 0.201240378017401 
615	 0.200327486978583 
616	 0.200416671363909 
617	 0.199887658942501 
618	 0.199074349726203 
619	 0.198896274898698 
620	 0.198943129240265 
621	 0.199065328385063 
622	 0.199158104918763 
623	 0.199152069543797 
624	 0.199021928606223 
625	 0.199232755477828 
626	 0.199694969474602 
627	 0.199923838724253 
628	 0.20031644853134 
629	 0.200893943572854 
630	 0.200981967834542 
631	 0.200612642195263 
632	 0.199919345007355 
633	 0.19997324161233 
634	 0.200650013794338 
635	 0.200546118932549 
636	 0.200613873000649 
637	 0.20134916566543 
638	 0.201977101115208 
639	 0.202427688607927 
640	 0.202761147102607 
641	 0.203196811399068 
642	 0.203653885531732 
643	 0.203389462658067 
644	 0.203395262214214 
645	 0.204468318035398 
646	 0.204919177546507 
647	 0.204708077829342 
648	 0.204689497349137 
649	 0.204276100804106 
650	 0.203408840271308 
651	 0.202894418647221 
652	 0.2026681005226 
653	 0.202550407779343 
654	 0.2018214080896 
655	 0.200160493687941 
656	 0.197440784293661 
657	 0.194773418172384 
658	 0.192944407303639 
659	 0.191504813125757 
660	 0.189993374188009 
661	 0.187853176733223 
662	 0.185400233483561 
663	 0.182811290953691 
664	 0.180447750250684 
665	 0.177942808186926 
666	 0.175079585160607 
667	 0.173259318837079 
668	 0.172244762442851 
669	 0.170855966831115 
670	 0.169436647216164 
671	 0.168175999244939 
672	 0.167648993285715 
673	 0.167256114905002 
674	 0.166283164921964 
675	 0.165947143128584 
676	 0.166325189685845 
677	 0.16678011692359 
678	 0.167293093610686 
679	 0.167911045190842 
680	 0.169093774195771 
681	 0.170832410740048 
682	 0.173001773520766 
683	 0.175973137710135 
684	 0.179557399801034 
685	 0.182840585564306 
686	 0.18655477692501 
687	 0.191295515498763 
688	 0.19663276191699 
689	 0.202028613065832 
690	 0.207667465556167 
691	 0.213691090869243 
692	 0.220148258645967 
693	 0.226535975923151 
694	 0.23285545470039 
695	 0.238855758381451 
696	 0.24468501604568 
697	 0.250461701866752 
698	 0.256697711564099 
699	 0.262517290508987 
700	 0.26744129018421 
701	 0.272156131667887 
702	 0.276798700275709 
703	 0.281488726605267 
704	 0.285515813212025 
705	 0.288967011748582 
706	 0.292576506012702 
707	 0.296008097409837 
708	 0.299054829059271 
709	 0.302005664305401 
710	 0.304907544337413 
711	 0.307757565644218 
712	 0.310370584078296 
713	 0.312777806849814 
714	 0.315500505348703 
715	 0.317911022631197 
716	 0.319561538314177 
717	 0.321381040106112 
718	 0.323732286738312 
719	 0.326679183664786 
720	 0.328999201937737 
721	 0.33023236185071 
722	 0.331041337973791 
723	 0.332231831070088 
724	 0.334569643832642 
725	 0.33662290065995 
726	 0.338044589900655 
727	 0.339518661668265 
728	 0.34058812775263 
729	 0.341247958624278 
730	 0.343053040901497 
731	 0.344914218217876 
732	 0.345144452308576 
733	 0.345687478110987 
734	 0.346946842287528 
735	 0.34870686257462 
736	 0.349993205748289 
737	 0.350245779317824 
738	 0.351162748854944 
739	 0.352670131265031 
740	 0.354231884153888 
741	 0.354812646126297 
742	 0.354566924718448 
743	 0.355731461724686 
744	 0.357033619615716 
745	 0.357388223542426 
746	 0.357792309831672 
747	 0.358562514713901 
748	 0.360121532532852 
749	 0.361317460400004 
750	 0.361813740929654 
751	 0.362441040535297 
752	 0.363295327972236 
753	 0.36438172102382 
754	 0.364908396842299 
755	 0.365140187651755 
756	 0.366659797812883 
757	 0.366246100578617 
758	 0.3630170179274 
759	 0.363263581612586 
760	 0.36864999928072 
761	 0.376189196767396 
762	 0.377736314950813 
763	 0.375102950009151 
764	 0.377825968196044 
765	 0.379506536388993 
766	 0.378425025597847 
767	 0.377986662394627 
768	 0.378055034398787 
769	 0.378225781717723 
770	 0.37823293425393 
771	 0.378271252655316 
772	 0.379269288241231 
773	 0.380617283886369 
774	 0.381824489712046 
775	 0.38249504980906 
776	 0.382883285599277 
777	 0.383589502944581 
778	 0.384095341876678 
779	 0.384484147530047 
780	 0.38572995869802 
781	 0.386895466618965 
782	 0.387265582748736 
783	 0.387719578141117 
784	 0.388386749893132 
785	 0.38925661258466 
786	 0.389749914191781 
787	 0.389895583510651 
788	 0.39082593097921 
789	 0.39197779048063 
790	 0.392774534159663 
791	 0.393579741284641 
792	 0.394382248947921 
793	 0.395039426925451 
794	 0.395512099530777 
795	 0.395892202360374 
796	 0.396749636151582 
797	 0.39738344215364 
798	 0.397157490613664 
799	 0.397774242563791 
800	 0.399155128052884 
801	 0.400208898314226 
802	 0.400857155244581 
803	 0.401135703893494 
804	 0.401768976949516 
805	 0.402420395899774 
806	 0.40270289714196 
807	 0.40337416525655 
808	 0.404394088968411 
809	 0.405250255408313 
810	 0.405750736371666 
811	 0.405889966553526 
812	 0.406313635207278 
813	 0.407068490393593 
814	 0.408151173299597 
815	 0.410454726700139 
816	 0.413577297024917 
817	 0.415888001886548 
818	 0.416746718109123 
819	 0.416097381796503 
820	 0.415015444369859 
821	 0.415034548752297 
822	 0.417760391028728 
823	 0.420892920707309 
824	 0.422821060782443 
825	 0.421169494615564 
826	 0.419821770977431 
827	 0.42044391304318 
828	 0.42206083850321 
829	 0.423336905578194 
830	 0.422834346813934 
831	 0.423939540411837 
832	 0.426126694660954 
833	 0.425678332461468 
834	 0.425324209652384 
835	 0.425984339049529 
836	 0.425755631560909 
837	 0.425370913802689 
838	 0.425807098664029 
839	 0.426925228161297 
840	 0.428233670417046 
841	 0.428530953601934 
842	 0.428501327222417 
843	 0.428403761605041 
844	 0.427904204180231 
845	 0.427652387026111 
846	 0.428341522898126 
847	 0.429020961888367 
848	 0.429230843034997 
849	 0.428203886787478 
850	 0.42765700560299 
851	 0.428349130815649 
852	 0.429687654387969 
853	 0.431241382985556 
854	 0.432570244438276 
855	 0.433751029756804 
856	 0.434307066020511 
857	 0.433007101829653 
858	 0.432171039667084 
859	 0.432566132480394 
860	 0.433401321483735 
861	 0.433868362539547 
862	 0.433325307164595 
863	 0.433267142314869 
864	 0.433891495787812 
865	 0.434797223267374 
866	 0.437096458677429 
867	 0.440218766726985 
868	 0.440198411066667 
869	 0.43944596623662 
870	 0.440003821757521 
871	 0.440241685976412 
872	 0.440254217142787 
873	 0.440577401720119 
874	 0.441631874315877 
875	 0.443419363434096 
876	 0.445306449225879 
877	 0.447025699188871 
878	 0.448515499990586 
879	 0.450834385813977 
880	 0.453210522007088 
881	 0.454215602246957 
882	 0.454952781071458 
883	 0.455742234531051 
884	 0.456549833795437 
885	 0.457375342031364 
886	 0.458257066275649 
887	 0.459422480590916 
888	 0.460694637512467 
889	 0.461798215298924 
890	 0.4607636957113 
891	 0.458756871762428 
892	 0.460947002074853 
893	 0.462503931253447 
894	 0.46184417559259 
895	 0.464103246205179 
896	 0.468160304320145 
897	 0.472010316653125 
898	 0.474543607053982 
899	 0.476333489550906 
900	 0.480216279535525 
901	 0.479968291477435 
902	 0.475530441454977 
903	 0.475847244058605 
904	 0.476745773049481 
905	 0.475286992528381 
906	 0.476856019132274 
907	 0.480704132730729 
908	 0.484271200054789 
909	 0.483141077859311 
910	 0.478700391034403 
911	 0.481474654811953 
912	 0.486370906490371 
913	 0.489858663116107 
914	 0.490171360842139 
915	 0.489526147086923 
916	 0.490834190868788 
917	 0.489908048035075 
918	 0.487563916203128 
919	 0.488130254780712 
920	 0.489091156521164 
921	 0.489010451612362 
922	 0.485278819499426 
923	 0.482255473917921 
924	 0.483485910929029 
925	 0.482865441727439 
926	 0.48045747130962 
927	 0.47863849653661 
928	 0.478359501654144 
929	 0.480117830121187 
930	 0.483604192569864 
931	 0.485330247457102 
932	 0.483305036928834 
933	 0.48869621593357 
934	 0.499451685181099 
935	 0.509321603768099 
936	 0.510661324386592 
937	 0.504228165924497 
938	 0.498116778573237 
939	 0.490360229061076 
940	 0.483175424990043 
941	 0.486027884408648 
942	 0.489906092436137 
943	 0.488639662208927 
944	 0.491313004355868 
945	 0.495560872324277 
946	 0.495920782522429 
947	 0.493002704237638 
948	 0.489039197733306 
949	 0.491087588664923 
950	 0.489118976011309 
951	 0.481820845788461 
952	 0.487636158421895 
953	 0.49356582726441 
954	 0.488457774106228 
955	 0.491804270431723 
956	 0.497751342509052 
957	 0.49018485252637 
958	 0.49089429928011 
959	 0.50101335080518 
960	 0.505626882591553 
961	 0.50466844816494 
962	 0.499489533378602 
963	 0.497322115728608 
964	 0.496209197365012 
965	 0.493797970967158 
966	 0.492592934631379 
967	 0.491208622935119 
968	 0.485803270009521 
969	 0.48496652781266 
970	 0.48960138598317 
971	 0.494053952424537 
972	 0.495895032392291 
973	 0.494460036294496 
974	 0.494252604714266 
975	 0.497337451664744 
976	 0.504657563606729 
977	 0.50318675788433 
978	 0.497246958394211 
979	 0.501776567598522 
980	 0.500519916459422 
981	 0.492980474212293 
982	 0.495504910904839 
983	 0.49764048835653 
984	 0.494738070071868 
985	 0.495755375666273 
986	 0.498213200379298 
987	 0.498757801414199 
988	 0.501135935246462 
989	 0.501994395553344 
990	 0.493064510970777 
991	 0.494940451387809 
992	 0.50730696483744 
993	 0.50667831404125 
994	 0.502745742249527 
995	 0.500775195019431 
996	 0.501279097789132 
997	 0.500861285640488 
998	 0.496598597418254 
999	 0.495024782364074 
1000	 0.497819639848424 
1001	 0.505778528647818 
1002	 0.504541627062373 
1003	 0.496390650624024 
1004	 0.502217186076588 
1005	 0.506989529329732 
1006	 0.506060138149183 
1007	 0.509433794022913 
1008	 0.511651940476251 
1009	 0.508660990763272 
1010	 0.506408499121591 
1011	 0.505344142022815 
1012	 0.505215183384172 
1013	 0.510344994316809 
1014	 0.51612891620969 
1015	 0.508809662371977 
1016	 0.504965454333734 
1017	 0.508203782077873 
1018	 0.510206988303194 
1019	 0.513982741629885 
1020	 0.518913171263422 
1021	 0.511201279104002 
1022	 0.503389408204842 
1023	 0.508193651430599 
1024	 0.511538351412062 
1025	 0.51366798413941 
1026	 0.518863792551846 
1027	 0.514339655553534 
1028	 0.503159920378093 
1029	 0.504464641434913 
1030	 0.505436195583211 
1031	 0.505274324257562 
1032	 0.520908772623915 
1033	 0.531581905497602 
1034	 0.525198279652877 
1035	 0.518939007999141 
1036	 0.510295473267947 
1037	 0.49741458865507 
1038	 0.50440568960115 
1039	 0.521647131120636 
1040	 0.525505788788688 
1041	 0.528786799354444 
1042	 0.527367879780713 
1043	 0.496764406867614 
1044	 0.496865556732876 
1045	 0.533596641249509 
1046	 0.531194567599554 
1047	 0.514781852921617 
1048	 0.502174896609621 
1049	 0.493049292949959 
1050	 0.497691595274538 
1051	 0.519431280946131 
1052	 0.502053179408345 
1053	 0.47373087771358 
1054	 0.492360922442587 
1055	 0.515037887704659 
1056	 0.529376821233501 
1057	 0.524248864159958 
1058	 0.510525208657355 
1059	 0.497056758292484 
1060	 0.497796391452952 
1061	 0.498934444286224 
1062	 0.494298145382142 
1063	 0.489333100592394 
1064	 0.484696402344629 
1065	 0.483790585779701 
1066	 0.511222189552093 
1067	 0.530179098231001 
1068	 0.504846377268565 
1069	 0.493398776199805 
1070	 0.498769965060899 
1071	 0.504475370773237 
1072	 0.523003624178536 
1073	 0.539182764377286 
1074	 0.526885553283254 
1075	 0.497776065892112 
