Wavelength	SHSI00318.asd
325	 5.49684081814391E-02 
326	 0.05883635668147 
327	 5.12668846063794E-02 
328	 0.053442865273812 
329	 5.23980863010298E-02 
330	 4.62764356223882E-02 
331	 5.04885841301816E-02 
332	 0.05662429565744 
333	 5.63254446002034E-02 
334	 5.82855697246599E-02 
335	 5.94661890634306E-02 
336	 4.81776494058074E-02 
337	 4.47472434837182E-02 
338	 5.21671485496786E-02 
339	 5.35770795136984E-02 
340	 5.15826043824985E-02 
341	 4.93828963023007E-02 
342	 5.07757140659408E-02 
343	 5.26188159202763E-02 
344	 4.75815538049558E-02 
345	 4.55332993154093E-02 
346	 0.047750913179732 
347	 0.0483777545272 
348	 4.86357071845401E-02 
349	 4.92329452325897E-02 
350	 4.79786068341266E-02 
351	 4.69032576094664E-02 
352	 4.96319042977633E-02 
353	 4.97038375230471E-02 
354	 4.75204454900627E-02 
355	 5.06186897303291E-02 
356	 5.32828208388257E-02 
357	 5.23150693946824E-02 
358	 5.13199782743005E-02 
359	 5.06096522192633E-02 
360	 0.049931212527564 
361	 5.02121642253259E-02 
362	 5.07114666847045E-02 
363	 0.048011328541739 
364	 4.70188504346493E-02 
365	 4.95968485019319E-02 
366	 4.96711116849263E-02 
367	 4.85114291151394E-02 
368	 4.86041559863742E-02 
369	 4.83236573216456E-02 
370	 4.74795744887324E-02 
371	 4.64329119123236E-02 
372	 4.61267639265575E-02 
373	 4.69257587582156E-02 
374	 4.75609885070573E-02 
375	 4.75542999274771E-02 
376	 4.65212214468237E-02 
377	 4.65782453372785E-02 
378	 4.75961781461825E-02 
379	 4.72478053304909E-02 
380	 4.73501927943126E-02 
381	 4.83572369782308E-02 
382	 0.047075412798139 
383	 4.54949228754566E-02 
384	 4.65060711086985E-02 
385	 0.046893316006618 
386	 4.65523366810669E-02 
387	 4.79365647330992E-02 
388	 4.78033324344654E-02 
389	 0.0452518871674 
390	 4.41108178964512E-02 
391	 4.39445715940716E-02 
392	 0.043808980595574 
393	 4.38722627017182E-02 
394	 4.40567333229649E-02 
395	 4.41906512976451E-02 
396	 4.43000786756346E-02 
397	 4.43853493680913E-02 
398	 4.44011108695969E-02 
399	 4.44524051412788E-02 
400	 4.46363854589936E-02 
401	 4.44279750757081E-02 
402	 4.39511603600093E-02 
403	 4.36104136132175E-02 
404	 4.38601122598802E-02 
405	 4.45469191238917E-02 
406	 4.33910561793676E-02 
407	 4.22885093215788E-02 
408	 4.37159113566557E-02 
409	 4.44428641556431E-02 
410	 4.40313268359461E-02 
411	 4.34280103920114E-02 
412	 4.29054796287711E-02 
413	 4.27139644908577E-02 
414	 4.33087466974197E-02 
415	 4.40107627279525E-02 
416	 4.39384735191466E-02 
417	 4.35157602736784E-02 
418	 4.30610156238714E-02 
419	 4.31927155367733E-02 
420	 4.34366846984951E-02 
421	 0.043528294950787 
422	 0.043595236187657 
423	 4.36126866935952E-02 
424	 4.35364478893736E-02 
425	 4.33312753031907E-02 
426	 4.31056197857113E-02 
427	 4.32043796492104E-02 
428	 4.35659938380673E-02 
429	 4.40448019992622E-02 
430	 4.39278370074891E-02 
431	 4.34886159047665E-02 
432	 4.33278141903671E-02 
433	 4.34945031203634E-02 
434	 4.37876859416772E-02 
435	 4.34426502309494E-02 
436	 4.29573787280252E-02 
437	 4.27329990019374E-02 
438	 4.32131649006306E-02 
439	 4.38930632508037E-02 
440	 4.37656725342798E-02 
441	 4.34629314871738E-02 
442	 4.32401572938655E-02 
443	 4.32849051693119E-02 
444	 0.043541177653167 
445	 4.38920128415953E-02 
446	 4.36280742099292E-02 
447	 4.30853484101268E-02 
448	 0.043252474429343 
449	 4.35533978527037E-02 
450	 4.37657928936196E-02 
451	 4.37483960862653E-02 
452	 4.38172233582048E-02 
453	 4.42522444682126E-02 
454	 4.42047146861835E-02 
455	 4.38153035063551E-02 
456	 4.39458245851781E-02 
457	 4.40516667427307E-02 
458	 4.39399782120086E-02 
459	 4.37914201726151E-02 
460	 4.37500915491487E-02 
461	 0.04395541224165 
462	 4.39288899180565E-02 
463	 4.37123435871317E-02 
464	 4.37641702860182E-02 
465	 4.39954499376132E-02 
466	 4.43094226344775E-02 
467	 4.43620904660075E-02 
468	 4.42419582643287E-02 
469	 4.41434570439801E-02 
470	 4.40980130548225E-02 
471	 4.40615016655996E-02 
472	 4.37515372946867E-02 
473	 4.37262579327242E-02 
474	 4.42552776599516E-02 
475	 4.44613724542723E-02 
476	 0.044423300978833 
477	 4.45091572428932E-02 
478	 4.44591283870797E-02 
479	 4.42742373242154E-02 
480	 4.42331107823631E-02 
481	 4.41971309290307E-02 
482	 4.40823312437141E-02 
483	 4.43662006359232E-02 
484	 0.044788876029614 
485	 4.45585866798572E-02 
486	 4.42459180678548E-02 
487	 4.40879778695022E-02 
488	 0.044119982819393 
489	 4.42570088124365E-02 
490	 4.44000790016165E-02 
491	 4.45864176059001E-02 
492	 4.46947029266152E-02 
493	 4.43601494648554E-02 
494	 4.41809849645488E-02 
495	 4.44210165804789E-02 
496	 4.49501780780739E-02 
497	 4.52216128748056E-02 
498	 4.45703196595181E-02 
499	 4.43802618793809E-02 
500	 4.48472077984301E-02 
501	 4.53946109763203E-02 
502	 4.56272052470186E-02 
503	 4.53729312914583E-02 
504	 4.54446666850674E-02 
505	 4.56521443601791E-02 
506	 4.54743446877913E-02 
507	 4.55967550023463E-02 
508	 4.60218813633035E-02 
509	 4.59501690248681E-02 
510	 4.58654097850269E-02 
511	 4.61265033140094E-02 
512	 4.60326013580479E-02 
513	 4.58109369757059E-02 
514	 4.62739732153656E-02 
515	 0.046668021196666 
516	 0.046713225364338 
517	 4.64190044975859E-02 
518	 0.046484045813042 
519	 4.75713676410123E-02 
520	 4.78071880478868E-02 
521	 4.73274965599683E-02 
522	 4.76129671901408E-02 
523	 4.78123044665669E-02 
524	 4.76525804811223E-02 
525	 0.047941112836148 
526	 4.83159044176202E-02 
527	 4.81599255431235E-02 
528	 4.79375823987797E-02 
529	 4.78582210566848E-02 
530	 0.04815346597981 
531	 4.85846335629529E-02 
532	 4.89400358847997E-02 
533	 4.88641414031369E-02 
534	 4.86102491129127E-02 
535	 4.87737415025413E-02 
536	 4.89367846897872E-02 
537	 4.89941152503251E-02 
538	 4.90351212979704E-02 
539	 0.049253493115746 
540	 4.97894811791304E-02 
541	 4.98699727794173E-02 
542	 4.95899038616996E-02 
543	 4.96387426293509E-02 
544	 4.96511403159899E-02 
545	 4.95386190510626E-02 
546	 4.96277272620363E-02 
547	 4.98563400973018E-02 
548	 5.01051494896876E-02 
549	 5.02708000763065E-02 
550	 5.03018033667687E-02 
551	 5.01212889707278E-02 
552	 5.00770741871003E-02 
553	 5.03619425157841E-02 
554	 5.05977690497931E-02 
555	 5.06803665312867E-02 
556	 5.05103004438298E-02 
557	 5.04927562800247E-02 
558	 5.07096112187179E-02 
559	 5.08571388643534E-02 
560	 5.08720716435376E-02 
561	 5.07206076139462E-02 
562	 5.05020494302936E-02 
563	 5.04596032460938E-02 
564	 5.12362599661263E-02 
565	 5.15972881197901E-02 
566	 5.11523493665905E-02 
567	 5.10345231868284E-02 
568	 5.11111530991097E-02 
569	 5.10788970774383E-02 
570	 5.11526925786767E-02 
571	 5.12820993577184E-02 
572	 5.11498940045249E-02 
573	 5.10205712232259E-02 
574	 0.051032354254516 
575	 5.08621326902975E-02 
576	 5.07129597344409E-02 
577	 5.10314563233297E-02 
578	 5.13448680763692E-02 
579	 5.14442322321248E-02 
580	 5.11861899994748E-02 
581	 5.08811847164468E-02 
582	 5.08074655355616E-02 
583	 5.07842043544264E-02 
584	 5.08145476446825E-02 
585	 5.10176297705727E-02 
586	 5.11055878765743E-02 
587	 5.09669128222794E-02 
588	 0.05075328918699 
589	 5.05976672126859E-02 
590	 5.06522684435654E-02 
591	 5.07584809180407E-02 
592	 5.08034853262341E-02 
593	 5.05691147517362E-02 
594	 5.04135987391499E-02 
595	 0.050539478918933 
596	 5.07277751583187E-02 
597	 5.08683314437863E-02 
598	 5.08283044728442E-02 
599	 0.050769448458984 
600	 5.07775756519853E-02 
601	 5.09924934379548E-02 
602	 5.11181484829847E-02 
603	 0.050910916185567 
604	 5.07635117086635E-02 
605	 5.07082691464466E-02 
606	 5.06446992138092E-02 
607	 5.04856349767577E-02 
608	 5.02491494654999E-02 
609	 5.02925851740924E-02 
610	 5.04141933897408E-02 
611	 5.03232199826949E-02 
612	 5.03870273141216E-02 
613	 0.050545694699991 
614	 5.03030800039239E-02 
615	 5.00934250818128E-02 
616	 5.01321287927076E-02 
617	 4.97730839286821E-02 
618	 4.94877510446661E-02 
619	 5.02698546860126E-02 
620	 5.05145129918987E-02 
621	 5.00203174131652E-02 
622	 0.050207367608108 
623	 5.04727833843867E-02 
624	 0.05025765214446 
625	 5.01289216281119E-02 
626	 5.00657499438963E-02 
627	 4.97003251129674E-02 
628	 4.95225325561367E-02 
629	 4.96753900688204E-02 
630	 4.97068913470716E-02 
631	 4.97090977926046E-02 
632	 4.98429070370471E-02 
633	 4.96909237016681E-02 
634	 4.93769621957526E-02 
635	 4.96179905853263E-02 
636	 4.99207510476847E-02 
637	 4.99826599745889E-02 
638	 4.99273505032674E-02 
639	 4.98155017490384E-02 
640	 4.97315343145802E-02 
641	 4.95903124134732E-02 
642	 4.94334018889875E-02 
643	 4.95229642967102E-02 
644	 4.96345993679312E-02 
645	 0.049571156301004 
646	 4.95265217037802E-02 
647	 4.95259010946804E-02 
648	 4.95859360962256E-02 
649	 4.93847216601551E-02 
650	 4.89304190520024E-02 
651	 0.049065851598082 
652	 4.93225927827446E-02 
653	 4.90684539966808E-02 
654	 4.88129515172496E-02 
655	 4.87252074858021E-02 
656	 4.90568841226791E-02 
657	 4.89923751352797E-02 
658	 4.82022047558559E-02 
659	 4.79768668666335E-02 
660	 4.80350571388785E-02 
661	 4.76965609945821E-02 
662	 4.73173392174941E-02 
663	 4.70135499801985E-02 
664	 4.68692815613841E-02 
665	 4.67016975397876E-02 
666	 4.63725049936108E-02 
667	 4.61529392231541E-02 
668	 0.046079343847219 
669	 4.61788864536897E-02 
670	 4.59547855920181E-02 
671	 4.53840278036191E-02 
672	 4.54939527422722E-02 
673	 4.58275782150798E-02 
674	 4.57752095114253E-02 
675	 4.57141569995596E-02 
676	 4.56463661811775E-02 
677	 4.52876200596244E-02 
678	 4.51481344454367E-02 
679	 4.54794976799148E-02 
680	 4.59163105634455E-02 
681	 4.62495642489247E-02 
682	 0.046236247862741 
683	 4.62427745301736E-02 
684	 4.64222543418193E-02 
685	 4.69414972592347E-02 
686	 4.73327297915345E-02 
687	 4.72479839764343E-02 
688	 4.79669683374521E-02 
689	 4.91103783625218E-02 
690	 0.04946225618161 
691	 4.98628783589158E-02 
692	 0.050457896234988 
693	 5.05791681646375E-02 
694	 5.07233782568566E-02 
695	 5.14018786125321E-02 
696	 5.18372646907259E-02 
697	 5.20852949909795E-02 
698	 5.27959985284886E-02 
699	 5.33243647229212E-02 
700	 5.34125683181049E-02 
701	 5.36283399913129E-02 
702	 5.39480728797041E-02 
703	 5.42446086096682E-02 
704	 5.47449151123862E-02 
705	 5.52792528268724E-02 
706	 0.055073831498882 
707	 0.054931234652915 
708	 0.055332283879105 
709	 5.55730012516499E-02 
710	 5.57007372462866E-02 
711	 0.056010696400167 
712	 5.60549917217574E-02 
713	 5.59011691756257E-02 
714	 5.65385341266206E-02 
715	 5.69888005563009E-02 
716	 5.63848917723364E-02 
717	 5.65382124321763E-02 
718	 0.057329917225144 
719	 5.69430123673512E-02 
720	 5.66033647279212E-02 
721	 5.66781788304166E-02 
722	 5.65171045441545E-02 
723	 5.63064337519297E-02 
724	 5.63009715382423E-02 
725	 5.65177002685751E-02 
726	 5.68718847660991E-02 
727	 5.71653538917701E-02 
728	 5.72927450960092E-02 
729	 5.72371184871979E-02 
730	 5.73256966406451E-02 
731	 5.75287448214569E-02 
732	 5.77571211191711E-02 
733	 0.057544699316949 
734	 5.70761484099848E-02 
735	 5.72863066519614E-02 
736	 5.78127588235264E-02 
737	 5.83247230657848E-02 
738	 5.82774673336226E-02 
739	 0.057953772644662 
740	 5.80458470140822E-02 
741	 5.80015582303237E-02 
742	 5.77977865208135E-02 
743	 0.05801382721479 
744	 5.83252414903815E-02 
745	 5.84371392794459E-02 
746	 0.058393431484264 
747	 0.058316298416131 
748	 0.05848236656606 
749	 5.86503404668676E-02 
750	 5.87541780739909E-02 
751	 5.89679728036043E-02 
752	 5.90883410273901E-02 
753	 5.88985709590821E-02 
754	 5.85243460125946E-02 
755	 5.81631451703052E-02 
756	 5.82591053168585E-02 
757	 5.84104409757069E-02 
758	 5.84058829200014E-02 
759	 0.058010939469092 
760	 5.75819196373909E-02 
761	 5.86528611639336E-02 
762	 5.91437692253888E-02 
763	 5.87564702680903E-02 
764	 5.84048384498086E-02 
765	 5.84842174408818E-02 
766	 5.89615320692572E-02 
767	 5.89773191643603E-02 
768	 5.89203655510145E-02 
769	 5.93225347164094E-02 
770	 5.94474207711581E-02 
771	 5.92521829928606E-02 
772	 5.92560503988403E-02 
773	 0.059325610023572 
774	 5.93746307022002E-02 
775	 5.95018283058562E-02 
776	 5.95190120066044E-02 
777	 5.90479811840241E-02 
778	 5.89352050569958E-02 
779	 5.92280131257282E-02 
780	 0.058887971079065 
781	 5.86729989878951E-02 
782	 5.91332321417267E-02 
783	 5.92275129140227E-02 
784	 5.90724114547278E-02 
785	 5.92762776686245E-02 
786	 5.96007035678858E-02 
787	 5.98836716194412E-02 
788	 5.97347527637545E-02 
789	 0.059472501805737 
790	 5.94263504582019E-02 
791	 5.96364690923155E-02 
792	 5.98609018440153E-02 
793	 5.94842168561789E-02 
794	 5.91365831789428E-02 
795	 5.90530595237283E-02 
796	 5.91019305800942E-02 
797	 5.93006558313038E-02 
798	 5.96316458407739E-02 
799	 5.94065537437263E-02 
800	 5.89055830905781E-02 
801	 5.92613274814153E-02 
802	 5.96763486160343E-02 
803	 5.97926772894853E-02 
804	 5.94198655738808E-02 
805	 5.92583524828796E-02 
806	 6.00135922315508E-02 
807	 6.02769164499983E-02 
808	 5.99559102001475E-02 
809	 5.96704136808462E-02 
810	 0.059373227673031 
811	 5.91314528141574E-02 
812	 5.91938511689409E-02 
813	 5.95163420147629E-02 
814	 5.99791754979626E-02 
815	 5.95885171487756E-02 
816	 5.86667148197893E-02 
817	 5.90505084931236E-02 
818	 5.96847420567575E-02 
819	 0.060015657123509 
820	 5.97979258379526E-02 
821	 5.96304535101901E-02 
822	 6.02126065009264E-02 
823	 6.04016395778815E-02 
824	 0.06010252977219 
825	 5.97108286991613E-02 
826	 6.00189721084212E-02 
827	 6.10594343182461E-02 
828	 6.06287633145687E-02 
829	 5.96612022459615E-02 
830	 5.95545415399283E-02 
831	 5.99298029332758E-02 
832	 6.04510999978124E-02 
833	 0.06040193646799 
834	 6.02591622878799E-02 
835	 6.02194928053388E-02 
836	 6.01149398246958E-02 
837	 6.01663758625167E-02 
838	 6.06025195131993E-02 
839	 6.05240895195668E-02 
840	 6.01493927622155E-02 
841	 6.07124199173266E-02 
842	 6.10626351323698E-02 
843	 6.08393627582229E-02 
844	 6.11034253614424E-02 
845	 6.11832530744731E-02 
846	 6.02965829812772E-02 
847	 5.99022400372382E-02 
848	 6.00959904668311E-02 
849	 6.02000805518139E-02 
850	 6.03398612987871E-02 
851	 6.05533406184417E-02 
852	 6.10346416205817E-02 
853	 6.10816409537199E-02 
854	 6.00658790954453E-02 
855	 6.02180122261638E-02 
856	 6.12455486261309E-02 
857	 6.12981847802964E-02 
858	 6.11691956019188E-02 
859	 0.061024204109444 
860	 6.04285897790488E-02 
861	 6.00038262670079E-02 
862	 6.03273832029861E-02 
863	 6.08325607699993E-02 
864	 0.061123114515218 
865	 6.05069779010825E-02 
866	 6.03368957718914E-02 
867	 6.08568825631038E-02 
868	 6.07930318144052E-02 
869	 6.05492632411481E-02 
870	 6.05004734008306E-02 
871	 6.04963478088003E-02 
872	 6.06412086336789E-02 
873	 6.12002627871554E-02 
874	 6.12104694294032E-02 
875	 6.08176894781174E-02 
876	 6.20669834668214E-02 
877	 6.25796261332919E-02 
878	 0.061007601618086 
879	 6.11310104872407E-02 
880	 6.22422612345156E-02 
881	 6.23711097138153E-02 
882	 6.14363434458031E-02 
883	 6.00759933087507E-02 
884	 6.06964964320244E-02 
885	 6.14433972230362E-02 
886	 6.13008086871129E-02 
887	 6.10285874333354E-02 
888	 6.11715183560843E-02 
889	 6.22951896364649E-02 
890	 6.21619528400271E-02 
891	 6.10591309573837E-02 
892	 6.17058252200211E-02 
893	 6.22744189620232E-02 
894	 6.19522018500387E-02 
895	 0.061240430885718 
896	 6.08876695164143E-02 
897	 6.16289750919755E-02 
898	 6.13458371722393E-02 
899	 6.04194794208048E-02 
900	 6.09014062284507E-02 
901	 6.18039959571561E-02 
902	 6.24614521798423E-02 
903	 6.15483490281195E-02 
904	 6.02148151138074E-02 
905	 5.95801129925541E-02 
906	 6.10127485897866E-02 
907	 0.062819299040403 
908	 6.16512265528044E-02 
909	 6.15818416189605E-02 
910	 6.28045109909796E-02 
911	 6.10918225844418E-02 
912	 6.07908896007002E-02 
913	 6.36240145087703E-02 
914	 6.32180064306901E-02 
915	 6.16487747931296E-02 
916	 6.21554034083093E-02 
917	 6.14054614481528E-02 
918	 5.97762328584615E-02 
919	 5.99054614458166E-02 
920	 6.09499465351952E-02 
921	 0.062202033338474 
922	 6.18320696203281E-02 
923	 6.05361505265234E-02 
924	 5.92006458559529E-02 
925	 5.97998008439519E-02 
926	 6.12724126961697E-02 
927	 6.05108249925866E-02 
928	 5.85902820992539E-02 
929	 5.65970965976186E-02 
930	 5.78192894729738E-02 
931	 6.13576439131824E-02 
932	 0.065051064502126 
933	 5.87087929499528E-02 
934	 0.051505267416517 
935	 5.89483147839933E-02 
936	 6.17142294696509E-02 
937	 5.73424397028977E-02 
938	 5.11107270619971E-02 
939	 5.31044062997023E-02 
940	 6.25688694025257E-02 
941	 6.03156439987067E-02 
942	 5.71307320960314E-02 
943	 6.05459414279481E-02 
944	 5.95011875480685E-02 
945	 5.82253248435174E-02 
946	 6.55259208716803E-02 
947	 6.79181644578075E-02 
948	 6.37115107055134E-02 
949	 5.92981492642488E-02 
950	 5.43897893448317E-02 
951	 5.10754329222567E-02 
952	 5.90459878795546E-02 
953	 6.60064495481913E-02 
954	 0.061557553856173 
955	 5.85845417749487E-02 
956	 5.79371718670658E-02 
957	 0.056902535067221 
958	 5.95296160302686E-02 
959	 6.44361440277265E-02 
960	 6.51145495540021E-02 
961	 6.25834915494917E-02 
962	 5.85324487380226E-02 
963	 5.83591157544685E-02 
964	 6.09994130094277E-02 
965	 6.44203224577745E-02 
966	 6.14234069097356E-02 
967	 5.58666377111719E-02 
968	 5.75103554224321E-02 
969	 6.17866156166373E-02 
970	 6.56770874795914E-02 
971	 6.33820720341932E-02 
972	 0.061301570279498 
973	 0.062453089517441 
974	 6.06317542704979E-02 
975	 5.93167664385965E-02 
976	 0.062475856839039 
977	 6.13779152012515E-02 
978	 5.80147996430808E-02 
979	 5.99724147987195E-02 
980	 6.48216387135638E-02 
981	 6.88677840027845E-02 
982	 6.18510751478354E-02 
983	 5.57820938071374E-02 
984	 5.72980380753309E-02 
985	 5.96955001549054E-02 
986	 6.34667957491052E-02 
987	 6.92192532317372E-02 
988	 7.02343762947724E-02 
989	 6.77304602129201E-02 
990	 6.69046377916612E-02 
991	 6.41251224206954E-02 
992	 6.04477912914599E-02 
993	 6.29803855616644E-02 
994	 6.52132418739302E-02 
995	 6.43206866865276E-02 
996	 6.50389774037572E-02 
997	 6.56450998217316E-02 
998	 6.42235606613656E-02 
999	 6.23223703592451E-02 
1000	 5.98032403753467E-02 
1001	 5.59229467572358E-02 
1002	 5.25201999104118E-02 
1003	 5.25998375074156E-02 
1004	 6.36747306032676E-02 
1005	 0.072037328168076 
1006	 7.25295717168408E-02 
1007	 7.14173112973189E-02 
1008	 7.07056854275567E-02 
1009	 7.10326309630869E-02 
1010	 6.47452835140407E-02 
1011	 5.87400684270398E-02 
1012	 6.33609135084995E-02 
1013	 6.61391867619939E-02 
1014	 6.42435268193504E-02 
1015	 0.057404558193727 
1016	 5.59600404448531E-02 
1017	 6.14935292118412E-02 
1018	 6.42120025257274E-02 
1019	 6.68316831683168E-02 
1020	 6.90496272701697E-02 
1021	 6.03504903143496E-02 
1022	 5.11598327025524E-02 
1023	 5.30878238858193E-02 
1024	 5.91214706616393E-02 
1025	 6.57139982040251E-02 
1026	 6.88812631057257E-02 
1027	 6.89343438736724E-02 
1028	 6.58057459146876E-02 
1029	 0.057713121288084 
1030	 5.86722665550541E-02 
1031	 6.96486087996507E-02 
1032	 6.90663148604184E-02 
1033	 6.87588105415766E-02 
1034	 7.48993661977443E-02 
1035	 0.074737727523335 
1036	 7.02413054190195E-02 
1037	 6.51333494573501E-02 
1038	 6.00088780532395E-02 
1039	 6.15949719936741E-02 
1040	 8.00543689371611E-02 
1041	 8.11974953812895E-02 
1042	 6.60055758364222E-02 
1043	 6.56253047259384E-02 
1044	 6.45636162197014E-02 
1045	 6.02645946178317E-02 
1046	 6.30243450914498E-02 
1047	 6.88413118409252E-02 
1048	 7.38848888185981E-02 
1049	 7.11391855080776E-02 
1050	 6.66203025907769E-02 
1051	 6.56816471150867E-02 
1052	 5.60364430956144E-02 
1053	 4.81559604817429E-02 
1054	 0.060350668803864 
1055	 7.13208329893087E-02 
1056	 0.074517237171652 
1057	 6.66695961836596E-02 
1058	 6.30229656769605E-02 
1059	 6.46707754948781E-02 
1060	 5.41572104901524E-02 
1061	 5.75789724801248E-02 
1062	 7.82842873582849E-02 
1063	 6.86564401988384E-02 
1064	 5.65552555210703E-02 
1065	 6.38225184677129E-02 
1066	 7.23064947696883E-02 
1067	 0.072561888868251 
1068	 5.82345816287216E-02 
1069	 6.17240403290205E-02 
1070	 7.31142611663103E-02 
1071	 6.90759333689401E-02 
1072	 4.71001302061026E-02 
1073	 2.82020754654292E-02 
1074	 6.70873630618345E-02 
1075	 9.18912353365342E-02 
