Wavelength	SHSI00339.asd
325	 6.58938665516233E-02 
326	 6.89948928859367E-02 
327	 8.22094374830672E-02 
328	 8.26499531319399E-02 
329	 7.92182465057553E-02 
330	 7.58814855304694E-02 
331	 7.42645576523449E-02 
332	 7.35982054905814E-02 
333	 7.29127982804864E-02 
334	 6.95842696104309E-02 
335	 6.63999410058412E-02 
336	 7.11037393620425E-02 
337	 7.48720298917251E-02 
338	 7.48582866252322E-02 
339	 0.072121181835428 
340	 6.86925514804508E-02 
341	 6.66268402485997E-02 
342	 7.03047279264807E-02 
343	 7.45637063661961E-02 
344	 6.82167383517364E-02 
345	 0.066773520394354 
346	 7.16987607550539E-02 
347	 7.15790237134481E-02 
348	 7.03405087391013E-02 
349	 7.05442336689067E-02 
350	 6.82661450461421E-02 
351	 6.58401718742998E-02 
352	 6.74703762033494E-02 
353	 6.98184743685494E-02 
354	 7.12823249951173E-02 
355	 6.91856174646575E-02 
356	 6.84644516613941E-02 
357	 7.16603861393672E-02 
358	 7.35482873721598E-02 
359	 7.35627360716661E-02 
360	 7.19099203228222E-02 
361	 7.15804381960725E-02 
362	 7.24159940636087E-02 
363	 7.06734254394185E-02 
364	 7.04801845660547E-02 
365	 7.32642660626429E-02 
366	 7.32482500511436E-02 
367	 0.07196799581957 
368	 7.22740181496296E-02 
369	 0.071794809780637 
370	 7.06320556420113E-02 
371	 7.08220555778822E-02 
372	 7.12905162242682E-02 
373	 7.15547248517002E-02 
374	 7.28556712809399E-02 
375	 7.32978309339396E-02 
376	 7.02890293945533E-02 
377	 7.00543446225789E-02 
378	 7.27651468508389E-02 
379	 7.39942530546878E-02 
380	 7.37624859567843E-02 
381	 7.23270539877397E-02 
382	 7.18037608287138E-02 
383	 7.23005999344714E-02 
384	 7.35938828257439E-02 
385	 7.32598805605501E-02 
386	 7.12019930707894E-02 
387	 6.89374627739226E-02 
388	 6.80080780965738E-02 
389	 6.90964656316405E-02 
390	 7.17720428136671E-02 
391	 7.36382996092903E-02 
392	 7.21578797660409E-02 
393	 7.10210656624336E-02 
394	 7.06687208174089E-02 
395	 0.069628016693885 
396	 6.93183564786483E-02 
397	 0.069997037775807 
398	 6.99237588850676E-02 
399	 6.91115697393941E-02 
400	 6.77879452976573E-02 
401	 6.81392283023277E-02 
402	 6.94947241347346E-02 
403	 6.92873214251712E-02 
404	 6.87893452603946E-02 
405	 0.068693406379582 
406	 6.99121649359017E-02 
407	 7.10339347414477E-02 
408	 7.02917820648427E-02 
409	 7.02814684727222E-02 
410	 0.070956020189867 
411	 7.03822224869784E-02 
412	 6.99549758610698E-02 
413	 7.02790736313073E-02 
414	 7.07303811686277E-02 
415	 7.10366687869747E-02 
416	 7.09423439714847E-02 
417	 7.11669907036465E-02 
418	 7.15468502706646E-02 
419	 0.071023430361599 
420	 7.03767893317614E-02 
421	 7.01429865174256E-02 
422	 7.07486341339411E-02 
423	 7.16804740711396E-02 
424	 7.21613449242818E-02 
425	 7.22014447307543E-02 
426	 7.20097541914362E-02 
427	 7.23170969084106E-02 
428	 7.29543282103006E-02 
429	 0.073628533478488 
430	 7.30063895510665E-02 
431	 7.20374180242175E-02 
432	 7.25957476896124E-02 
433	 7.26966341756086E-02 
434	 7.21019993795716E-02 
435	 7.18140272221393E-02 
436	 7.21384553370853E-02 
437	 7.31451313966873E-02 
438	 7.36447347465526E-02 
439	 0.073599492381762 
440	 7.32682159408239E-02 
441	 7.31555854992137E-02 
442	 7.33437912339537E-02 
443	 7.32989550202743E-02 
444	 7.33120813848198E-02 
445	 7.36292618939317E-02 
446	 7.41640552523344E-02 
447	 7.46703621891335E-02 
448	 7.46440003125159E-02 
449	 7.46514649449675E-02 
450	 7.48784368591993E-02 
451	 7.52106824641456E-02 
452	 0.075405010090871 
453	 7.52643502107911E-02 
454	 7.56058988154707E-02 
455	 7.62379079649915E-02 
456	 0.07620969805114 
457	 7.59179834248564E-02 
458	 7.56608770916655E-02 
459	 7.61279586042055E-02 
460	 7.68552505796586E-02 
461	 7.72172003993262E-02 
462	 7.70638551804339E-02 
463	 7.66394365650612E-02 
464	 7.68058669582034E-02 
465	 7.70555220745764E-02 
466	 7.71556793397088E-02 
467	 7.74304819244551E-02 
468	 7.76224475652245E-02 
469	 7.73193247940265E-02 
470	 0.077315782908942 
471	 7.76514348134865E-02 
472	 7.76567535622887E-02 
473	 7.76745548072705E-02 
474	 7.78765974754382E-02 
475	 7.77496895245862E-02 
476	 7.76066800425585E-02 
477	 7.81296216071363E-02 
478	 7.82936361449251E-02 
479	 7.80021506218894E-02 
480	 7.82048786363493E-02 
481	 7.84623654213719E-02 
482	 7.84454152319675E-02 
483	 7.88533350362851E-02 
484	 0.079452149007531 
485	 7.94215623922376E-02 
486	 7.92601539509358E-02 
487	 7.91553798830943E-02 
488	 0.079071613486387 
489	 7.90695197632583E-02 
490	 7.92080914611402E-02 
491	 7.96375378358303E-02 
492	 8.00988915101962E-02 
493	 7.98277881413934E-02 
494	 7.95918753870275E-02 
495	 7.97831100213572E-02 
496	 8.05599704032797E-02 
497	 8.11911427926664E-02 
498	 8.07390845848985E-02 
499	 8.05777678604789E-02 
500	 8.09783974920429E-02 
501	 8.15882925343561E-02 
502	 8.20753544157251E-02 
503	 8.22461379331184E-02 
504	 8.24551516899603E-02 
505	 8.26722844298072E-02 
506	 8.27616867313226E-02 
507	 8.28559766431564E-02 
508	 8.30828613370133E-02 
509	 8.38143637368178E-02 
510	 8.42975773183585E-02 
511	 0.084063913622863 
512	 8.50356481739847E-02 
513	 8.66473817974792E-02 
514	 8.68599577997894E-02 
515	 8.69206396757339E-02 
516	 8.72374404340218E-02 
517	 8.75468451155897E-02 
518	 8.79600734605072E-02 
519	 8.85836388763688E-02 
520	 8.89839560327922E-02 
521	 8.93165339854842E-02 
522	 9.03075707199605E-02 
523	 9.10927868624298E-02 
524	 9.13478667144572E-02 
525	 9.18059852931398E-02 
526	 9.22878513455225E-02 
527	 9.24194754724416E-02 
528	 9.27761455212516E-02 
529	 9.34079280373505E-02 
530	 9.39432036151939E-02 
531	 9.45281459739079E-02 
532	 9.52088725211001E-02 
533	 9.54351446578723E-02 
534	 9.55153783354331E-02 
535	 9.62240407268775E-02 
536	 9.67440940654856E-02 
537	 9.69582115973276E-02 
538	 9.76383264515847E-02 
539	 9.82016633688271E-02 
540	 0.098092694031741 
541	 9.82653809928519E-02 
542	 9.87739293745573E-02 
543	 9.92401509548028E-02 
544	 9.96335010630037E-02 
545	 9.99490666804465E-02 
546	 0.100358755904872 
547	 0.100755281783957 
548	 0.100978697303519 
549	 0.101187083405822 
550	 0.101480205920936 
551	 0.102069190236656 
552	 0.102525691678226 
553	 0.102611790291963 
554	 0.102790319732373 
555	 0.103131676502231 
556	 0.103672638274163 
557	 0.103845290181345 
558	 0.103613659603628 
559	 0.103786537338966 
560	 0.104007020882024 
561	 0.103934070935799 
562	 0.103931382211661 
563	 0.104081142965855 
564	 0.104462279162087 
565	 0.10463108940555 
566	 0.104458491661275 
567	 0.104493683175399 
568	 0.104508884083925 
569	 0.104154505519703 
570	 0.104074436003211 
571	 0.104271742246781 
572	 0.104169692093771 
573	 0.104078761095998 
574	 0.104148679449914 
575	 0.10395313206296 
576	 0.103755435906716 
577	 0.104163935343892 
578	 0.104259180287343 
579	 0.103859000592826 
580	 0.103493335697888 
581	 0.103518613047561 
582	 0.104149288947881 
583	 0.104180422021084 
584	 0.103783719777429 
585	 0.104026759625108 
586	 0.104220678618445 
587	 0.104102681842506 
588	 0.103760928391721 
589	 0.103546547450704 
590	 0.103898211555424 
591	 0.103694244726005 
592	 0.103029645529337 
593	 0.103094435995084 
594	 0.103286297612021 
595	 0.103300961946955 
596	 0.103712042986476 
597	 0.104086490533884 
598	 0.103542643811976 
599	 0.103178755065336 
600	 0.103235352368814 
601	 0.103084366709925 
602	 0.103054859138852 
603	 0.103407440931429 
604	 0.103436405356621 
605	 0.103250412869336 
606	 0.10349504775279 
607	 0.103595568393614 
608	 0.103369624324364 
609	 0.103223553147798 
610	 0.103028973161103 
611	 0.10258505390955 
612	 0.102158858140515 
613	 0.101935458630089 
614	 0.102286570383728 
615	 0.102547567763155 
616	 0.102320808228252 
617	 0.102097196200992 
618	 0.101802049083229 
619	 0.101134043236773 
620	 0.101046534609076 
621	 0.101567752658045 
622	 0.101443397086 
623	 0.101274919732979 
624	 0.101593673173606 
625	 0.101495335967724 
626	 0.101149912245639 
627	 0.101430302039459 
628	 0.101716983909341 
629	 0.101794027088492 
630	 0.102008555466841 
631	 0.101952838085547 
632	 0.101118214397662 
633	 0.100721654766616 
634	 0.100921492390378 
635	 0.101140038867548 
636	 0.101452874009197 
637	 0.101801228959522 
638	 0.101544515609042 
639	 0.100979768373668 
640	 0.100765901250653 
641	 0.100710106988547 
642	 0.100744103902098 
643	 0.100786676971727 
644	 0.100681041031062 
645	 0.100320429592047 
646	 0.100197465112877 
647	 0.100177760713439 
648	 9.95793260692248E-02 
649	 9.93221221591843E-02 
650	 9.96520873307907E-02 
651	 9.96521117743232E-02 
652	 9.95638555870301E-02 
653	 9.97620447815967E-02 
654	 9.97644104473461E-02 
655	 9.92832925950293E-02 
656	 9.77204290038913E-02 
657	 9.66342028187164E-02 
658	 9.68583390521281E-02 
659	 9.68677925640852E-02 
660	 9.65537781556489E-02 
661	 9.60561422310853E-02 
662	 9.55599071145767E-02 
663	 9.50854316777225E-02 
664	 9.44206534688132E-02 
665	 9.37302362723201E-02 
666	 9.31580093445871E-02 
667	 9.26117820891231E-02 
668	 9.21983331812638E-02 
669	 9.22480478564544E-02 
670	 9.21453887614603E-02 
671	 9.16992682863392E-02 
672	 9.12566968081864E-02 
673	 9.11121165966834E-02 
674	 9.15427019842861E-02 
675	 9.17000049189036E-02 
676	 9.16853418753342E-02 
677	 9.25656689530243E-02 
678	 9.29885355550555E-02 
679	 9.24278672937224E-02 
680	 9.27106174684183E-02 
681	 9.36095187152931E-02 
682	 9.44165383339135E-02 
683	 9.50744106916545E-02 
684	 9.56348060028186E-02 
685	 9.65005775714875E-02 
686	 9.76479175727609E-02 
687	 9.90440633076963E-02 
688	 0.100573267329034 
689	 0.102161325492009 
690	 0.104140360325037 
691	 0.105482445201105 
692	 0.106193493292931 
693	 0.107703647215193 
694	 0.109784861038289 
695	 0.111990562292662 
696	 0.113718786744723 
697	 0.115061056494439 
698	 0.116694097644937 
699	 0.118430480050049 
700	 0.120166272602625 
701	 0.121922994803339 
702	 0.123562486492588 
703	 0.124910038620391 
704	 0.126359171424082 
705	 0.127865750000664 
706	 0.128835058082884 
707	 0.129802343626278 
708	 0.131086000854406 
709	 0.1322233279422 
710	 0.13323293545404 
711	 0.134323140043365 
712	 0.134911628569434 
713	 0.135081973700405 
714	 0.136043451082492 
715	 0.13707572605101 
716	 0.137559728487013 
717	 0.138777936247515 
718	 0.140341664706685 
719	 0.139889213413204 
720	 0.139614606486234 
721	 0.140256498218263 
722	 0.140942897696763 
723	 0.14160488906484 
724	 0.14216020773664 
725	 0.142162092116506 
726	 0.141927364948469 
727	 0.14272134144921 
728	 0.143741172262922 
729	 0.144500228713341 
730	 0.144676719720884 
731	 0.14474210235435 
732	 0.145389582271205 
733	 0.145748473152115 
734	 0.1458149520385 
735	 0.14630642932149 
736	 0.146535947912939 
737	 0.146135993852546 
738	 0.146218279425081 
739	 0.14671604663601 
740	 0.147209948189331 
741	 0.147551572119669 
742	 0.147674696469701 
743	 0.147629568715823 
744	 0.147637273285872 
745	 0.147875105603737 
746	 0.148129363409268 
747	 0.148408994354291 
748	 0.148948303066108 
749	 0.148820847592204 
750	 0.148015093959115 
751	 0.148382789940854 
752	 0.149284155015749 
753	 0.14987390363526 
754	 0.149939868047276 
755	 0.149546032221643 
756	 0.149092157605881 
757	 0.14831467427342 
758	 0.147314100611334 
759	 0.148207947189884 
760	 0.151267297450878 
761	 0.153186299379592 
762	 0.153306974036903 
763	 0.152410543024484 
764	 0.152033077274221 
765	 0.151845515056746 
766	 0.151736679688334 
767	 0.151655020003288 
768	 0.151670847542348 
769	 0.151894808736506 
770	 0.152132848845596 
771	 0.152281234812096 
772	 0.152142017027533 
773	 0.152181252639265 
774	 0.152639339524208 
775	 0.15267822490673 
776	 0.152535210961112 
777	 0.152841287078115 
778	 0.15333746928826 
779	 0.153832442292732 
780	 0.153923659150918 
781	 0.153739323563507 
782	 0.153463491145911 
783	 0.153794220787651 
784	 0.154346866259455 
785	 0.154029835739406 
786	 0.153869668266465 
787	 0.154160367637278 
788	 0.154503114413025 
789	 0.155001234254679 
790	 0.155697904680527 
791	 0.155756735913905 
792	 0.155469967674428 
793	 0.156036407308679 
794	 0.155918254813573 
795	 0.154982335330328 
796	 0.155517639299506 
797	 0.15615164056429 
798	 0.155482880863109 
799	 0.155741777395167 
800	 0.156575481618069 
801	 0.155730446982105 
802	 0.15553945001945 
803	 0.156619111708232 
804	 0.157009922154154 
805	 0.156846184204035 
806	 0.156465618689693 
807	 0.156378089497906 
808	 0.156622147072844 
809	 0.156907929299809 
810	 0.157290508680395 
811	 0.157675940959879 
812	 0.157470563864597 
813	 0.157173739549515 
814	 0.157515394851552 
815	 0.15840449744624 
816	 0.15940639846143 
817	 0.159303613416515 
818	 0.159091548949549 
819	 0.159110479270022 
820	 0.158278129968337 
821	 0.158103139189807 
822	 0.160337685184062 
823	 0.160760788387329 
824	 0.159381667039664 
825	 0.159064949791251 
826	 0.159670437615243 
827	 0.160883649465093 
828	 0.160573995509097 
829	 0.159889586867188 
830	 0.160453063417858 
831	 0.160470723096189 
832	 0.160123666360872 
833	 0.161065508332143 
834	 0.161936090804812 
835	 0.162077291612705 
836	 0.16139479761313 
837	 0.160914125821032 
838	 0.161731466570732 
839	 0.161858294029398 
840	 0.161344967375837 
841	 0.161598565172418 
842	 0.161893596226453 
843	 0.162009464253451 
844	 0.162525131261119 
845	 0.16279853145279 
846	 0.162128086552132 
847	 0.16195925054138 
848	 0.162245614330578 
849	 0.16191933512048 
850	 0.161533530701284 
851	 0.161445337113924 
852	 0.162216145690125 
853	 0.163514778375394 
854	 0.164814124717493 
855	 0.164575730469661 
856	 0.16326293500576 
857	 0.162604644138877 
858	 0.16346893804666 
859	 0.165324209718084 
860	 0.163533110574006 
861	 0.161758294562177 
862	 0.163500611474626 
863	 0.164065799020217 
864	 0.163403255787328 
865	 0.163352603954666 
866	 0.164365207711256 
867	 0.165944606424389 
868	 0.164876532547257 
869	 0.163525819538881 
870	 0.163948140469302 
871	 0.165641275181834 
872	 0.167019243437712 
873	 0.165153716942181 
874	 0.164378029628816 
875	 0.165406784983228 
876	 0.165185805519025 
877	 0.16486167889118 
878	 0.165165143665046 
879	 0.164848132762047 
880	 0.16437145474079 
881	 0.164729475604543 
882	 0.164781717582049 
883	 0.164573791558914 
884	 0.165408414420139 
885	 0.166179382677295 
886	 0.166212693633415 
887	 0.165457637561585 
888	 0.165091718794138 
889	 0.16660338491507 
890	 0.167526360140255 
891	 0.167312800965289 
892	 0.166068993000366 
893	 0.165957503128024 
894	 0.167535516923404 
895	 0.166579023570384 
896	 0.165689715182469 
897	 0.168138455717834 
898	 0.169311276431903 
899	 0.168708948147832 
900	 0.167739147930704 
901	 0.167468366117914 
902	 0.16818064205155 
903	 0.168949126484298 
904	 0.16959532506675 
905	 0.169866249496304 
906	 0.168700969877546 
907	 0.166953352404697 
908	 0.166278957590795 
909	 0.168455095672118 
910	 0.171824529503315 
911	 0.167665560400764 
912	 0.166650550609498 
913	 0.173372279565969 
914	 0.173825660520015 
915	 0.171434465540918 
916	 0.172065654272724 
917	 0.171006173435937 
918	 0.168770555744072 
919	 0.168985376519339 
920	 0.17008067146068 
921	 0.170856854424634 
922	 0.167929451254361 
923	 0.166707130855495 
924	 0.17145295335683 
925	 0.170945669624918 
926	 0.16654170221982 
927	 0.165419763853547 
928	 0.166495381956348 
929	 0.169594065981931 
930	 0.174110215482431 
931	 0.177565364886042 
932	 0.177581127960203 
933	 0.176205236686687 
934	 0.173971478811153 
935	 0.171562718546025 
936	 0.170240633868541 
937	 0.170450956297347 
938	 0.172315804963743 
939	 0.17424979333242 
940	 0.175571191109712 
941	 0.177306500162894 
942	 0.175069105755067 
943	 0.167529777502996 
944	 0.172602407774037 
945	 0.182290071917461 
946	 0.180681169365887 
947	 0.179585247375012 
948	 0.18019981258124 
949	 0.176780424661048 
950	 0.172465117871843 
951	 0.170162679578542 
952	 0.176205395747637 
953	 0.181129921497192 
954	 0.176200582623989 
955	 0.164290963193605 
956	 0.154130870871903 
957	 0.160089322086912 
958	 0.167231215987497 
959	 0.170865129171533 
960	 0.169645480858191 
961	 0.170822251699772 
962	 0.176150511124375 
963	 0.175100920075735 
964	 0.172107748013641 
965	 0.172076957642551 
966	 0.172887274012402 
967	 0.172770289542892 
968	 0.168648343494444 
969	 0.168319918970176 
970	 0.172397142549506 
971	 0.175127339134644 
972	 0.173218403069955 
973	 0.167219826358411 
974	 0.173433173179072 
975	 0.180094513014127 
976	 0.173741751639527 
977	 0.173858210634628 
978	 0.179580739065926 
979	 0.181378474905443 
980	 0.178383425693887 
981	 0.171953098951366 
982	 0.168576207828939 
983	 0.16920267615026 
984	 0.17305245554338 
985	 0.172389905680636 
986	 0.17196861512097 
987	 0.176966630040614 
988	 0.177767727763574 
989	 0.174567318358928 
990	 0.170913799480306 
991	 0.171046293857161 
992	 0.174859657872407 
993	 0.176364798962115 
994	 0.17792559478981 
995	 0.179513508082349 
996	 0.17449581983822 
997	 0.170063857861127 
998	 0.172976609436231 
999	 0.168896140149748 
1000	 0.163834713136943 
1001	 0.172292317676202 
1002	 0.173271324359919 
1003	 0.167367015289013 
1004	 0.175785621079137 
1005	 0.179530879435615 
1006	 0.174096280380419 
1007	 0.179450639686773 
1008	 0.183292268511193 
1009	 0.176291467475534 
1010	 0.166695038664572 
1011	 0.165567765314557 
1012	 0.184643228734054 
1013	 0.183964717876139 
1014	 0.17065049081793 
1015	 0.18598976967621 
1016	 0.186719418369552 
1017	 0.170435154156331 
1018	 0.183133911468015 
1019	 0.19110265720718 
1020	 0.178672322055708 
1021	 0.17816010930208 
1022	 0.175552075627023 
1023	 0.157606901191954 
1024	 0.163089895801544 
1025	 0.178726573963186 
1026	 0.171648327514768 
1027	 0.174455694692675 
1028	 0.186153969964277 
1029	 0.177924048730564 
1030	 0.182316888619855 
1031	 0.199087439082755 
1032	 0.178813577192435 
1033	 0.15907431927987 
1034	 0.164520650343061 
1035	 0.178402650330828 
1036	 0.179830746278207 
1037	 0.153253765846712 
1038	 0.163915690956957 
1039	 0.197206904646695 
1040	 0.209403107924513 
1041	 0.209253859770783 
1042	 0.200533240226786 
1043	 0.193157100084449 
1044	 0.177350400955871 
1045	 0.157421711699393 
1046	 0.167347409606362 
1047	 0.182446020758796 
1048	 0.187731412675437 
1049	 0.184243088782288 
1050	 0.180568943026002 
1051	 0.184207882451239 
1052	 0.184413591591937 
1053	 0.183859610082487 
1054	 0.188548393964771 
1055	 0.178380624538493 
1056	 0.156750428737202 
1057	 0.144696190567397 
1058	 0.151468770111439 
1059	 0.169042666779861 
1060	 0.155659006239833 
1061	 0.15615529374809 
1062	 0.179671149008516 
1063	 0.157544771206201 
1064	 0.142387183347236 
1065	 0.168698380731519 
1066	 0.194085200103177 
1067	 0.19828527793497 
1068	 0.169896982606985 
1069	 0.17232518411117 
1070	 0.179560213883175 
1071	 0.134272607087992 
1072	 0.134595576894206 
1073	 0.17206226127028 
1074	 0.178957071170675 
1075	 0.15580380426081 
