Wavelength	SHSI00005.asd
325	 5.18516534763355E-02 
326	 5.82653122849437E-02 
327	 5.88837319159102E-02 
328	 4.51347786383468E-02 
329	 3.70993387502537E-02 
330	 4.15847156678433E-02 
331	 4.84712613034436E-02 
332	 0.053377604865843 
333	 5.30351486156279E-02 
334	 5.17104482919852E-02 
335	 4.92738431853209E-02 
336	 4.20013445218448E-02 
337	 4.22248969099822E-02 
338	 5.08313695211106E-02 
339	 0.054083594818061 
340	 5.24394227165383E-02 
341	 0.047652035772803 
342	 4.61475401357371E-02 
343	 4.77577858346328E-02 
344	 5.03595318169071E-02 
345	 4.96640295934223E-02 
346	 4.65332627721347E-02 
347	 4.89888068014516E-02 
348	 5.27266163642107E-02 
349	 5.44353427663225E-02 
350	 5.33417814969586E-02 
351	 5.12880029379674E-02 
352	 5.11991357353201E-02 
353	 0.051048827686485 
354	 5.07580035437627E-02 
355	 5.18133668960615E-02 
356	 5.28688323131267E-02 
357	 5.30777861934749E-02 
358	 0.05275783185585 
359	 5.22891643944891E-02 
360	 5.21161884330957E-02 
361	 5.35324091901013E-02 
362	 0.055503944791581 
363	 0.053880198722158 
364	 5.19438688513176E-02 
365	 5.15025464881819E-02 
366	 0.051796080287783 
367	 5.20516085717859E-02 
368	 5.13619472204531E-02 
369	 5.11461336259142E-02 
370	 5.14356924559205E-02 
371	 5.09949044250919E-02 
372	 5.14832703528143E-02 
373	 5.31972587517202E-02 
374	 5.16080708123026E-02 
375	 4.94939317170804E-02 
376	 0.051187674480017 
377	 5.08607288182064E-02 
378	 4.87037967541605E-02 
379	 4.99166653036411E-02 
380	 5.07181953120168E-02 
381	 4.96357243058123E-02 
382	 0.05048624797789 
383	 5.15985285982573E-02 
384	 0.050362274225827 
385	 0.050111744686541 
386	 0.050846007525546 
387	 0.049969520399138 
388	 4.97555037371877E-02 
389	 5.07136680043422E-02 
390	 4.93601607607849E-02 
391	 4.82074272022667E-02 
392	 5.03989954627344E-02 
393	 5.05095703859419E-02 
394	 0.04865921044647 
395	 4.88023142213362E-02 
396	 4.83951160728847E-02 
397	 4.67390201994002E-02 
398	 4.55601747220183E-02 
399	 4.57208418668275E-02 
400	 4.77475342203874E-02 
401	 4.77908902285844E-02 
402	 0.046427682784997 
403	 4.69118695661183E-02 
404	 4.74193133366961E-02 
405	 0.047227568886572 
406	 4.67618667069904E-02 
407	 4.63364354713036E-02 
408	 4.62777463853754E-02 
409	 0.046851523845297 
410	 4.75558719416959E-02 
411	 4.68011655102841E-02 
412	 4.62821704884864E-02 
413	 4.66867576560926E-02 
414	 4.68896545153687E-02 
415	 0.046813855883786 
416	 4.65102696415221E-02 
417	 4.64421812922472E-02 
418	 4.65589427009938E-02 
419	 4.63986116483586E-02 
420	 4.57910746136382E-02 
421	 0.044847181152988 
422	 4.49345312226103E-02 
423	 4.55847748380682E-02 
424	 4.58995922556538E-02 
425	 4.61254411988096E-02 
426	 0.046255252994154 
427	 0.046105168065186 
428	 4.61440662086371E-02 
429	 4.65637880425401E-02 
430	 4.63275021658448E-02 
431	 0.045668727580812 
432	 4.51917576628511E-02 
433	 4.50677672418018E-02 
434	 4.51650318405898E-02 
435	 4.47407677898584E-02 
436	 4.44995811813054E-02 
437	 4.48723504163335E-02 
438	 4.52011574825574E-02 
439	 0.045504137495687 
440	 4.60624455822536E-02 
441	 4.60028569980652E-02 
442	 4.53819067060123E-02 
443	 0.045604271063453 
444	 4.59286985718724E-02 
445	 4.57506145378602E-02 
446	 4.56588525148511E-02 
447	 4.57613954135792E-02 
448	 4.60972845930835E-02 
449	 4.63426652893918E-02 
450	 4.64656136165478E-02 
451	 4.69646256323511E-02 
452	 4.74648864205824E-02 
453	 4.75779274059136E-02 
454	 4.75388716497485E-02 
455	 4.75284335626071E-02 
456	 4.79373907387453E-02 
457	 4.81506030698893E-02 
458	 0.047900584714067 
459	 4.72044932841982E-02 
460	 4.68705808298822E-02 
461	 4.77943426232992E-02 
462	 4.82394316098901E-02 
463	 4.81175858855548E-02 
464	 4.85872146067346E-02 
465	 4.86276408275486E-02 
466	 4.79679092060624E-02 
467	 4.85459552373297E-02 
468	 4.96176218590863E-02 
469	 4.98023079511677E-02 
470	 4.96470307826259E-02 
471	 4.93693232101184E-02 
472	 4.92324347778724E-02 
473	 4.92271471078106E-02 
474	 4.93595715918511E-02 
475	 4.97396027963203E-02 
476	 5.00901253137345E-02 
477	 4.99240356310391E-02 
478	 0.049743568454944 
479	 4.97692373439815E-02 
480	 5.02262462576353E-02 
481	 5.05911073698258E-02 
482	 5.04728794717805E-02 
483	 5.05053491022635E-02 
484	 5.07173076744968E-02 
485	 5.09560786059495E-02 
486	 5.08734988876901E-02 
487	 5.04143294134412E-02 
488	 5.00019247988804E-02 
489	 5.00470327316207E-02 
490	 5.08496275795566E-02 
491	 5.12213707222181E-02 
492	 0.051093026442925 
493	 0.050878113592714 
494	 5.11664853045047E-02 
495	 5.20734209076763E-02 
496	 5.23848770479421E-02 
497	 5.26065706653251E-02 
498	 5.35433789671733E-02 
499	 5.37341586835487E-02 
500	 0.053213969269343 
501	 5.33411153415387E-02 
502	 5.36659893195963E-02 
503	 0.053939216177805 
504	 5.43635321236137E-02 
505	 5.49314812038207E-02 
506	 0.055629644509529 
507	 5.59822723925775E-02 
508	 5.60099895434142E-02 
509	 5.63778584251842E-02 
510	 5.68551866667422E-02 
511	 5.72553251770839E-02 
512	 5.77582497342032E-02 
513	 5.83979274729871E-02 
514	 0.059253484113891 
515	 0.05980136644195 
516	 5.99619593862142E-02 
517	 6.05396046447727E-02 
518	 6.11148264266462E-02 
519	 6.12010076481085E-02 
520	 6.14859649369094E-02 
521	 6.21007786962914E-02 
522	 6.30531122620028E-02 
523	 6.38140601032112E-02 
524	 6.41705495488999E-02 
525	 6.45099346866616E-02 
526	 6.50383055256588E-02 
527	 6.59765559332269E-02 
528	 6.66599579770009E-02 
529	 6.70131464658388E-02 
530	 6.74469631798341E-02 
531	 0.068011187426625 
532	 6.87195292234856E-02 
533	 6.92971385739484E-02 
534	 6.98546493369617E-02 
535	 7.07055592334935E-02 
536	 0.071462242435078 
537	 7.20472657931957E-02 
538	 7.27392260045838E-02 
539	 7.33513860403502E-02 
540	 7.37067524584143E-02 
541	 7.41718250643968E-02 
542	 7.47417920391689E-02 
543	 7.51814176040865E-02 
544	 7.57219580625953E-02 
545	 7.64237254106272E-02 
546	 7.70322610219445E-02 
547	 7.75529586423658E-02 
548	 0.078025553384138 
549	 7.83209014861148E-02 
550	 7.85988228340075E-02 
551	 7.94860113023091E-02 
552	 8.03551767532477E-02 
553	 8.08009284427256E-02 
554	 8.10498189882054E-02 
555	 8.12824399610124E-02 
556	 8.17525696176428E-02 
557	 8.24506518361868E-02 
558	 8.31826919624485E-02 
559	 8.31421564953521E-02 
560	 8.29352570178289E-02 
561	 8.31569906258666E-02 
562	 0.0836059942598 
563	 0.084167541858674 
564	 8.47181504382475E-02 
565	 8.48452042477261E-02 
566	 8.45163267010364E-02 
567	 8.47226142169005E-02 
568	 8.51774506598376E-02 
569	 8.53943675953888E-02 
570	 8.56884833172902E-02 
571	 8.59569323068479E-02 
572	 8.56365931390531E-02 
573	 8.53355028499367E-02 
574	 8.54348649204319E-02 
575	 8.57446000980385E-02 
576	 8.60291149375792E-02 
577	 8.58992609902187E-02 
578	 8.59299643656829E-02 
579	 0.086186036767533 
580	 0.086109574902124 
581	 8.59048089059094E-02 
582	 0.085797315112537 
583	 8.61067577937843E-02 
584	 8.65962271701301E-02 
585	 8.65094196114073E-02 
586	 8.63785038121345E-02 
587	 8.64393761715068E-02 
588	 8.67906296068639E-02 
589	 0.087046106925009 
590	 8.66984208707315E-02 
591	 8.66682525588031E-02 
592	 8.70099973886712E-02 
593	 8.71411222548233E-02 
594	 0.0871688341295 
595	 8.71569960190878E-02 
596	 8.71126358022932E-02 
597	 8.72231708369894E-02 
598	 8.78261723171589E-02 
599	 8.82159317911875E-02 
600	 8.81697546577346E-02 
601	 8.78433690275225E-02 
602	 8.74884810992028E-02 
603	 8.73353127577795E-02 
604	 8.73981054525722E-02 
605	 8.75265957302932E-02 
606	 8.73602214172325E-02 
607	 8.70840560706484E-02 
608	 8.68039035942476E-02 
609	 8.66999492394281E-02 
610	 8.66434021489513E-02 
611	 8.64502896706974E-02 
612	 8.61345503152663E-02 
613	 8.57484902658129E-02 
614	 8.54281124097785E-02 
615	 8.52551642737272E-02 
616	 8.52400721849841E-02 
617	 8.50165570395095E-02 
618	 8.46875280527402E-02 
619	 8.45206211128469E-02 
620	 8.43428718065224E-02 
621	 8.41341446632611E-02 
622	 8.39736392594161E-02 
623	 8.40449812307664E-02 
624	 8.44548151686421E-02 
625	 8.43600039899179E-02 
626	 8.39476141315568E-02 
627	 0.084153435598305 
628	 8.42611679900736E-02 
629	 8.40966648124796E-02 
630	 8.44225578801185E-02 
631	 8.46493007271889E-02 
632	 8.39973361089867E-02 
633	 8.37933138372851E-02 
634	 8.41495604422399E-02 
635	 8.43031288966374E-02 
636	 8.44603763262182E-02 
637	 8.46956828380724E-02 
638	 0.084700671489993 
639	 8.45805445267011E-02 
640	 8.45517029654708E-02 
641	 8.50204327569598E-02 
642	 8.58245206734185E-02 
643	 8.56626160754065E-02 
644	 8.55327536900619E-02 
645	 8.62574977824829E-02 
646	 8.61500473451048E-02 
647	 8.53923275867608E-02 
648	 8.53361589526817E-02 
649	 8.50493067684646E-02 
650	 8.43592242128249E-02 
651	 8.43379341056454E-02 
652	 8.44247460863144E-02 
653	 8.38591839792633E-02 
654	 8.32462050742049E-02 
655	 8.25524298786184E-02 
656	 0.081213587830704 
657	 8.01742899529226E-02 
658	 7.98730736390089E-02 
659	 7.87931509426313E-02 
660	 7.75148759096299E-02 
661	 7.72944489321385E-02 
662	 7.65695753943423E-02 
663	 7.50797925972667E-02 
664	 7.38028934835627E-02 
665	 7.24578368759769E-02 
666	 7.08609394104317E-02 
667	 6.99966440932168E-02 
668	 6.95818080713374E-02 
669	 6.84009534105388E-02 
670	 6.77880245180914E-02 
671	 0.067989434385288 
672	 6.74747984617181E-02 
673	 6.69085732579141E-02 
674	 6.71584541845097E-02 
675	 6.70372001904759E-02 
676	 6.65641050219353E-02 
677	 6.66124712019825E-02 
678	 6.68276845482235E-02 
679	 0.067070029245228 
680	 6.76235152291514E-02 
681	 6.85453962818605E-02 
682	 6.98989766025062E-02 
683	 7.10055060703012E-02 
684	 7.18648642719069E-02 
685	 7.34161783885067E-02 
686	 7.52297808696614E-02 
687	 7.69582419520547E-02 
688	 7.94480764422646E-02 
689	 8.23941931849243E-02 
690	 8.53810866940021E-02 
691	 0.088105973638357 
692	 9.06281033017638E-02 
693	 9.34806661371623E-02 
694	 0.096499622455223 
695	 9.93574859223775E-02 
696	 0.101992262993499 
697	 0.10438262116596 
698	 0.106536901981556 
699	 0.108946774777382 
700	 0.111750736428563 
701	 0.114283370935285 
702	 0.116526200176308 
703	 0.118593345988046 
704	 0.120282313211925 
705	 0.121690407982871 
706	 0.123176982695247 
707	 0.124596282850609 
708	 0.125863276891206 
709	 0.127072585734148 
710	 0.128322004020955 
711	 0.12980951851557 
712	 0.130800619858451 
713	 0.131379919855733 
714	 0.133107035921477 
715	 0.134699159956727 
716	 0.134996765249385 
717	 0.135084896423416 
718	 0.135469443646414 
719	 0.136905671971162 
720	 0.137808423698031 
721	 0.137918287706738 
722	 0.139299645467898 
723	 0.140744829848581 
724	 0.140724807237133 
725	 0.140984350219576 
726	 0.141665569461179 
727	 0.141839279880437 
728	 0.142470950055596 
729	 0.14384657109471 
730	 0.144488721395575 
731	 0.144528308460116 
732	 0.144394992919545 
733	 0.144886707719211 
734	 0.145874436295555 
735	 0.146193352084947 
736	 0.146453422640923 
737	 0.147018932851094 
738	 0.147421892221019 
739	 0.147775101882272 
740	 0.148417386302146 
741	 0.148845673356495 
742	 0.149003766425507 
743	 0.149379909999651 
744	 0.149733039545625 
745	 0.149865677178004 
746	 0.150074675652915 
747	 0.150371437758902 
748	 0.150633409533127 
749	 0.15104742689418 
750	 0.151597189594732 
751	 0.151850969836119 
752	 0.152001376480727 
753	 0.152283556477769 
754	 0.152615446453856 
755	 0.152817659118736 
756	 0.152408681424898 
757	 0.152019866100648 
758	 0.151958418698365 
759	 0.152204364903624 
760	 0.152928703530226 
761	 0.15378498669814 
762	 0.154079174361819 
763	 0.154170477156594 
764	 0.155420570534757 
765	 0.156063799630785 
766	 0.155680447367156 
767	 0.155297620314926 
768	 0.155472497812735 
769	 0.156851513725203 
770	 0.157478859961908 
771	 0.157160076516707 
772	 0.157109559344264 
773	 0.157261152221806 
774	 0.157552046667631 
775	 0.157706627813214 
776	 0.157909861129455 
777	 0.158626416757736 
778	 0.158635091845024 
779	 0.157977552905778 
780	 0.158472094356765 
781	 0.159161831582249 
782	 0.159274319488958 
783	 0.159449684974327 
784	 0.159673939691937 
785	 0.159678086836394 
786	 0.15998484311873 
787	 0.160570275971622 
788	 0.160448943943578 
789	 0.160137209317843 
790	 0.160169723255624 
791	 0.160397660680663 
792	 0.160697094562638 
793	 0.160827271622356 
794	 0.160883772754009 
795	 0.160979730812932 
796	 0.161573879674789 
797	 0.161946104848603 
798	 0.16142228326031 
799	 0.16127330656503 
800	 0.16156851165436 
801	 0.161832736873317 
802	 0.161733548045392 
803	 0.161336001457501 
804	 0.161881193744421 
805	 0.162699947995745 
806	 0.162979916280826 
807	 0.163025606853824 
808	 0.163011505197659 
809	 0.163323856140393 
810	 0.1633348538833 
811	 0.162930626109242 
812	 0.163210038486605 
813	 0.163817881558874 
814	 0.164167592611982 
815	 0.164631648887756 
816	 0.165254073122606 
817	 0.165976042246749 
818	 0.166500882689092 
819	 0.166659199970965 
820	 0.166283355981777 
821	 0.166162197798791 
822	 0.167189303627386 
823	 0.167988445653656 
824	 0.168166831491395 
825	 0.167654793361288 
826	 0.167384701776931 
827	 0.167709911952332 
828	 0.167924064904783 
829	 0.168147626025577 
830	 0.168595909908746 
831	 0.169313616904537 
832	 0.169970372808627 
833	 0.169593572386913 
834	 0.169437631594559 
835	 0.16991279142781 
836	 0.169927026789301 
837	 0.169820660923929 
838	 0.170049604027656 
839	 0.169627168582191 
840	 0.16898673407037 
841	 0.169993040318467 
842	 0.17069614335294 
843	 0.170392585779932 
844	 0.170380606855021 
845	 0.170341421347133 
846	 0.169849980965739 
847	 0.170044913519066 
848	 0.170713127290222 
849	 0.170668462229506 
850	 0.169897760935235 
851	 0.168745704471935 
852	 0.169283628411738 
853	 0.170303596519138 
854	 0.170319873677785 
855	 0.169829739179383 
856	 0.169302158308745 
857	 0.169685024948614 
858	 0.169973975665808 
859	 0.169789610635534 
860	 0.169161285762197 
861	 0.168455375447065 
862	 0.168045390972034 
863	 0.167926069259025 
864	 0.168276922568164 
865	 0.169563845210791 
866	 0.170269569699677 
867	 0.170228958878626 
868	 0.171656133895006 
869	 0.172503447951459 
870	 0.171295261146509 
871	 0.171044901746679 
872	 0.17178691343794 
873	 0.172648377132334 
874	 0.173303603294052 
875	 0.173635612728775 
876	 0.173918918284945 
877	 0.173955113342453 
878	 0.173794910455413 
879	 0.174978540518115 
880	 0.176708719181541 
881	 0.177380191440099 
882	 0.177580759318191 
883	 0.177712002243824 
884	 0.178774066587587 
885	 0.179176481688892 
886	 0.17833298199513 
887	 0.178931084848203 
888	 0.179819699064033 
889	 0.179140149370854 
890	 0.179166578676578 
891	 0.180326592464962 
892	 0.182523519442671 
893	 0.182996001549213 
894	 0.180911016548253 
895	 0.180556019586114 
896	 0.181529185402148 
897	 0.182834361143988 
898	 0.183989224205467 
899	 0.184916587538064 
900	 0.18594527260168 
901	 0.186732746333654 
902	 0.187147848372469 
903	 0.187153496472629 
904	 0.187059519657026 
905	 0.187140240242395 
906	 0.18758041539971 
907	 0.188029138361746 
908	 0.187811783409402 
909	 0.187762934190081 
910	 0.187840588375739 
911	 0.18663287878268 
912	 0.186956700578605 
913	 0.189861104000726 
914	 0.191069940208762 
915	 0.190412162961919 
916	 0.188455110139663 
917	 0.189111296910233 
918	 0.191454594907254 
919	 0.190488743359607 
920	 0.190273567136668 
921	 0.191600129178788 
922	 0.191251370959004 
923	 0.189607436111024 
924	 0.187420976594586 
925	 0.188207340918684 
926	 0.190429984756349 
927	 0.18948405129361 
928	 0.18663851169299 
929	 0.182791830737326 
930	 0.18044377225219 
931	 0.180946084493524 
932	 0.184866536962856 
933	 0.18629381465988 
934	 0.186358977996223 
935	 0.188281048814983 
936	 0.188684596917329 
937	 0.187748563906175 
938	 0.188142983452728 
939	 0.185999465150683 
940	 0.182742327465587 
941	 0.190258658333229 
942	 0.193806848803224 
943	 0.184374340169583 
944	 0.1829715101618 
945	 0.188607190357868 
946	 0.19510244708644 
947	 0.194166562346147 
948	 0.187217716193096 
949	 0.186530593376483 
950	 0.190166125922309 
951	 0.194752411993679 
952	 0.187756163715712 
953	 0.179327240205977 
954	 0.179472422623838 
955	 0.18124200280657 
956	 0.183181438607303 
957	 0.184690684482097 
958	 0.189042431183079 
959	 0.1937088348655 
960	 0.187976501731654 
961	 0.183724442439127 
962	 0.185594877056248 
963	 0.184847420587703 
964	 0.184480351964652 
965	 0.187522682419944 
966	 0.18639398156626 
967	 0.183043067971791 
968	 0.183446258927106 
969	 0.187323978593714 
970	 0.191969824983118 
971	 0.187965338276975 
972	 0.184295496726668 
973	 0.186087906207647 
974	 0.191234933078535 
975	 0.193767607339395 
976	 0.188192713404465 
977	 0.1876344882958 
978	 0.190519504708621 
979	 0.187286710840854 
980	 0.188330314870994 
981	 0.193416623448035 
982	 0.189884363005527 
983	 0.188273588753226 
984	 0.19261634848391 
985	 0.189660720922506 
986	 0.185577633149156 
987	 0.187877713934337 
988	 0.190790314686215 
989	 0.192289737117873 
990	 0.190668065049385 
991	 0.187348544063158 
992	 0.184693822371744 
993	 0.188118365521677 
994	 0.195248914390752 
995	 0.20233854776242 
996	 0.197349923513269 
997	 0.190823169560819 
998	 0.193612556154188 
999	 0.193436201628622 
1000	 0.190847975177337 
1001	 0.190200024676238 
1002	 0.193103918449576 
1003	 0.198420304188295 
1004	 0.201859758687446 
1005	 0.200370721559558 
1006	 0.19435149597736 
1007	 0.192412457196241 
1008	 0.194045754187858 
1009	 0.198033751444263 
1010	 0.202214930707962 
1011	 0.203387106197444 
1012	 0.198244176032451 
1013	 0.198822870406995 
1014	 0.203076718562437 
1015	 0.199153637932217 
1016	 0.198212264640146 
1017	 0.200508708305542 
1018	 0.190417733638577 
1019	 0.19109251112241 
1020	 0.209963111741231 
1021	 0.207117017672324 
1022	 0.197911665705363 
1023	 0.199770087061983 
1024	 0.202637417570615 
1025	 0.20479477649504 
1026	 0.205814096574469 
1027	 0.200847352336961 
1028	 0.192674372810514 
1029	 0.192085111130956 
1030	 0.199498588134144 
1031	 0.210343685972053 
1032	 0.205188387840856 
1033	 0.199095107449098 
1034	 0.199968359915974 
1035	 0.190317451869667 
1036	 0.188173552537735 
1037	 0.209506396107468 
1038	 0.206100919828116 
1039	 0.190303343154558 
1040	 0.197705717293287 
1041	 0.196211958208226 
1042	 0.186960050000504 
1043	 0.196823854249438 
1044	 0.203601027367342 
1045	 0.203876366893023 
1046	 0.21913446278223 
1047	 0.221760708925343 
1048	 0.200237365421066 
1049	 0.203538469382552 
1050	 0.206233419859087 
1051	 0.183969797486097 
1052	 0.189267931903371 
1053	 0.202504051457445 
1054	 0.186599515889748 
1055	 0.18626851019359 
1056	 0.19891514373822 
1057	 0.192845683648711 
1058	 0.192376153410904 
1059	 0.201095961284293 
1060	 0.204563395437068 
1061	 0.194718463343951 
1062	 0.176252153199925 
1063	 0.198591294703722 
1064	 0.207546021334421 
1065	 0.173674272630839 
1066	 0.190120342524794 
1067	 0.223778670678187 
1068	 0.225162790955873 
1069	 0.203153683637418 
1070	 0.172757408259306 
1071	 0.16929688015863 
1072	 0.185827249435319 
1073	 0.20133160827522 
1074	 0.17462087577648 
1075	 0.171586630339047 
