Wavelength	SHSI00218.asd
325	 0.123108472653566 
326	 0.111840422599885 
327	 9.32966794311839E-02 
328	 0.114240092396749 
329	 0.124982356774855 
330	 0.111064346877658 
331	 0.102800743238135 
332	 0.100939552205069 
333	 0.1033828756614 
334	 0.102880599119495 
335	 0.101219865076319 
336	 0.106347087440448 
337	 0.109327024863909 
338	 0.10788879345334 
339	 0.10540411415607 
340	 0.1024770138887 
341	 9.97607001431683E-02 
342	 0.100219793035992 
343	 0.103700801852166 
344	 0.10968214314695 
345	 0.110932367196025 
346	 0.107242517935671 
347	 0.105018449861312 
348	 0.107487181833894 
349	 0.114834827481001 
350	 0.112178997015117 
351	 0.106159018837552 
352	 0.110078781912514 
353	 0.111775109927089 
354	 0.110002204690705 
355	 0.111620155644577 
356	 0.113239349762383 
357	 0.112857900014871 
358	 0.112237157892941 
359	 0.11224990968961 
360	 0.113800372868073 
361	 0.115307263188188 
362	 0.116125177850989 
363	 0.115826754824403 
364	 0.115318554060775 
365	 0.115098716525894 
366	 0.114466294952051 
367	 0.114710922641079 
368	 0.11761425558348 
369	 0.119695505778661 
370	 0.120173355473116 
371	 0.119247931925374 
372	 0.119927544107662 
373	 0.122971079822587 
374	 0.121494181741894 
375	 0.117443337867276 
376	 0.114513876829152 
377	 0.114416296965947 
378	 0.117044312043663 
379	 0.120883237390359 
380	 0.122249512301042 
381	 0.119680983468851 
382	 0.118344646649234 
383	 0.117985860773378 
384	 0.117491584016386 
385	 0.115751479743088 
386	 0.113697896870488 
387	 0.114896015508224 
388	 0.114984718358904 
389	 0.112754824449194 
390	 0.113373514502714 
391	 0.115288863474515 
392	 0.116123871272983 
393	 0.11574408981249 
394	 0.1141086177833 
395	 0.11122168044307 
396	 0.109817419989841 
397	 0.11022799335397 
398	 0.108042581510501 
399	 0.105493298727008 
400	 0.105033594422123 
401	 0.106321426777357 
402	 0.108472270806696 
403	 0.109718879198645 
404	 0.110267758166521 
405	 0.110273624536308 
406	 0.110237471472055 
407	 0.110374909611757 
408	 0.110852561886462 
409	 0.109768562086951 
410	 0.107922314510498 
411	 0.10868960534455 
412	 0.109822480735823 
413	 0.110126290758401 
414	 0.109362391821282 
415	 0.108555428639592 
416	 0.109025076134337 
417	 0.109342242309766 
418	 0.109285718405552 
419	 0.109255758803876 
420	 0.109335036584403 
421	 0.109534232795088 
422	 0.109515812051095 
423	 0.109482696484967 
424	 0.10978522420978 
425	 0.109894927374426 
426	 0.109880523173649 
427	 0.110572359007947 
428	 0.110942788144574 
429	 0.110393717143615 
430	 0.110038090197114 
431	 0.10964478251643 
432	 0.108550906263593 
433	 0.108292814362006 
434	 0.108753105263366 
435	 0.107760508324951 
436	 0.107746114002176 
437	 0.109991471058875 
438	 0.110422291064445 
439	 0.109587401418945 
440	 0.109577876670755 
441	 0.109776299912264 
442	 0.110057827919636 
443	 0.110393603666084 
444	 0.110854130085513 
445	 0.111478234712733 
446	 0.112061639930491 
447	 0.112457252252992 
448	 0.112330333047298 
449	 0.112849539232094 
450	 0.114166524049439 
451	 0.114829969482516 
452	 0.115292896631799 
453	 0.11607994059592 
454	 0.116996167721249 
455	 0.117641564902604 
456	 0.116986816363252 
457	 0.116610427711322 
458	 0.117076937563155 
459	 0.117282295398188 
460	 0.117598864472847 
461	 0.118535085340104 
462	 0.118578219324644 
463	 0.118137379109501 
464	 0.119683297479827 
465	 0.120683415063595 
466	 0.120077943548942 
467	 0.120458659293783 
468	 0.121196337334325 
469	 0.120962084108284 
470	 0.120887727954942 
471	 0.121246082360812 
472	 0.121854151372557 
473	 0.122748090095642 
474	 0.123755534163098 
475	 0.123370497062503 
476	 0.12254516399288 
477	 0.123279653704005 
478	 0.123861030639334 
479	 0.123959639154511 
480	 0.124321773333903 
481	 0.124937476368673 
482	 0.125744120247663 
483	 0.126193027629402 
484	 0.126435076590361 
485	 0.127171128701022 
486	 0.127262831618129 
487	 0.126537175349018 
488	 0.126407349709568 
489	 0.126413795082202 
490	 0.12604965129114 
491	 0.126546407699109 
492	 0.127583047736547 
493	 0.127672332056362 
494	 0.127819917666061 
495	 0.128393618359215 
496	 0.128864956555337 
497	 0.129302304757395 
498	 0.129852443267399 
499	 0.130582821801791 
500	 0.13140593982008 
501	 0.131993025604807 
502	 0.132495538064113 
503	 0.133012188761131 
504	 0.133562827764824 
505	 0.134139290374075 
506	 0.134672748611254 
507	 0.135800422111492 
508	 0.137439493517842 
509	 0.138457187559619 
510	 0.13952017987209 
511	 0.141098774444971 
512	 0.141961252362998 
513	 0.142469103499742 
514	 0.143916071015402 
515	 0.145436594257579 
516	 0.146710169492603 
517	 0.147865293340716 
518	 0.14864396449877 
519	 0.148817114947335 
520	 0.14913538985936 
521	 0.149944577612407 
522	 0.15169248354979 
523	 0.153365491963704 
524	 0.154575452098427 
525	 0.156270435061903 
526	 0.157899672890362 
527	 0.158559791579146 
528	 0.158926769257399 
529	 0.159438984578088 
530	 0.1608565958433 
531	 0.162453417342813 
532	 0.163708150204392 
533	 0.164645051154537 
534	 0.165430025868786 
535	 0.166378627546124 
536	 0.167395485022693 
537	 0.16848700079371 
538	 0.169745897583361 
539	 0.171020484894524 
540	 0.172136290988994 
541	 0.172746582682382 
542	 0.17314587588585 
543	 0.1742424154733 
544	 0.175561580132904 
545	 0.176843543704373 
546	 0.17780770562416 
547	 0.178564709040053 
548	 0.179297041285891 
549	 0.180131313411166 
550	 0.180983725044846 
551	 0.181349428194755 
552	 0.182019252671034 
553	 0.183435347189166 
554	 0.184737811227387 
555	 0.185967163717761 
556	 0.187510482525868 
557	 0.188505235295959 
558	 0.188765004236414 
559	 0.188825851992037 
560	 0.189193151763942 
561	 0.190253752696962 
562	 0.191090284879574 
563	 0.191684190292191 
564	 0.192538825975251 
565	 0.193116919986521 
566	 0.193276458200172 
567	 0.193569501108291 
568	 0.193994549475291 
569	 0.194479369119142 
570	 0.194757213912045 
571	 0.194846722560668 
572	 0.195059695031688 
573	 0.195323705624193 
574	 0.195639210928522 
575	 0.196373544857578 
576	 0.19708115587297 
577	 0.196848725975643 
578	 0.196897787586654 
579	 0.197446772747841 
580	 0.197517726893379 
581	 0.197834374363524 
582	 0.198966213033314 
583	 0.199417003779833 
584	 0.199300465802245 
585	 0.199621833673315 
586	 0.200010232803024 
587	 0.200366654594157 
588	 0.200859348688901 
589	 0.201260449257825 
590	 0.201257342193918 
591	 0.201447504364809 
592	 0.201855220958166 
593	 0.202094158098801 
594	 0.202104463876806 
595	 0.201958002959208 
596	 0.202519380274998 
597	 0.203487189038507 
598	 0.204191844870836 
599	 0.204217072318292 
600	 0.20369344738986 
601	 0.203905509778112 
602	 0.204207347344964 
603	 0.204052743631138 
604	 0.204600753270397 
605	 0.205434184016118 
606	 0.204984325872972 
607	 0.204523247619045 
608	 0.204491503603942 
609	 0.204302030721545 
610	 0.203924009986147 
611	 0.203384031850151 
612	 0.2029378611755 
613	 0.202575780361072 
614	 0.201961860752901 
615	 0.201606225912512 
616	 0.201691522873091 
617	 0.20094171358708 
618	 0.199984151507466 
619	 0.200174977682645 
620	 0.200492936947087 
621	 0.200585586896023 
622	 0.200340104938422 
623	 0.200131357132045 
624	 0.200289939089442 
625	 0.200463438652216 
626	 0.20061371751687 
627	 0.200808331756166 
628	 0.201128365095766 
629	 0.201544716243927 
630	 0.201736105061839 
631	 0.201705160848444 
632	 0.201501243982511 
633	 0.201315231576798 
634	 0.201354693120976 
635	 0.202085081639018 
636	 0.202748647125355 
637	 0.202897245778416 
638	 0.202886119527222 
639	 0.203097361472318 
640	 0.20414014942702 
641	 0.204937010390545 
642	 0.205096330026991 
643	 0.204580903701626 
644	 0.204409613357443 
645	 0.205369152776599 
646	 0.205446277684161 
647	 0.204932294724269 
648	 0.205775098161902 
649	 0.205921664971821 
650	 0.204776717025211 
651	 0.203888845849598 
652	 0.203339497663866 
653	 0.203044977490946 
654	 0.202699839197562 
655	 0.201943435877129 
656	 0.20021015310478 
657	 0.197628439749101 
658	 0.194660321587266 
659	 0.192706877676601 
660	 0.191308307537268 
661	 0.189559545568082 
662	 0.187442762556415 
663	 0.185065765227296 
664	 0.183127344833509 
665	 0.180995030706645 
666	 0.17819427972243 
667	 0.175818026782609 
668	 0.174038523653859 
669	 0.172766839843314 
670	 0.171399021722455 
671	 0.16993542934192 
672	 0.169896157817836 
673	 0.170160528015402 
674	 0.169344074624968 
675	 0.168686966005144 
676	 0.168566603402669 
677	 0.169199765420819 
678	 0.170053668718973 
679	 0.17090832922201 
680	 0.17248092883386 
681	 0.174428184692242 
682	 0.176066252915449 
683	 0.178698150857022 
684	 0.182304371624028 
685	 0.185353935360016 
686	 0.189168288177517 
687	 0.194772117962466 
688	 0.200028264690655 
689	 0.204586590428456 
690	 0.209725398835072 
691	 0.215590567946653 
692	 0.222224452382607 
693	 0.228906696780825 
694	 0.235389460691849 
695	 0.24119047489777 
696	 0.246782803204627 
697	 0.252365086434654 
698	 0.258448403948941 
699	 0.264066872510005 
700	 0.268770188928653 
701	 0.273771063611645 
702	 0.278609500398138 
703	 0.282526591545178 
704	 0.286551617211611 
705	 0.290684233446761 
706	 0.293827454036636 
707	 0.296671914310011 
708	 0.299668293476681 
709	 0.302717304104773 
710	 0.305591353753026 
711	 0.307817992706339 
712	 0.310488324819887 
713	 0.313651605795965 
714	 0.315970667113851 
715	 0.31790425351165 
716	 0.320060607853928 
717	 0.322785259523943 
718	 0.32577082720809 
719	 0.327412970517682 
720	 0.328285909533606 
721	 0.328998265177936 
722	 0.330970685231463 
723	 0.333538730790678 
724	 0.335773591197874 
725	 0.33719077404529 
726	 0.337972601714301 
727	 0.339500644173859 
728	 0.341055174810904 
729	 0.342353061751556 
730	 0.344079748254233 
731	 0.345579834899396 
732	 0.34590650771079 
733	 0.346412219048077 
734	 0.347412080727899 
735	 0.348732385078858 
736	 0.3500356384054 
737	 0.351059086335148 
738	 0.352093521029337 
739	 0.353095008711899 
740	 0.353910071013984 
741	 0.354571801769998 
742	 0.355202231387975 
743	 0.356220185226816 
744	 0.357336898094874 
745	 0.358285573891918 
746	 0.358986611944197 
747	 0.359589117447619 
748	 0.360525663077565 
749	 0.36125497600079 
750	 0.361731938213314 
751	 0.362861635786451 
752	 0.363932805021055 
753	 0.364173416422861 
754	 0.364727682656894 
755	 0.365588295698327 
756	 0.36630189006137 
757	 0.365466004664491 
758	 0.362883575929056 
759	 0.363316662087647 
760	 0.368292742512185 
761	 0.375274583876374 
762	 0.378367955388742 
763	 0.377947044706404 
764	 0.379564069227963 
765	 0.380596321136445 
766	 0.380283157208633 
767	 0.379417424053931 
768	 0.378604955686985 
769	 0.378409092722216 
770	 0.378965592128003 
771	 0.38005575011402 
772	 0.380666467684688 
773	 0.381518944544855 
774	 0.382973695520583 
775	 0.38380227368474 
776	 0.384112468149621 
777	 0.384422510623701 
778	 0.384924837338092 
779	 0.385646066228435 
780	 0.386211061711995 
781	 0.387072830692187 
782	 0.388503375120194 
783	 0.389369593038183 
784	 0.389940916883849 
785	 0.391294579875397 
786	 0.39175415894331 
787	 0.39124739658468 
788	 0.392186262630118 
789	 0.393461641180722 
790	 0.393970924148375 
791	 0.394759168161216 
792	 0.395874360393203 
793	 0.397088704463591 
794	 0.397701385987513 
795	 0.397656999134062 
796	 0.398161369038473 
797	 0.398869863530981 
798	 0.399385996999345 
799	 0.40018916369974 
800	 0.401318713797517 
801	 0.402714855776758 
802	 0.403666561476159 
803	 0.40398408941183 
804	 0.404642135928217 
805	 0.404904637783658 
806	 0.404037568276751 
807	 0.40493820533333 
808	 0.407030484915317 
809	 0.4067116979875 
810	 0.407327719785754 
811	 0.409801688854073 
812	 0.410355104104658 
813	 0.409998919117798 
814	 0.410485777229409 
815	 0.411965612162541 
816	 0.414299745262279 
817	 0.416838562722868 
818	 0.418633364342194 
819	 0.419102043811746 
820	 0.417613550719533 
821	 0.417087425320593 
822	 0.420827881618312 
823	 0.423908971188814 
824	 0.424755116331894 
825	 0.422758921425662 
826	 0.421565426660385 
827	 0.422679225956163 
828	 0.424457477266095 
829	 0.425958739787329 
830	 0.426252398055135 
831	 0.426755885603912 
832	 0.427539630539947 
833	 0.427774543890879 
834	 0.42833613895433 
835	 0.429308309057854 
836	 0.428843452048173 
837	 0.428283925688795 
838	 0.429241958409562 
839	 0.429940344641516 
840	 0.4301613282795 
841	 0.430313406001312 
842	 0.431093446092498 
843	 0.432390656497735 
844	 0.431685225528941 
845	 0.430309750418079 
846	 0.429999039681148 
847	 0.430688243768109 
848	 0.431687139196296 
849	 0.430871299920011 
850	 0.430762415375921 
851	 0.43222275178073 
852	 0.433502463201094 
853	 0.434851248752568 
854	 0.436582049641563 
855	 0.437178406915653 
856	 0.436652939485391 
857	 0.435640169232612 
858	 0.435671939479297 
859	 0.436877334048908 
860	 0.436702247040772 
861	 0.435994451320997 
862	 0.435759153222055 
863	 0.43646260682421 
864	 0.437755433267633 
865	 0.438476178121663 
866	 0.440027955438686 
867	 0.442346732305175 
868	 0.443117576245688 
869	 0.443331233034148 
870	 0.443914038390243 
871	 0.444774973757162 
872	 0.445600404473543 
873	 0.445747260169519 
874	 0.446168378000853 
875	 0.447269782818555 
876	 0.44933013660229 
877	 0.451214328332536 
878	 0.452359685278075 
879	 0.455215948774701 
880	 0.458306693735612 
881	 0.458783984668085 
882	 0.459305511679767 
883	 0.460416287718312 
884	 0.461148380148507 
885	 0.462763239879402 
886	 0.465494432021149 
887	 0.466009241833648 
888	 0.465256273059677 
889	 0.464999474768806 
890	 0.465071125598465 
891	 0.465575160077034 
892	 0.466912046191479 
893	 0.467054840898425 
894	 0.46590627402467 
895	 0.469399511879012 
896	 0.47425328898269 
897	 0.476091340825632 
898	 0.479799874476671 
899	 0.484222883534243 
900	 0.48428522390789 
901	 0.482914884546926 
902	 0.481637253709021 
903	 0.482132841160252 
904	 0.481911073354779 
905	 0.479613602418486 
906	 0.4813867051714 
907	 0.485775474130806 
908	 0.488654340009256 
909	 0.487653381029948 
910	 0.484233088384234 
911	 0.48700618382085 
912	 0.490863147534773 
913	 0.492890239081777 
914	 0.495343225017981 
915	 0.497073678680443 
916	 0.496610268322983 
917	 0.49718681590293 
918	 0.497741656962633 
919	 0.492995641781538 
920	 0.491238667409743 
921	 0.493883006145033 
922	 0.491955971308837 
923	 0.48922144363991 
924	 0.489110007516765 
925	 0.487554305202901 
926	 0.485010924981792 
927	 0.483749729392172 
928	 0.485402444076995 
929	 0.490218159547555 
930	 0.495445076947766 
931	 0.498730321488688 
932	 0.498558124292801 
933	 0.502835440222459 
934	 0.510356285871822 
935	 0.517217763014758 
936	 0.520341721335553 
937	 0.515963192086324 
938	 0.496006320538358 
939	 0.489649578921042 
940	 0.501422073430374 
941	 0.509114940411425 
942	 0.508551449504472 
943	 0.498909655912981 
944	 0.49696865147482 
945	 0.502631406083053 
946	 0.511728205803411 
947	 0.507106967534473 
948	 0.493260607148438 
949	 0.501162778329793 
950	 0.503877714535248 
951	 0.494142624431841 
952	 0.500756032151262 
953	 0.505344784066938 
954	 0.492710897902719 
955	 0.49787843771948 
956	 0.510920760044425 
957	 0.504223291278575 
958	 0.502800988425723 
959	 0.508999501413859 
960	 0.508871573027172 
961	 0.506039898574336 
962	 0.503126856724526 
963	 0.503459040706046 
964	 0.503928404144272 
965	 0.501755903293589 
966	 0.505206772949698 
967	 0.509178535751355 
968	 0.500877718275475 
969	 0.499077328114039 
970	 0.505164810491268 
971	 0.503848416822213 
972	 0.502534905210744 
973	 0.504824867252845 
974	 0.505975532825017 
975	 0.506482870067433 
976	 0.507537435645693 
977	 0.51232992339012 
978	 0.516742952938794 
979	 0.511500831065438 
980	 0.502223037464836 
981	 0.494316944225982 
982	 0.498620684178104 
983	 0.503250573928073 
984	 0.502485379600138 
985	 0.50553880245353 
986	 0.508907504798165 
987	 0.508264996405736 
988	 0.508568704564414 
989	 0.5101360515336 
990	 0.511804747483942 
991	 0.512565845528101 
992	 0.511782611174653 
993	 0.508451635773246 
994	 0.506087490649806 
995	 0.505988401213431 
996	 0.504200709074512 
997	 0.501226605084766 
998	 0.49882069542595 
999	 0.508642360359279 
1000	 0.520351275289789 
1001	 0.513863368839162 
1002	 0.514232690978054 
1003	 0.522433759874458 
1004	 0.519740196671646 
1005	 0.515282474820804 
1006	 0.512877955084556 
1007	 0.51185948995326 
1008	 0.510168051820043 
1009	 0.507851617364485 
1010	 0.518862951576987 
1011	 0.531415439009592 
1012	 0.526376354761359 
1013	 0.520834213786522 
1014	 0.517660125654982 
1015	 0.514018253688518 
1016	 0.519404572448861 
1017	 0.531398204375814 
1018	 0.527642139575082 
1019	 0.527780308058003 
1020	 0.539259848813294 
1021	 0.53657079755539 
1022	 0.523987452327773 
1023	 0.510131798050971 
1024	 0.513068362347969 
1025	 0.525548339981986 
1026	 0.530456060518829 
1027	 0.520970392881901 
1028	 0.505282587459575 
1029	 0.514838639898238 
1030	 0.5201591807083 
1031	 0.516988969520884 
1032	 0.535293779169581 
1033	 0.548155643374407 
1034	 0.539433992302589 
1035	 0.526046474453815 
1036	 0.519909936547641 
1037	 0.531122410087986 
1038	 0.541078291657682 
1039	 0.539377001183706 
1040	 0.516255410432047 
1041	 0.509821941689872 
1042	 0.521786259914789 
1043	 0.528635401204047 
1044	 0.535722543963118 
1045	 0.541327148098456 
1046	 0.536499948587362 
1047	 0.523974199645915 
1048	 0.51030463175134 
1049	 0.520178676063491 
1050	 0.530409755744822 
1051	 0.518449766599057 
1052	 0.520049848722032 
1053	 0.533084024124084 
1054	 0.543875253703674 
1055	 0.538728864464702 
1056	 0.530385626801344 
1057	 0.559259751449551 
1058	 0.554509853286978 
1059	 0.518478288778172 
1060	 0.538511706852054 
1061	 0.549361214258852 
1062	 0.523976576437805 
1063	 0.496296005250842 
1064	 0.484714926498803 
1065	 0.49993187723517 
1066	 0.532078939374666 
1067	 0.538674268659324 
1068	 0.485404779373867 
1069	 0.486743713867179 
1070	 0.520844020918035 
1071	 0.516473338712994 
1072	 0.541822112291038 
1073	 0.576737454558817 
1074	 0.557400676719556 
1075	 0.514325375262394 
