Wavelength	SHSI00261.asd
325	 9.02336807590673E-02 
326	 8.79811125992825E-02 
327	 7.98758383095151E-02 
328	 8.32549155348992E-02 
329	 0.081095831453094 
330	 7.08902681443135E-02 
331	 7.37215692785259E-02 
332	 8.24543850176609E-02 
333	 8.88752173945099E-02 
334	 8.51974869569305E-02 
335	 7.68767724947388E-02 
336	 7.98197330514493E-02 
337	 7.98325172678414E-02 
338	 7.49160129734751E-02 
339	 7.57216631675774E-02 
340	 7.96986281832484E-02 
341	 8.41102136172971E-02 
342	 8.78647536861237E-02 
343	 8.98706996774654E-02 
344	 8.88912048432851E-02 
345	 0.085521217068601 
346	 0.081783518310145 
347	 8.36430063248939E-02 
348	 8.67087803365307E-02 
349	 8.77064178201004E-02 
350	 8.68009410204829E-02 
351	 8.46986464782039E-02 
352	 8.22959911837095E-02 
353	 8.15327029594846E-02 
354	 8.29607706876701E-02 
355	 8.69277838208055E-02 
356	 8.84568847739171E-02 
357	 8.53391204151331E-02 
358	 8.60953041973221E-02 
359	 8.75969099952761E-02 
360	 8.35798851809558E-02 
361	 8.33688818542049E-02 
362	 8.69040708348247E-02 
363	 8.64717010489086E-02 
364	 8.51541566058414E-02 
365	 8.47091053241399E-02 
366	 8.47581629450312E-02 
367	 8.60367015332457E-02 
368	 0.089551584304037 
369	 8.95908983749933E-02 
370	 8.69989277443079E-02 
371	 8.93992898907026E-02 
372	 9.25685439177231E-02 
373	 9.36958568648492E-02 
374	 9.09043968849847E-02 
375	 8.73543771483137E-02 
376	 8.75039226720007E-02 
377	 8.73399387337582E-02 
378	 8.63226271617194E-02 
379	 8.56661760127201E-02 
380	 0.085787281815918 
381	 8.69255396952648E-02 
382	 8.94431338557964E-02 
383	 8.99583688795097E-02 
384	 8.43064738685796E-02 
385	 8.24274336408028E-02 
386	 8.47833382677046E-02 
387	 8.51170102124157E-02 
388	 8.44443623861159E-02 
389	 8.33863689292832E-02 
390	 8.30372653464805E-02 
391	 8.45724164039191E-02 
392	 8.90275058526586E-02 
393	 8.80264960594212E-02 
394	 8.27285395468674E-02 
395	 8.17650825362878E-02 
396	 0.082482291804273 
397	 0.083320309794594 
398	 8.24124723928095E-02 
399	 8.11296015825646E-02 
400	 0.080945779090247 
401	 8.08369859564536E-02 
402	 8.10974807356179E-02 
403	 0.083222541224902 
404	 8.42778695443125E-02 
405	 0.083446599603994 
406	 8.41761437827085E-02 
407	 8.49523693617235E-02 
408	 0.083615262781293 
409	 8.31221009061899E-02 
410	 8.35938302676251E-02 
411	 8.33454716357576E-02 
412	 8.33748914913063E-02 
413	 8.39647940071813E-02 
414	 8.38745534824916E-02 
415	 8.35509455980456E-02 
416	 0.083708852101042 
417	 8.42132456878442E-02 
418	 8.46752148740797E-02 
419	 8.40125065379711E-02 
420	 8.31895328606154E-02 
421	 8.28580803101515E-02 
422	 8.34919225894864E-02 
423	 8.44977777823109E-02 
424	 0.084995837582853 
425	 8.43671638624971E-02 
426	 8.31727965445253E-02 
427	 8.41102946757105E-02 
428	 8.48619728175446E-02 
429	 8.40061517285573E-02 
430	 8.32588466790416E-02 
431	 8.27870542326253E-02 
432	 8.24169818365127E-02 
433	 8.29555993641124E-02 
434	 0.083997367713015 
435	 8.33624561994402E-02 
436	 8.30033332752539E-02 
437	 8.40946750489592E-02 
438	 8.45634699775333E-02 
439	 8.44842515428744E-02 
440	 8.45596455305098E-02 
441	 8.45364621821497E-02 
442	 8.44169595554367E-02 
443	 8.42824535374729E-02 
444	 8.47496449811199E-02 
445	 8.61123716213313E-02 
446	 8.57967033669428E-02 
447	 8.46559043242311E-02 
448	 8.55842027145031E-02 
449	 0.086223654495389 
450	 8.60773305394271E-02 
451	 8.67283484489577E-02 
452	 8.75541185775628E-02 
453	 8.78614632480697E-02 
454	 8.80065676192909E-02 
455	 8.80391809860637E-02 
456	 8.78924029403742E-02 
457	 8.78069375155206E-02 
458	 0.087922829952428 
459	 8.82852686903603E-02 
460	 8.88196838254426E-02 
461	 8.94128855792832E-02 
462	 8.89511661444209E-02 
463	 8.80396387179682E-02 
464	 8.93825812836252E-02 
465	 9.04856017665501E-02 
466	 9.01859144490999E-02 
467	 9.02594856428461E-02 
468	 9.04113218588214E-02 
469	 8.99345404632288E-02 
470	 8.97814601355911E-02 
471	 9.01348272928465E-02 
472	 0.090677075182329 
473	 9.12390462910213E-02 
474	 9.16451960058668E-02 
475	 9.15134331047448E-02 
476	 0.091207569281838 
477	 9.14494628513939E-02 
478	 9.14643282234225E-02 
479	 9.12701957158131E-02 
480	 9.18492384941171E-02 
481	 9.26033064422088E-02 
482	 9.30303440862165E-02 
483	 9.33943124020667E-02 
484	 0.093672281465333 
485	 9.37487099513101E-02 
486	 9.35714490389909E-02 
487	 9.32356772844721E-02 
488	 0.093294764447954 
489	 9.32832180873956E-02 
490	 9.27668935873657E-02 
491	 9.33103898339985E-02 
492	 9.44573095666815E-02 
493	 9.41796052344469E-02 
494	 9.37924121420829E-02 
495	 9.39360581743489E-02 
496	 9.48181430716713E-02 
497	 9.57552507114669E-02 
498	 9.58490197286346E-02 
499	 9.65191359408004E-02 
500	 0.097631281640356 
501	 9.75620342938057E-02 
502	 9.72424147520232E-02 
503	 9.72670051847105E-02 
504	 9.75212616315586E-02 
505	 9.77949973886081E-02 
506	 9.77009642244515E-02 
507	 9.83675610202529E-02 
508	 9.97204403379867E-02 
509	 0.100060810119517 
510	 0.100474259731305 
511	 0.10174211066646 
512	 0.102092170618343 
513	 0.101963282882885 
514	 0.103078549443712 
515	 0.104120544781996 
516	 0.104624398376447 
517	 0.104853223345185 
518	 0.104913585206629 
519	 0.104931832133735 
520	 0.105439372198546 
521	 0.106243786968936 
522	 0.106486962679667 
523	 0.106953888034321 
524	 0.107927467072037 
525	 0.108744332084979 
526	 0.109381730056041 
527	 0.109918131400369 
528	 0.110061384501162 
529	 0.110066559016455 
530	 0.110960784999309 
531	 0.112130777644336 
532	 0.11309393937306 
533	 0.113493808775766 
534	 0.113570271709995 
535	 0.11389670406096 
536	 0.114234555591053 
537	 0.114632282215555 
538	 0.115549773399272 
539	 0.116531916676289 
540	 0.117112911189626 
541	 0.117373430246758 
542	 0.117508310815545 
543	 0.11793826312846 
544	 0.118612437561857 
545	 0.119408012231042 
546	 0.119664274874176 
547	 0.119820296654702 
548	 0.120519138307747 
549	 0.121157906886235 
550	 0.121544930127716 
551	 0.121552025992881 
552	 0.121616814722855 
553	 0.12206960139917 
554	 0.123168189053474 
555	 0.124223184214799 
556	 0.123864232538986 
557	 0.12408333389998 
558	 0.125153138656627 
559	 0.125088638356438 
560	 0.125024552646729 
561	 0.125996226589524 
562	 0.126555978107034 
563	 0.126694522811271 
564	 0.12714550171921 
565	 0.127378460253646 
566	 0.12731006351101 
567	 0.127727725098194 
568	 0.12827339097535 
569	 0.128407079960161 
570	 0.128577097196555 
571	 0.128777303899564 
572	 0.128604280952319 
573	 0.128458595943523 
574	 0.128628596362723 
575	 0.129289188240192 
576	 0.13004727584051 
577	 0.130147745299664 
578	 0.130300717028527 
579	 0.130683422394151 
580	 0.131000938261528 
581	 0.131416076242195 
582	 0.132042399458917 
583	 0.132370055277328 
584	 0.132413471003449 
585	 0.132370472040457 
586	 0.132781819146335 
587	 0.133703152472477 
588	 0.133859582425712 
589	 0.133688516075828 
590	 0.133916383453703 
591	 0.133909200587356 
592	 0.133753321022193 
593	 0.134174253606058 
594	 0.134542798185942 
595	 0.134547800486035 
596	 0.134794503920731 
597	 0.135421912985925 
598	 0.136625667033407 
599	 0.136711387727774 
600	 0.135660783714862 
601	 0.135934504558216 
602	 0.13652220195456 
603	 0.136493055457005 
604	 0.136739768338041 
605	 0.137160389150063 
606	 0.137110981283341 
607	 0.137110470635263 
608	 0.137319499401901 
609	 0.137433481279705 
610	 0.137327686371654 
611	 0.136892511809666 
612	 0.136889585984394 
613	 0.137180330712135 
614	 0.136542623976966 
615	 0.136265821972302 
616	 0.136982474849366 
617	 0.136990183075734 
618	 0.136501018735392 
619	 0.136266557000472 
620	 0.136335426920447 
621	 0.136666149086564 
622	 0.136890196435315 
623	 0.137039296510469 
624	 0.137147852027198 
625	 0.137170663774272 
626	 0.137087748685399 
627	 0.136724237640163 
628	 0.137074085263913 
629	 0.138260234372047 
630	 0.138388113522444 
631	 0.138094525186796 
632	 0.13837318416681 
633	 0.138355782828512 
634	 0.138154708904802 
635	 0.138779721609104 
636	 0.139297540436227 
637	 0.139230229955528 
638	 0.139545976621974 
639	 0.140081207170396 
640	 0.140323421593939 
641	 0.140534192709525 
642	 0.140744402858361 
643	 0.140733547476936 
644	 0.140906851927161 
645	 0.141572460623485 
646	 0.141831251510108 
647	 0.141699957887131 
648	 0.141727285590421 
649	 0.141597459863474 
650	 0.141248923661105 
651	 0.140882947534402 
652	 0.14082280144597 
653	 0.141408276594013 
654	 0.141604628411429 
655	 0.141066913034714 
656	 0.139672509832569 
657	 0.138304550131418 
658	 0.137569386809549 
659	 0.137162623204426 
660	 0.136722272356653 
661	 0.135784158653147 
662	 0.134553674739678 
663	 0.133234254173442 
664	 0.132433029713358 
665	 0.131496537769104 
666	 0.129955419262961 
667	 0.129260887180357 
668	 0.129063242558352 
669	 0.127864121039408 
670	 0.12670112079978 
671	 0.126041723548413 
672	 0.126324603762913 
673	 0.126463099761329 
674	 0.125240499286161 
675	 0.125272424421351 
676	 0.126389960980125 
677	 0.12614735212226 
678	 0.126052007234118 
679	 0.12686196871413 
680	 0.127871147087319 
681	 0.128959084582846 
682	 0.130049251578455 
683	 0.13191443284989 
684	 0.13434318151231 
685	 0.135648367099181 
686	 0.137268073041656 
687	 0.140397914249313 
688	 0.14327114606039 
689	 0.145620194686104 
690	 0.148258280640405 
691	 0.151027307424733 
692	 0.154005116088608 
693	 0.157387255141486 
694	 0.160913456019562 
695	 0.164140390684738 
696	 0.166970335721093 
697	 0.169679623339458 
698	 0.173376106245533 
699	 0.176007208674659 
700	 0.176922973048938 
701	 0.179388841471632 
702	 0.182577480350487 
703	 0.184867952447574 
704	 0.186592087474622 
705	 0.188041990593517 
706	 0.189917272724077 
707	 0.191742507092388 
708	 0.193212207838553 
709	 0.19457575623614 
710	 0.195908750330803 
711	 0.197243387842419 
712	 0.198891994210099 
713	 0.200706499614652 
714	 0.20171851521011 
715	 0.202222961936564 
716	 0.202576634245884 
717	 0.203178335768664 
718	 0.204126670528146 
719	 0.2051441803937 
720	 0.206057168997191 
721	 0.206780017494515 
722	 0.207595002903995 
723	 0.208486729948522 
724	 0.209359990344379 
725	 0.210220052163858 
726	 0.211040732383796 
727	 0.212043823196071 
728	 0.212573146320068 
729	 0.212535223031999 
730	 0.213716628581425 
731	 0.215253241440266 
732	 0.215707262779907 
733	 0.216136752254139 
734	 0.216843844762725 
735	 0.217969006140296 
736	 0.219018924294862 
737	 0.219680919074929 
738	 0.220696190764481 
739	 0.221785632628727 
740	 0.222253130439387 
741	 0.222537881670432 
742	 0.222824250404342 
743	 0.223187089610327 
744	 0.223861024415211 
745	 0.224982067516506 
746	 0.225774244522162 
747	 0.226193702349596 
748	 0.226439827705664 
749	 0.227083541885511 
750	 0.228144102097627 
751	 0.228365048518257 
752	 0.228533392436949 
753	 0.229520545222262 
754	 0.229821128534938 
755	 0.229659618325294 
756	 0.230838789587649 
757	 0.230464692511841 
758	 0.227640971673713 
759	 0.22719886319818 
760	 0.229757620392424 
761	 0.23299875308633 
762	 0.234208761220139 
763	 0.233884577734185 
764	 0.235241170878121 
765	 0.236709252525769 
766	 0.237582613948842 
767	 0.237663947349066 
768	 0.237612132066015 
769	 0.238164340620212 
770	 0.238226764319426 
771	 0.237950621253064 
772	 0.23882536019827 
773	 0.239864243063879 
774	 0.240409353578372 
775	 0.240876221317601 
776	 0.241391658373071 
777	 0.242123096063955 
778	 0.242485145115838 
779	 0.242535829850974 
780	 0.243295280233941 
781	 0.244157975901539 
782	 0.244635006512949 
783	 0.245124892337307 
784	 0.245634836144027 
785	 0.246055722442876 
786	 0.24641478627965 
787	 0.246680786344129 
788	 0.246571072140751 
789	 0.246791698379398 
790	 0.247944653293566 
791	 0.248924911425235 
792	 0.249639081970652 
793	 0.250511551402758 
794	 0.250824806834221 
795	 0.250506761164238 
796	 0.250525900059692 
797	 0.250736403318544 
798	 0.250974655449029 
799	 0.252135384780803 
800	 0.253757616540659 
801	 0.254247221719701 
802	 0.254180298112632 
803	 0.2539907925179 
804	 0.254876529517954 
805	 0.25575603420544 
806	 0.25543836063305 
807	 0.255606482547955 
808	 0.256217893189617 
809	 0.256058304676134 
810	 0.256312306340004 
811	 0.257147265700247 
812	 0.256224769226205 
813	 0.254951408887354 
814	 0.25543706680489 
815	 0.256688221329721 
816	 0.258242239316307 
817	 0.259403300202725 
818	 0.260700945580221 
819	 0.262064004733133 
820	 0.26194742501491 
821	 0.261645742155704 
822	 0.262755332130884 
823	 0.264463842709969 
824	 0.265696889586237 
825	 0.264031552852797 
826	 0.263361381511233 
827	 0.265033741857569 
828	 0.266311702788936 
829	 0.266625138666386 
830	 0.265694409648967 
831	 0.2659969936477 
832	 0.267645781257959 
833	 0.269383438360823 
834	 0.270061675201554 
835	 0.269455018086839 
836	 0.269697483139081 
837	 0.27040549568206 
838	 0.270935206543864 
839	 0.271517778073194 
840	 0.272113252334697 
841	 0.272460655960196 
842	 0.273287955808467 
843	 0.274536326540136 
844	 0.274055070010949 
845	 0.27288944575905 
846	 0.272420021230136 
847	 0.272504855011156 
848	 0.272944026860748 
849	 0.273300746575939 
850	 0.27282308157344 
851	 0.271700179601812 
852	 0.272892064148504 
853	 0.275101650595237 
854	 0.276610529156117 
855	 0.277198389658039 
856	 0.276836552333974 
857	 0.275551682080292 
858	 0.27502337827323 
859	 0.275668241678778 
860	 0.275931332241909 
861	 0.276379746398335 
862	 0.277515116860238 
863	 0.277638668663796 
864	 0.277179831017237 
865	 0.277797391137802 
866	 0.279176787214902 
867	 0.280841982852162 
868	 0.281161005847749 
869	 0.28114330175734 
870	 0.28162580257161 
871	 0.281672256810951 
872	 0.281504511730602 
873	 0.28175927173658 
874	 0.282294944648122 
875	 0.283091086760903 
876	 0.284142607987431 
877	 0.285297978359144 
878	 0.2864611555323 
879	 0.287869985380114 
880	 0.288851990172602 
881	 0.288290053082822 
882	 0.289240493248907 
883	 0.291369232826558 
884	 0.290237990196874 
885	 0.289979246554978 
886	 0.292329697545399 
887	 0.291921340359244 
888	 0.290780396794216 
889	 0.292246866305482 
890	 0.29224249273135 
891	 0.290483615105659 
892	 0.289018711258658 
893	 0.287862137304823 
894	 0.287532438669809 
895	 0.290128535862243 
896	 0.293051862857997 
897	 0.293129132370115 
898	 0.294055050292815 
899	 0.295742181193049 
900	 0.295970698320937 
901	 0.296263375425858 
902	 0.297037721386778 
903	 0.297916011575182 
904	 0.298186577733501 
905	 0.297420729802719 
906	 0.296650866966336 
907	 0.296835492208152 
908	 0.299484064602226 
909	 0.298135423966488 
910	 0.293576593925384 
911	 0.296579460363905 
912	 0.299487148109322 
913	 0.298614562658307 
914	 0.301015519897355 
915	 0.305013898710102 
916	 0.307611027470938 
917	 0.306848899892314 
918	 0.303556263058446 
919	 0.300706297071443 
920	 0.300283134900193 
921	 0.301745129377312 
922	 0.297649773516017 
923	 0.294521410736424 
924	 0.297681592457265 
925	 0.296309233635033 
926	 0.291758101874635 
927	 0.290998478493959 
928	 0.291262695352596 
929	 0.29190471266057 
930	 0.293559933408952 
931	 0.29425157779958 
932	 0.293616645174231 
933	 0.305305508562624 
934	 0.31374034660428 
935	 0.295060122842877 
936	 0.287123994026572 
937	 0.292577526539786 
938	 0.291879220052351 
939	 0.287054443178141 
940	 0.282029890791708 
941	 0.292963537276843 
942	 0.302362390073097 
943	 0.298290344620448 
944	 0.29909858546038 
945	 0.300646431896486 
946	 0.292518361402524 
947	 0.287405372591304 
948	 0.288040342473753 
949	 0.290868892040291 
950	 0.295109935320573 
951	 0.29947202203022 
952	 0.300457093122697 
953	 0.300166293892613 
954	 0.300594240265336 
955	 0.298278475449688 
956	 0.295793923354719 
957	 0.298491359925809 
958	 0.299474785395632 
959	 0.298289692784939 
960	 0.299528243661794 
961	 0.302741144853452 
962	 0.306367504137843 
963	 0.303771631506506 
964	 0.302922648544836 
965	 0.310836696059998 
966	 0.310467259454895 
967	 0.304300787729529 
968	 0.30287726165431 
969	 0.302593307871954 
970	 0.301775877250171 
971	 0.296825831424917 
972	 0.294769845688941 
973	 0.298781643390417 
974	 0.302508994437707 
975	 0.305262676978033 
976	 0.307165214290511 
977	 0.311667104039494 
978	 0.313755874289816 
979	 0.300996206797756 
980	 0.297442795438223 
981	 0.305994625616186 
982	 0.306930693069307 
983	 0.309846066773027 
984	 0.317183197174784 
985	 0.311496647257948 
986	 0.303121294983175 
987	 0.304455402189802 
988	 0.306144581536583 
989	 0.307246175374424 
990	 0.309295454489543 
991	 0.309962747134515 
992	 0.309046274683723 
993	 0.308739188325822 
994	 0.306143274859097 
995	 0.301831486830873 
996	 0.308031660690957 
997	 0.312840132061068 
998	 0.30493232165283 
999	 0.302245914662456 
1000	 0.304009496820482 
1001	 0.303175242828207 
1002	 0.30718224803761 
1003	 0.315120457005939 
1004	 0.319208259877222 
1005	 0.318888252937945 
1006	 0.314941115549972 
1007	 0.312523096951549 
1008	 0.314386419946209 
1009	 0.320867366054384 
1010	 0.319670511399226 
1011	 0.315014738383538 
1012	 0.31519614597249 
1013	 0.313052367110317 
1014	 0.309209447564171 
1015	 0.308203832536378 
1016	 0.313970616775997 
1017	 0.323739964324216 
1018	 0.322208595460791 
1019	 0.314195739586451 
1020	 0.306514369602632 
1021	 0.322699319368681 
1022	 0.332801556955959 
1023	 0.310247193609489 
1024	 0.320065541549056 
1025	 0.340345475345062 
1026	 0.318636757060607 
1027	 0.306609384233898 
1028	 0.311187578405661 
1029	 0.312730765884752 
1030	 0.307629450677839 
1031	 0.299383334545311 
1032	 0.313942054036599 
1033	 0.328336602427577 
1034	 0.327262483140089 
1035	 0.320501314480147 
1036	 0.30914406515686 
1037	 0.296683452945708 
1038	 0.314680105301946 
1039	 0.338029918182846 
1040	 0.316448460625097 
1041	 0.311340521410487 
1042	 0.326101858546351 
1043	 0.32603589045321 
1044	 0.333544069114295 
1045	 0.346276865202494 
1046	 0.321843112823522 
1047	 0.304788494621726 
1048	 0.316012004293883 
1049	 0.29234022391937 
1050	 0.285144534874989 
1051	 0.33813588707272 
1052	 0.328172046974999 
1053	 0.291480106745527 
1054	 0.31308431751714 
1055	 0.327695668585066 
1056	 0.32749000476292 
1057	 0.323657497524626 
1058	 0.31230058363879 
1059	 0.300096787049513 
1060	 0.309739821897742 
1061	 0.322557893571005 
1062	 0.325422367784774 
1063	 0.305005497538507 
1064	 0.285381796049063 
1065	 0.287378476940963 
1066	 0.328687918933591 
1067	 0.353533524463512 
1068	 0.311385424183074 
1069	 0.31989461591436 
1070	 0.345472602058439 
1071	 0.298192745061109 
1072	 0.290211050994314 
1073	 0.325280789559614 
1074	 0.345609825073178 
1075	 0.324910981422169 
