Wavelength	SHSI00136.asd
325	 5.25957846197418E-02 
326	 5.49713410573922E-02 
327	 6.40919784532908E-02 
328	 6.25135939865365E-02 
329	 5.63380754249916E-02 
330	 4.96093193707336E-02 
331	 4.97501570215018E-02 
332	 5.54430322358532E-02 
333	 6.42229644896377E-02 
334	 6.68880328847863E-02 
335	 6.34822825156663E-02 
336	 5.73446609831415E-02 
337	 5.43893080037916E-02 
338	 5.53539428803878E-02 
339	 5.21586360799375E-02 
340	 5.10095859329947E-02 
341	 5.65284407184593E-02 
342	 5.91504324048938E-02 
343	 5.82292077355547E-02 
344	 5.51987944275665E-02 
345	 5.58231131309905E-02 
346	 5.93548233051983E-02 
347	 0.056272526502094 
348	 5.23175350774074E-02 
349	 5.16139824295803E-02 
350	 5.38636424341552E-02 
351	 5.58220746572076E-02 
352	 5.23806096376003E-02 
353	 5.41986319370716E-02 
354	 0.060481073466523 
355	 5.92467919816047E-02 
356	 5.47419970644897E-02 
357	 5.06235775368679E-02 
358	 5.23661900789175E-02 
359	 5.60209006161445E-02 
360	 5.46105484100241E-02 
361	 0.054914628186657 
362	 5.65767217753449E-02 
363	 5.23223050177914E-02 
364	 5.09688758850458E-02 
365	 5.60504452923118E-02 
366	 5.76688487325806E-02 
367	 5.63229217702864E-02 
368	 5.40694987337786E-02 
369	 5.32430949961729E-02 
370	 5.40838411513502E-02 
371	 0.055202455007147 
372	 5.53580956011988E-02 
373	 5.41322034812379E-02 
374	 5.41651101522402E-02 
375	 5.44100036634317E-02 
376	 5.30702519752749E-02 
377	 5.31222327432591E-02 
378	 5.43780026161576E-02 
379	 5.38727584627023E-02 
380	 5.29911388504804E-02 
381	 5.23414903981445E-02 
382	 5.07394112023724E-02 
383	 4.99971691845221E-02 
384	 5.25095477350292E-02 
385	 5.25852770883579E-02 
386	 0.050267984070287 
387	 5.02137571549517E-02 
388	 5.08160023083342E-02 
389	 5.14559942377898E-02 
390	 5.30083905720234E-02 
391	 0.054233647003738 
392	 5.37920946590048E-02 
393	 5.30374733692235E-02 
394	 5.23787905885742E-02 
395	 5.20557521590606E-02 
396	 5.11929916755738E-02 
397	 4.99461097568321E-02 
398	 5.13535955682117E-02 
399	 5.27506805239465E-02 
400	 5.13577148720458E-02 
401	 5.13632872220103E-02 
402	 5.25703124906427E-02 
403	 5.26463190663155E-02 
404	 5.24226575952789E-02 
405	 5.23138274229085E-02 
406	 5.28336918992114E-02 
407	 5.32394230345927E-02 
408	 5.25933960174228E-02 
409	 5.22452562266356E-02 
410	 5.22416357346451E-02 
411	 5.16428071010388E-02 
412	 5.16117653352592E-02 
413	 5.24875706918623E-02 
414	 5.27235829681467E-02 
415	 5.26509900520637E-02 
416	 5.29000809105739E-02 
417	 0.052741363806678 
418	 5.23354253602909E-02 
419	 5.27513901149724E-02 
420	 0.052798625249462 
421	 5.19942208693326E-02 
422	 5.18171445303619E-02 
423	 5.19692259010352E-02 
424	 0.051728874028 
425	 5.27851275237719E-02 
426	 5.45570355750121E-02 
427	 5.35140674761877E-02 
428	 0.052101359431932 
429	 5.20531779682484E-02 
430	 5.34879365037579E-02 
431	 5.49337339450426E-02 
432	 5.39132293373152E-02 
433	 5.36327968252446E-02 
434	 5.43447769287826E-02 
435	 5.35015923661537E-02 
436	 5.27883531495558E-02 
437	 0.053221524228341 
438	 5.31052283598436E-02 
439	 5.29006787863892E-02 
440	 5.39574387486007E-02 
441	 5.44095483967296E-02 
442	 5.40045869907511E-02 
443	 5.43302032235698E-02 
444	 5.44943232841241E-02 
445	 0.053866204720828 
446	 5.42813209474386E-02 
447	 5.52570216739038E-02 
448	 5.50958863948545E-02 
449	 5.46157116586382E-02 
450	 5.41921726800774E-02 
451	 5.42863307914819E-02 
452	 5.45756539677758E-02 
453	 5.46989925958914E-02 
454	 5.45310202668341E-02 
455	 5.43251999854895E-02 
456	 5.48867564141144E-02 
457	 5.53556769342273E-02 
458	 5.53278158021642E-02 
459	 5.47836314272575E-02 
460	 5.42543410594722E-02 
461	 5.43616871079448E-02 
462	 5.50705790061229E-02 
463	 5.59299002188565E-02 
464	 5.56427657912093E-02 
465	 5.53143023791593E-02 
466	 5.54678858489616E-02 
467	 5.53990349233394E-02 
468	 5.52685888789348E-02 
469	 5.54104561063488E-02 
470	 5.56621370078286E-02 
471	 5.59477012260434E-02 
472	 5.62011345107135E-02 
473	 5.62975208278145E-02 
474	 0.056163221711198 
475	 5.58760890265493E-02 
476	 0.055618579840118 
477	 5.56319684673845E-02 
478	 5.62024450547737E-02 
479	 5.70317842321636E-02 
480	 5.65723016763322E-02 
481	 5.61474045628114E-02 
482	 5.67914876114595E-02 
483	 5.71372884014764E-02 
484	 5.71791695028749E-02 
485	 5.75149355462581E-02 
486	 5.74991604398298E-02 
487	 5.70841753139183E-02 
488	 5.73154089417991E-02 
489	 5.75112744380367E-02 
490	 5.69750561712498E-02 
491	 5.72308719860064E-02 
492	 0.058042473172993 
493	 5.80464290105306E-02 
494	 5.76166535126272E-02 
495	 5.70727025877542E-02 
496	 5.74056275157395E-02 
497	 5.80084797870491E-02 
498	 5.79808550697819E-02 
499	 5.78696959750378E-02 
500	 5.78566895914938E-02 
501	 5.80513486512948E-02 
502	 5.85000109250783E-02 
503	 5.91292604834539E-02 
504	 5.92072915706065E-02 
505	 0.059060968251505 
506	 5.93872154959256E-02 
507	 5.98262427465941E-02 
508	 6.02339232272016E-02 
509	 6.05083509830756E-02 
510	 6.05122709432628E-02 
511	 6.01982711280813E-02 
512	 6.02806435347295E-02 
513	 6.06138959472798E-02 
514	 6.05530779725821E-02 
515	 6.04486238351057E-02 
516	 6.05798857401295E-02 
517	 0.061805708620794 
518	 6.27844549461157E-02 
519	 6.20888003489884E-02 
520	 6.16689672972181E-02 
521	 6.18813414476646E-02 
522	 6.24931672594201E-02 
523	 6.29915602345704E-02 
524	 6.31881293544486E-02 
525	 6.37791935824599E-02 
526	 6.42230878610777E-02 
527	 6.36572766268045E-02 
528	 6.34763515854819E-02 
529	 0.063959133131892 
530	 6.47083817716851E-02 
531	 6.52274056429524E-02 
532	 6.52394473724744E-02 
533	 0.065490467218394 
534	 6.58858461686156E-02 
535	 6.59990252305894E-02 
536	 6.62582688649309E-02 
537	 6.66537883727201E-02 
538	 6.65495258805525E-02 
539	 0.066162113249888 
540	 6.57874960627594E-02 
541	 6.63631976283681E-02 
542	 6.74386667703153E-02 
543	 6.73031260050513E-02 
544	 6.72642189354061E-02 
545	 6.77502409329073E-02 
546	 6.78216758562113E-02 
547	 6.78487602004248E-02 
548	 6.84143798816171E-02 
549	 6.83655070504812E-02 
550	 6.77951411044689E-02 
551	 6.79949339182445E-02 
552	 6.83794451603724E-02 
553	 6.85948391200432E-02 
554	 6.89838534421767E-02 
555	 6.93166654424367E-02 
556	 6.90893014717492E-02 
557	 6.89396459104207E-02 
558	 6.90757974861913E-02 
559	 6.93737410347642E-02 
560	 6.96824296909007E-02 
561	 6.98344758817043E-02 
562	 6.93454573169032E-02 
563	 6.87504749468315E-02 
564	 6.96668897837933E-02 
565	 7.06032861694262E-02 
566	 7.08545882174245E-02 
567	 7.02949865910724E-02 
568	 6.96544072095317E-02 
569	 6.98699609501852E-02 
570	 7.04143556055666E-02 
571	 0.070937090492101 
572	 7.07878218178723E-02 
573	 7.04351050698869E-02 
574	 7.02293614717681E-02 
575	 7.04639148098624E-02 
576	 7.08668401824321E-02 
577	 7.08656185086452E-02 
578	 7.07355306024857E-02 
579	 0.070691223130722 
580	 7.13471313732298E-02 
581	 7.17234081269752E-02 
582	 7.10447139324445E-02 
583	 7.10862069111294E-02 
584	 7.17068949986087E-02 
585	 7.16755744210154E-02 
586	 7.15900558386302E-02 
587	 7.17371456939874E-02 
588	 7.25602154289086E-02 
589	 7.30514107230686E-02 
590	 7.18685497592362E-02 
591	 7.19360663376612E-02 
592	 7.30683657893325E-02 
593	 7.20860876473636E-02 
594	 7.15568176370474E-02 
595	 7.27579037450031E-02 
596	 7.30534853317123E-02 
597	 0.07269538243389 
598	 7.27110476846161E-02 
599	 7.32160095551108E-02 
600	 7.39427303083531E-02 
601	 7.33871634118198E-02 
602	 7.28855469496612E-02 
603	 7.35836086625494E-02 
604	 7.39029873293015E-02 
605	 7.37521987410373E-02 
606	 7.36419590466696E-02 
607	 7.34787121551144E-02 
608	 7.33209604543687E-02 
609	 7.35144827990447E-02 
610	 7.39441603897287E-02 
611	 7.44184158677516E-02 
612	 7.45590844146063E-02 
613	 7.43767886713185E-02 
614	 7.42197806014967E-02 
615	 7.43573998653014E-02 
616	 7.49035677601904E-02 
617	 7.52921004873164E-02 
618	 7.54154433048028E-02 
619	 7.52246816931058E-02 
620	 7.53459286189583E-02 
621	 7.58194694243599E-02 
622	 7.59180519123048E-02 
623	 7.57384082945665E-02 
624	 7.54272213771636E-02 
625	 7.54347645830107E-02 
626	 7.57487535624104E-02 
627	 7.60586535805334E-02 
628	 7.65217536160947E-02 
629	 0.077072915157328 
630	 7.71213728517487E-02 
631	 7.69073083330254E-02 
632	 7.68002274109317E-02 
633	 7.75082883842049E-02 
634	 7.86071692956629E-02 
635	 7.81843790252903E-02 
636	 7.75162468245445E-02 
637	 7.73886743644629E-02 
638	 7.75469987767354E-02 
639	 7.77125725524513E-02 
640	 7.74253661537352E-02 
641	 7.72536399173421E-02 
642	 7.73925575794954E-02 
643	 7.79651912823033E-02 
644	 7.79637108310047E-02 
645	 7.66555099697587E-02 
646	 7.66598333355488E-02 
647	 7.77161372064772E-02 
648	 7.77731678963191E-02 
649	 7.76223700946397E-02 
650	 7.75714245180645E-02 
651	 7.78334520621099E-02 
652	 7.79530366715836E-02 
653	 7.73816634275758E-02 
654	 7.76069911340149E-02 
655	 7.84426982077715E-02 
656	 7.78118745012911E-02 
657	 7.72248725991501E-02 
658	 7.75329462364726E-02 
659	 7.77465815002621E-02 
660	 7.77564638397341E-02 
661	 7.75696991843074E-02 
662	 7.73691869789848E-02 
663	 7.72614280364499E-02 
664	 0.077431264149929 
665	 7.74269890720658E-02 
666	 7.69458143076101E-02 
667	 7.72201442172152E-02 
668	 7.78088798765924E-02 
669	 7.70105690017375E-02 
670	 7.66742894658149E-02 
671	 7.73029000666349E-02 
672	 7.75650559105033E-02 
673	 7.76622314896704E-02 
674	 7.79452718878368E-02 
675	 7.85203333476504E-02 
676	 7.89828332708245E-02 
677	 7.78393509093246E-02 
678	 7.75479115440239E-02 
679	 7.92062527042925E-02 
680	 8.02215926635118E-02 
681	 8.06815447174766E-02 
682	 8.12534574553642E-02 
683	 8.17068589644874E-02 
684	 8.21736903862713E-02 
685	 8.32879334085246E-02 
686	 8.47244494310609E-02 
687	 0.086219498331639 
688	 8.83596789030782E-02 
689	 9.05208291377773E-02 
690	 9.17124696803842E-02 
691	 9.26844707883305E-02 
692	 9.36862957368788E-02 
693	 9.43624322902459E-02 
694	 9.54513777893862E-02 
695	 9.75905566361417E-02 
696	 9.88503259000851E-02 
697	 9.96750093600667E-02 
698	 0.102535676879302 
699	 0.104849217099676 
700	 0.105611667665023 
701	 0.107364825948227 
702	 0.109463969942265 
703	 0.110665684870305 
704	 0.112467876780653 
705	 0.114688789320363 
706	 0.115462031663738 
707	 0.115800186761737 
708	 0.11642859567136 
709	 0.117433800108368 
710	 0.118864122367231 
711	 0.120802229795823 
712	 0.122342371392012 
713	 0.123270277648639 
714	 0.124054953476452 
715	 0.125391896593403 
716	 0.128001573563265 
717	 0.130728672218979 
718	 0.133106068896122 
719	 0.134462349105188 
720	 0.134822586557207 
721	 0.134589198019472 
722	 0.134539099223062 
723	 0.135334815181744 
724	 0.137700621184242 
725	 0.139022679006004 
726	 0.139179381004243 
727	 0.140336459909084 
728	 0.141668470534897 
729	 0.142741552821864 
730	 0.143432360295038 
731	 0.143863367561808 
732	 0.144250138859289 
733	 0.144187600991454 
734	 0.143873196197153 
735	 0.143981544189625 
736	 0.144959599362692 
737	 0.14683083670927 
738	 0.147197425274492 
739	 0.146687167050253 
740	 0.147087473337433 
741	 0.147698616443369 
742	 0.148407306572147 
743	 0.149593864204655 
744	 0.150333323232122 
745	 0.149996984262047 
746	 0.150803971531291 
747	 0.152378462792413 
748	 0.15290224532215 
749	 0.153240952198734 
750	 0.153824233344388 
751	 0.155326191807924 
752	 0.156965050739686 
753	 0.157858919403687 
754	 0.158077333879046 
755	 0.157985991382032 
756	 0.158407845492706 
757	 0.159543826929121 
758	 0.161619293583902 
759	 0.164396630212974 
760	 0.16889274439972 
761	 0.172487450980703 
762	 0.174581882317745 
763	 0.174882013781869 
764	 0.172591894652706 
765	 0.17106575860666 
766	 0.171097332468186 
767	 0.169880579004748 
768	 0.168857910069364 
769	 0.169937334097411 
770	 0.17080341769231 
771	 0.171217689093453 
772	 0.172478011623763 
773	 0.173749546941967 
774	 0.174425808126207 
775	 0.174357371968915 
776	 0.174367103906149 
777	 0.175974501943617 
778	 0.177168519218292 
779	 0.177623891375221 
780	 0.178814448423816 
781	 0.179952043296358 
782	 0.180436269408337 
783	 0.181013498332217 
784	 0.181959489771073 
785	 0.183629687443964 
786	 0.184953396534317 
787	 0.185631659513976 
788	 0.186176718850378 
789	 0.187111777888732 
790	 0.188814636134599 
791	 0.190124420427114 
792	 0.190707290501685 
793	 0.190187036918757 
794	 0.190600327644964 
795	 0.192532664280648 
796	 0.194623893999424 
797	 0.196031613978256 
798	 0.196093187033257 
799	 0.196199128009153 
800	 0.196852495452124 
801	 0.198582907752807 
802	 0.199975804472542 
803	 0.200630126610787 
804	 0.202065732727155 
805	 0.203581139730501 
806	 0.20434665106284 
807	 0.204992584584438 
808	 0.206015292928947 
809	 0.208516213657896 
810	 0.210518334941115 
811	 0.211325396545256 
812	 0.212836050229712 
813	 0.214709385312396 
814	 0.216235031325714 
815	 0.218004605793575 
816	 0.219708381315502 
817	 0.220160812472834 
818	 0.220117086368218 
819	 0.220336640834496 
820	 0.222650878076112 
821	 0.225337806934919 
822	 0.226190402680795 
823	 0.225746144777495 
824	 0.224749088010967 
825	 0.224629866975583 
826	 0.225839620316517 
827	 0.228363799815934 
828	 0.230518558915149 
829	 0.2315151118709 
830	 0.230744698888372 
831	 0.231442742880798 
832	 0.233639807413483 
833	 0.2354316786646 
834	 0.235746409593303 
835	 0.234693937500155 
836	 0.236105702867665 
837	 0.238031090943039 
838	 0.237978719405048 
839	 0.238705363870286 
840	 0.240145056020968 
841	 0.240440079009984 
842	 0.240832203889315 
843	 0.241749434010334 
844	 0.242307228718644 
845	 0.243428983647822 
846	 0.246060882472113 
847	 0.246111569470088 
848	 0.244715767265552 
849	 0.247765115925777 
850	 0.250277846818983 
851	 0.250472046681055 
852	 0.250785015531999 
853	 0.251207737127511 
854	 0.251624118490163 
855	 0.253320077539109 
856	 0.255485435029928 
857	 0.255461657776902 
858	 0.256062223401161 
859	 0.257843505549154 
860	 0.258394602458576 
861	 0.258764651569327 
862	 0.259992879365159 
863	 0.260556359993358 
864	 0.26095799519088 
865	 0.263024636153596 
866	 0.265132559337868 
867	 0.26648923973684 
868	 0.266272525696967 
869	 0.266946049743852 
870	 0.270225041187589 
871	 0.272163232376524 
872	 0.273135945212511 
873	 0.275081868152363 
874	 0.277006984074498 
875	 0.278525982362844 
876	 0.279356755386724 
877	 0.28010328820818 
878	 0.281180468150663 
879	 0.282132450934944 
880	 0.283243152105928 
881	 0.285041115107377 
882	 0.286869169380579 
883	 0.288628210857237 
884	 0.290881485688877 
885	 0.292422414802417 
886	 0.292633569021031 
887	 0.292098639063213 
888	 0.292223776022853 
889	 0.294691085622921 
890	 0.297603948747348 
891	 0.300740046342055 
892	 0.30520202418449 
893	 0.308214610763964 
894	 0.308792919780683 
895	 0.31036891057124 
896	 0.312213931207058 
897	 0.313185316068358 
898	 0.31530053457837 
899	 0.318133642656578 
900	 0.319979185788198 
901	 0.319688861024544 
902	 0.317805567722003 
903	 0.31800958031612 
904	 0.320612549566345 
905	 0.325163107777051 
906	 0.326357805462647 
907	 0.326206760918463 
908	 0.329872625165913 
909	 0.331322745657297 
910	 0.330112755476644 
911	 0.331710565644403 
912	 0.332493515685938 
913	 0.330893038183061 
914	 0.330954871230944 
915	 0.332773067472925 
916	 0.335838424069578 
917	 0.338502978302737 
918	 0.340724175023673 
919	 0.343868554508816 
920	 0.345837868158205 
921	 0.34559118805139 
922	 0.341226111465683 
923	 0.339599278014742 
924	 0.346377048907777 
925	 0.351062826482074 
926	 0.352239237219844 
927	 0.351302553268583 
928	 0.351081945676377 
929	 0.353136511207782 
930	 0.357900620097235 
931	 0.361792122395513 
932	 0.362354848448934 
933	 0.368785198211204 
934	 0.375004915940522 
935	 0.370350615379751 
936	 0.36724241770083 
937	 0.367278041167962 
938	 0.365534001512655 
939	 0.362918709301552 
940	 0.36274118289966 
941	 0.379615831200315 
942	 0.3891082997898 
943	 0.376730400662337 
944	 0.377324456306214 
945	 0.379251719324991 
946	 0.356763077393161 
947	 0.355841993382635 
948	 0.378398532760949 
949	 0.389033923904805 
950	 0.395419473002961 
951	 0.39766994284916 
952	 0.380829709303932 
953	 0.365589008070256 
954	 0.371721714099727 
955	 0.377459449415529 
956	 0.379330175357343 
957	 0.377583193619279 
958	 0.375651942204242 
959	 0.373892739116822 
960	 0.3684672821796 
961	 0.368895617872709 
962	 0.376538108861734 
963	 0.372519384041025 
964	 0.366861597645881 
965	 0.370001213583216 
966	 0.372863635161146 
967	 0.372307533857302 
968	 0.36453560322347 
969	 0.366124812694226 
970	 0.375502514115616 
971	 0.368614365758246 
972	 0.365059669217289 
973	 0.373791842347856 
974	 0.377002503655811 
975	 0.376073124766372 
976	 0.374800776409355 
977	 0.378829510109015 
978	 0.38528711479605 
979	 0.385869417291421 
980	 0.381889737001326 
981	 0.375967034803134 
982	 0.377191770576032 
983	 0.377778991475873 
984	 0.374890118445266 
985	 0.379013891877411 
986	 0.383235932624723 
987	 0.379898801731565 
988	 0.377070378581542 
989	 0.375092745601379 
990	 0.371104730602265 
991	 0.374914660734255 
992	 0.38512828429327 
993	 0.387958069200925 
994	 0.389133461213516 
995	 0.390606769073839 
996	 0.386657066120474 
997	 0.384431502609642 
998	 0.390194951352389 
999	 0.393393835141329 
1000	 0.39071308961352 
1001	 0.379782797889697 
1002	 0.385484722984655 
1003	 0.402666171505869 
1004	 0.390528767311956 
1005	 0.385255504869288 
1006	 0.396195027505765 
1007	 0.390549247197746 
1008	 0.384977791060993 
1009	 0.391823126287452 
1010	 0.386235699207407 
1011	 0.382955163198441 
1012	 0.404287079614349 
1013	 0.411586570081143 
1014	 0.404720220553467 
1015	 0.405566841760216 
1016	 0.399878824598606 
1017	 0.391054552823487 
1018	 0.406546369162173 
1019	 0.420492391930942 
1020	 0.417655195380433 
1021	 0.404492458476145 
1022	 0.397453697632461 
1023	 0.408909636731537 
1024	 0.413203994626148 
1025	 0.406646946813087 
1026	 0.391580967940572 
1027	 0.397223513085106 
1028	 0.418899416594887 
1029	 0.420288510984286 
1030	 0.416305841364497 
1031	 0.412789670733861 
1032	 0.4142951928528 
1033	 0.414656621813488 
1034	 0.409482926474201 
1035	 0.39648232327526 
1036	 0.389520878301974 
1037	 0.402876207445497 
1038	 0.420380667434386 
1039	 0.428472867922596 
1040	 0.41084777424714 
1041	 0.395321441516646 
1042	 0.393859117996124 
1043	 0.410238229638502 
1044	 0.408034327207037 
1045	 0.382784591298023 
1046	 0.38375544286846 
1047	 0.378801486686014 
1048	 0.356320039789014 
1049	 0.370029202038791 
1050	 0.388655211574703 
1051	 0.381576612982712 
1052	 0.37651753606891 
1053	 0.38540747675707 
1054	 0.416681455300123 
1055	 0.405499283669867 
1056	 0.371141643460674 
1057	 0.395639401879329 
1058	 0.407534200721751 
1059	 0.399443752000135 
1060	 0.430977982662501 
1061	 0.455681742257649 
1062	 0.452300671305021 
1063	 0.421039694275344 
1064	 0.388384422764054 
1065	 0.368455050461938 
1066	 0.384246863294428 
1067	 0.393114064130521 
1068	 0.352718757457473 
1069	 0.344959305519027 
1070	 0.362420140487256 
1071	 0.367167255462298 
1072	 0.35514772966524 
1073	 0.334880379227938 
1074	 0.347781833093257 
1075	 0.37368958279136 
