Wavelength	SHSI00251.asd
325	 0.10742175624965 
326	 9.83273080169991E-02 
327	 8.28385768089202E-02 
328	 0.097766701686519 
329	 0.106461777512487 
330	 9.80088278265071E-02 
331	 9.25238881178474E-02 
332	 9.49047525220345E-02 
333	 0.107175595781789 
334	 0.107848402713585 
335	 0.100053181357663 
336	 9.97489187434959E-02 
337	 0.101832926223484 
338	 0.103709139747881 
339	 0.10019963946725 
340	 9.56624554288756E-02 
341	 0.094046291021823 
342	 9.68861533205462E-02 
343	 0.102419569809967 
344	 0.107594431862809 
345	 0.107608218627063 
346	 0.1040362332441 
347	 0.108251866088002 
348	 0.112021272292618 
349	 0.10982748679794 
350	 0.10489628859767 
351	 0.10083235663639 
352	 0.102475015858538 
353	 0.10309750897714 
354	 0.102217970421044 
355	 0.104524466264697 
356	 0.10823985873873 
357	 0.111717805680644 
358	 0.111853036854767 
359	 0.110150598364224 
360	 0.109414453731483 
361	 0.108854182808315 
362	 0.108491011838669 
363	 0.108547227239 
364	 0.109220076014111 
365	 0.110485434502603 
366	 0.111826821259295 
367	 0.112691587409667 
368	 0.112410141361285 
369	 0.112876697108917 
370	 0.114308815241493 
371	 0.115573406474641 
372	 0.117717284382923 
373	 0.120427817730263 
374	 0.118274768559815 
375	 0.114030982924025 
376	 0.112211395211382 
377	 0.112010408018148 
378	 0.11302280207616 
379	 0.114800334181428 
380	 0.114048801097516 
381	 0.110245873139362 
382	 0.11245047834552 
383	 0.116066317138175 
384	 0.114016451963999 
385	 0.114455785054847 
386	 0.116979393769248 
387	 0.11495015275574 
388	 0.112262887448421 
389	 0.110754480578415 
390	 0.109920952186309 
391	 0.11026317113139 
392	 0.112304685135786 
393	 0.113754485936253 
394	 0.113548083637428 
395	 0.110427436999008 
396	 0.107996420218694 
397	 0.107249396695556 
398	 0.104607255682189 
399	 0.102299355324934 
400	 0.102634236540082 
401	 0.103106038796113 
402	 0.10382245150835 
403	 0.106613109210787 
404	 0.108532350700739 
405	 0.108634045285298 
406	 0.109593320762142 
407	 0.110438094629055 
408	 0.109734444971499 
409	 0.108375236245595 
410	 0.107121176180474 
411	 0.107461271480945 
412	 0.107477794556494 
413	 0.106511052376878 
414	 0.10659697423137 
415	 0.107149074636135 
416	 0.107179001321404 
417	 0.106855370558525 
418	 0.10657578558906 
419	 0.107525778242861 
420	 0.108313334546362 
421	 0.108197221054085 
422	 0.107740554468136 
423	 0.107375848029028 
424	 0.107611408443533 
425	 0.107669548057922 
426	 0.10763735930157 
427	 0.108564780588452 
428	 0.1096926534956 
429	 0.110336843032396 
430	 0.109669456506799 
431	 0.108289571630101 
432	 0.107339284311111 
433	 0.106555638282369 
434	 0.10606233372499 
435	 0.106303763103063 
436	 0.106981353115187 
437	 0.107817361072228 
438	 0.108376470486923 
439	 0.108664912719478 
440	 0.10885983760892 
441	 0.108857667622781 
442	 0.108689324643255 
443	 0.108415840714957 
444	 0.108676095221856 
445	 0.109859868505866 
446	 0.110365917576503 
447	 0.110341204936574 
448	 0.110729538480675 
449	 0.1112314869851 
450	 0.111776294094812 
451	 0.112365386520551 
452	 0.113018893766485 
453	 0.113758930982993 
454	 0.114682421147006 
455	 0.115451291615534 
456	 0.115137602808472 
457	 0.114757756167788 
458	 0.114799195258217 
459	 0.115316183860405 
460	 0.115757645129006 
461	 0.115492726402952 
462	 0.115401877771624 
463	 0.115713177240706 
464	 0.116437129420569 
465	 0.11726081837984 
466	 0.117909691044883 
467	 0.118003891008005 
468	 0.117666115733558 
469	 0.117142986602342 
470	 0.117038182196832 
471	 0.1173583047698 
472	 0.117334409922568 
473	 0.117755472681604 
474	 0.118952493608751 
475	 0.119452123760546 
476	 0.119260528387779 
477	 0.118734214222771 
478	 0.11854990816983 
479	 0.11887640053477 
480	 0.119224987218728 
481	 0.119921870858997 
482	 0.121130445806283 
483	 0.121424563862163 
484	 0.121135855168331 
485	 0.121732353156663 
486	 0.121969366367218 
487	 0.121474811880076 
488	 0.120828321615893 
489	 0.119977615663205 
490	 0.11893254527152 
491	 0.119893373134996 
492	 0.121979696813606 
493	 0.121743430717122 
494	 0.121297892217788 
495	 0.12156281202032 
496	 0.122275627120775 
497	 0.123150224825106 
498	 0.123842695893352 
499	 0.124230776787881 
500	 0.124368276194146 
501	 0.124600473961133 
502	 0.124742015419734 
503	 0.124753999985355 
504	 0.125221439843266 
505	 0.125751943014271 
506	 0.12551434946296 
507	 0.126194278321501 
508	 0.127894229072053 
509	 0.128991024590249 
510	 0.129831486398157 
511	 0.13070751568528 
512	 0.13124065072877 
513	 0.131753511393677 
514	 0.133131991668626 
515	 0.134391086032008 
516	 0.135177071017251 
517	 0.135869765198838 
518	 0.136178069021103 
519	 0.13583092186535 
520	 0.135861509749827 
521	 0.1364986795896 
522	 0.137695056544661 
523	 0.139004662435231 
524	 0.140192005766754 
525	 0.141373627038568 
526	 0.142370078285634 
527	 0.142918634796432 
528	 0.14338945471232 
529	 0.14395380108122 
530	 0.14472579888968 
531	 0.145839745117595 
532	 0.147260357869868 
533	 0.147857898819915 
534	 0.147909894327769 
535	 0.148243329959109 
536	 0.14897821539544 
537	 0.150089866984736 
538	 0.151103033058739 
539	 0.151931217481262 
540	 0.152531459821886 
541	 0.153253676245988 
542	 0.154017319526104 
543	 0.154372152642141 
544	 0.154926019032134 
545	 0.155833409565562 
546	 0.156324566503248 
547	 0.156645552738847 
548	 0.15720311819901 
549	 0.157851385884652 
550	 0.158502533970298 
551	 0.158959831784123 
552	 0.159430010506444 
553	 0.160081269028727 
554	 0.161158571453274 
555	 0.162288547799242 
556	 0.162742908747539 
557	 0.163111922671883 
558	 0.163536885717659 
559	 0.163770277334392 
560	 0.163907132891068 
561	 0.164075406037831 
562	 0.164683798657903 
563	 0.165584691700918 
564	 0.166252202033191 
565	 0.166648528151103 
566	 0.166779394561556 
567	 0.166965790344997 
568	 0.167175875865941 
569	 0.167325739406729 
570	 0.167361642609891 
571	 0.167337246446503 
572	 0.167445586820945 
573	 0.167676359952302 
574	 0.168027952290875 
575	 0.168523424434437 
576	 0.169001059986355 
577	 0.169155994879273 
578	 0.16951550372985 
579	 0.170118159689918 
580	 0.170375022061186 
581	 0.170477539739408 
582	 0.170644164321634 
583	 0.171260006064767 
584	 0.17198128315159 
585	 0.171722990230885 
586	 0.171516089678323 
587	 0.171749635709776 
588	 0.172014511197339 
589	 0.172236716667229 
590	 0.17235686695318 
591	 0.17229397848164 
592	 0.172243799145505 
593	 0.172941994672364 
594	 0.173252177170911 
595	 0.172671947914614 
596	 0.172902246015695 
597	 0.173766748063283 
598	 0.174623112598234 
599	 0.174635078761125 
600	 0.173873518256667 
601	 0.174054927985143 
602	 0.17431569672183 
603	 0.173903674631762 
604	 0.173950386587851 
605	 0.174336206253265 
606	 0.17426796296677 
607	 0.174091192712354 
608	 0.173948119244738 
609	 0.173941975118318 
610	 0.173880547134544 
611	 0.173515334047505 
612	 0.173113624812078 
613	 0.172706994512788 
614	 0.17213792560625 
615	 0.171638029729384 
616	 0.171350476708115 
617	 0.171130046735411 
618	 0.170945416095076 
619	 0.170774455979481 
620	 0.170670141471967 
621	 0.170592470356615 
622	 0.170269300675818 
623	 0.1701335657211 
624	 0.170538090234584 
625	 0.170713727828252 
626	 0.170620579484869 
627	 0.170469875798661 
628	 0.170844564264744 
629	 0.171778815282435 
630	 0.171975086925803 
631	 0.171526100315271 
632	 0.170719582803945 
633	 0.170410017017921 
634	 0.170700946352657 
635	 0.171061518417356 
636	 0.171521319016306 
637	 0.172049363628607 
638	 0.172486744160839 
639	 0.172705374643381 
640	 0.172471371493866 
641	 0.172900608834462 
642	 0.173924539760559 
643	 0.173573863360525 
644	 0.173221679946612 
645	 0.174046684741035 
646	 0.174364902814331 
647	 0.17414526716817 
648	 0.174173773669807 
649	 0.17411673373667 
650	 0.173842185779622 
651	 0.173252161231156 
652	 0.172659975504474 
653	 0.172428997970378 
654	 0.172002024086631 
655	 0.171091492678903 
656	 0.169443804889234 
657	 0.167448498985272 
658	 0.165544887874151 
659	 0.164161705449271 
660	 0.163121075201007 
661	 0.162154263565021 
662	 0.160660385872186 
663	 0.158605930784853 
664	 0.156714524017945 
665	 0.155118575371855 
666	 0.15385440072226 
667	 0.152259407918292 
668	 0.150457126270125 
669	 0.148962274552513 
670	 0.147818993341152 
671	 0.147104821631846 
672	 0.147048563948531 
673	 0.146792452160545 
674	 0.145405488666047 
675	 0.145280003483491 
676	 0.146373635471996 
677	 0.146861177552243 
678	 0.147095811108851 
679	 0.147315342919082 
680	 0.147994512584841 
681	 0.149094798968539 
682	 0.150429493587067 
683	 0.152266248437488 
684	 0.154635744645447 
685	 0.157623947408515 
686	 0.160591764733297 
687	 0.162963218962154 
688	 0.166023231336735 
689	 0.169723824321859 
690	 0.174055901478038 
691	 0.178459901019962 
692	 0.182798802400853 
693	 0.187215270538797 
694	 0.191499384985296 
695	 0.195255143278752 
696	 0.199008524141744 
697	 0.202863567722704 
698	 0.206991814752832 
699	 0.210700585517824 
700	 0.213737651318822 
701	 0.217524008839869 
702	 0.221058819906957 
703	 0.222824857802634 
704	 0.225021678827448 
705	 0.227904121584875 
706	 0.230181571167954 
707	 0.232374307378463 
708	 0.234753699762188 
709	 0.236763084001321 
710	 0.238520694623299 
711	 0.240374308804067 
712	 0.242109653260875 
713	 0.243658262882781 
714	 0.245053824890185 
715	 0.246245296308055 
716	 0.247249833635992 
717	 0.2481504422848 
718	 0.249202050579652 
719	 0.250971485710942 
720	 0.252217038210576 
721	 0.252628143331907 
722	 0.253270656376957 
723	 0.254265712424215 
724	 0.255645314915269 
725	 0.257055151941715 
726	 0.258142928388038 
727	 0.258547266862341 
728	 0.258811287974977 
729	 0.259360373740972 
730	 0.260895543880055 
731	 0.262500728558612 
732	 0.262857204870088 
733	 0.263307575830409 
734	 0.264112267688405 
735	 0.264997609252636 
736	 0.265762328865073 
737	 0.266268040303816 
738	 0.266810187782078 
739	 0.267546404194207 
740	 0.268703237820738 
741	 0.269545352493712 
742	 0.269908366903825 
743	 0.270258776962431 
744	 0.270479036925933 
745	 0.270494710623373 
746	 0.270696612065818 
747	 0.271197072713334 
748	 0.272120197095772 
749	 0.272893686654307 
750	 0.273363615033478 
751	 0.274071199130322 
752	 0.274868382653646 
753	 0.275540769868938 
754	 0.275665401571948 
755	 0.275486837179837 
756	 0.276256774653142 
757	 0.27517356393358 
758	 0.271495309050644 
759	 0.27136181844911 
760	 0.275573055774532 
761	 0.280124841849973 
762	 0.281212251145196 
763	 0.279966306830338 
764	 0.281483443237869 
765	 0.282621450128368 
766	 0.282480537001393 
767	 0.282570439754068 
768	 0.282882877607586 
769	 0.283309329165047 
770	 0.28325789146421 
771	 0.282912484857505 
772	 0.283476240017345 
773	 0.28425573249054 
774	 0.284776438394523 
775	 0.285255232822148 
776	 0.285650139252007 
777	 0.285867015283453 
778	 0.28595409442982 
779	 0.286031597276897 
780	 0.286436490041839 
781	 0.287048093541723 
782	 0.287734762777702 
783	 0.288314503165243 
784	 0.288753316925303 
785	 0.289099476957339 
786	 0.289099188744184 
787	 0.288830991386565 
788	 0.288977807249377 
789	 0.289475218831168 
790	 0.290170496729629 
791	 0.290244167987194 
792	 0.290277426242366 
793	 0.292202890008592 
794	 0.293410759375434 
795	 0.293161817645889 
796	 0.293023098449904 
797	 0.292942149478751 
798	 0.29282786529917 
799	 0.293619079986781 
800	 0.2948934541952 
801	 0.29508389999622 
802	 0.294901481503691 
803	 0.294792202625445 
804	 0.295734939606628 
805	 0.296479745219643 
806	 0.295696958313975 
807	 0.295319203588397 
808	 0.295781231559136 
809	 0.297184549225263 
810	 0.298258609549988 
811	 0.298297922845651 
812	 0.297174027082425 
813	 0.296063884930239 
814	 0.296540412103201 
815	 0.297883865221338 
816	 0.299722378437819 
817	 0.301614302227337 
818	 0.302789233629217 
819	 0.302881642917777 
820	 0.30200103205544 
821	 0.301476501023977 
822	 0.302789875310206 
823	 0.304796645541334 
824	 0.306276178842619 
825	 0.304911134204087 
826	 0.303675063990806 
827	 0.30380454923492 
828	 0.304489426259135 
829	 0.305031216608271 
830	 0.304714671065535 
831	 0.305846140287934 
832	 0.307823359801676 
833	 0.307451040560124 
834	 0.307211591032924 
835	 0.308065901237272 
836	 0.309075799423748 
837	 0.309532148630096 
838	 0.308800588846274 
839	 0.3085876443304 
840	 0.309086262032206 
841	 0.309712543814543 
842	 0.310206001779223 
843	 0.310373565402088 
844	 0.310175338040671 
845	 0.309630482070066 
846	 0.308813567951904 
847	 0.308769215880991 
848	 0.309308783369536 
849	 0.30928529534215 
850	 0.308701894311192 
851	 0.307988472939849 
852	 0.309589062567931 
853	 0.311847128071779 
854	 0.312799372651862 
855	 0.313923855641713 
856	 0.314560274276028 
857	 0.31224019194449 
858	 0.311143331138139 
859	 0.312199170301159 
860	 0.312012741320741 
861	 0.311105432287484 
862	 0.31024982268401 
863	 0.310492896054643 
864	 0.311765739680191 
865	 0.313448959553281 
866	 0.314585958368782 
867	 0.314970894035612 
868	 0.315880866258532 
869	 0.316460050113739 
870	 0.316065849813229 
871	 0.315685879525062 
872	 0.315497261675263 
873	 0.315451649243091 
874	 0.315900733989535 
875	 0.316953678432084 
876	 0.318633495503292 
877	 0.319932755312115 
878	 0.320280583191302 
879	 0.321096874523247 
880	 0.322368997692644 
881	 0.323761742712704 
882	 0.324248963200281 
883	 0.324048668552291 
884	 0.325064194861353 
885	 0.325867553839458 
886	 0.325737570650912 
887	 0.325785592381037 
888	 0.325521486740741 
889	 0.324197136035126 
890	 0.324096020108428 
891	 0.324935595480886 
892	 0.323961488467276 
893	 0.323211759102552 
894	 0.323728226247215 
895	 0.325316505024212 
896	 0.327629985424704 
897	 0.330198808951805 
898	 0.333435929585314 
899	 0.336042158686515 
900	 0.334843544267598 
901	 0.333744505787669 
902	 0.334055227308058 
903	 0.334787978216784 
904	 0.334963289198586 
905	 0.33400383485963 
906	 0.333689811726493 
907	 0.33406073999669 
908	 0.334746330525648 
909	 0.333614761581352 
910	 0.331363197865256 
911	 0.333140664263013 
912	 0.335238424109517 
913	 0.335605599366301 
914	 0.336014928259494 
915	 0.337340259043583 
916	 0.340275547938777 
917	 0.340988286987932 
918	 0.339532586100641 
919	 0.338405843478903 
920	 0.33701466550475 
921	 0.335506603708392 
922	 0.335086443409738 
923	 0.334760095939401 
924	 0.333531135744058 
925	 0.331327298348536 
926	 0.32820062597193 
927	 0.324161534371753 
928	 0.323511892542231 
929	 0.327606492941795 
930	 0.334068998786748 
931	 0.336160615753649 
932	 0.329908556690901 
933	 0.338255315466155 
934	 0.349979915290178 
935	 0.343731395576027 
936	 0.336980429435799 
937	 0.33397503448174 
938	 0.332809134440527 
939	 0.332611816047071 
940	 0.333144132786743 
941	 0.335858071333338 
942	 0.337041631895522 
943	 0.33481468595764 
944	 0.338264920891348 
945	 0.343583764062901 
946	 0.342885186238024 
947	 0.341617155253096 
948	 0.339780892159212 
949	 0.333140079347377 
950	 0.325661119976507 
951	 0.319900617040662 
952	 0.318140160907895 
953	 0.322426001234599 
954	 0.333245220236327 
955	 0.340848847392433 
956	 0.342227179755277 
957	 0.33551434506687 
958	 0.333691604968124 
959	 0.337414683455324 
960	 0.335752320118954 
961	 0.333450075070975 
962	 0.333047574587277 
963	 0.334758101805251 
964	 0.335852354957805 
965	 0.333936025718383 
966	 0.332997866001162 
967	 0.332565866574354 
968	 0.330129285387878 
969	 0.329491147696207 
970	 0.331492828579757 
971	 0.335369625178148 
972	 0.337307908567075 
973	 0.336205444541125 
974	 0.339402175948197 
975	 0.343716129663663 
976	 0.344905272847285 
977	 0.346147300908906 
978	 0.344554862343218 
979	 0.332441417567335 
980	 0.325771665796552 
981	 0.328638249527135 
982	 0.334723969110627 
983	 0.341197859700322 
984	 0.345236571797564 
985	 0.342547078219737 
986	 0.337382533359387 
987	 0.335266541498565 
988	 0.342770679955929 
989	 0.350651333701939 
990	 0.338133381223108 
991	 0.335340344417978 
992	 0.344702012751332 
993	 0.342024873308586 
994	 0.338134458056148 
995	 0.338429459615831 
996	 0.341155627235884 
997	 0.341947327379737 
998	 0.337487841098785 
999	 0.339364936864164 
1000	 0.344188075958446 
1001	 0.342945593333909 
1002	 0.338857799623113 
1003	 0.335456356800376 
1004	 0.340462561766147 
1005	 0.349538291116247 
1006	 0.357062306037623 
1007	 0.347093639788943 
1008	 0.337825368070659 
1009	 0.342544054624902 
1010	 0.339212166163034 
1011	 0.335264694292042 
1012	 0.344338979567867 
1013	 0.348304205634987 
1014	 0.346517222745438 
1015	 0.346979389966572 
1016	 0.347256530683538 
1017	 0.346504672741306 
1018	 0.342643005465631 
1019	 0.344190404309862 
1020	 0.352986884635906 
1021	 0.349555031955888 
1022	 0.3420175583914 
1023	 0.340559271715732 
1024	 0.346441027384102 
1025	 0.351676353827589 
1026	 0.343173643283177 
1027	 0.337597436024675 
1028	 0.339686225404992 
1029	 0.350846700000496 
1030	 0.351851366431252 
1031	 0.340232355590984 
1032	 0.338021745982352 
1033	 0.348359183582805 
1034	 0.367058678703809 
1035	 0.361892338920509 
1036	 0.34642521144198 
1037	 0.340116287556258 
1038	 0.349229523486434 
1039	 0.356703910425478 
1040	 0.332822404690807 
1041	 0.327741815966815 
1042	 0.342044793808833 
1043	 0.341388330376935 
1044	 0.341875550965304 
1045	 0.345037044927837 
1046	 0.335815656458738 
1047	 0.327543518581523 
1048	 0.326725638749544 
1049	 0.312339882934516 
1050	 0.317039920568628 
1051	 0.363570903925312 
1052	 0.350258581756319 
1053	 0.314841071708891 
1054	 0.339505957042175 
1055	 0.347361457225654 
1056	 0.338893432580283 
1057	 0.352809182140706 
1058	 0.35139240170868 
1059	 0.332667247909924 
1060	 0.32769129717036 
1061	 0.329830569947556 
1062	 0.33642078576001 
1063	 0.349176464222844 
1064	 0.345718935655027 
1065	 0.316916784411852 
1066	 0.321695120959417 
1067	 0.33484020385027 
1068	 0.325356846171104 
1069	 0.345005062371359 
1070	 0.360547089465559 
1071	 0.307334424240958 
1072	 0.298769036541254 
1073	 0.335021675642858 
1074	 0.34263269550257 
1075	 0.341326562804596 
