Wavelength	SHSI00091.asd
325	 0.112578341765753 
326	 0.116955642710349 
327	 0.116606393415355 
328	 0.117194489268596 
329	 0.116472402727895 
330	 0.11343448891968 
331	 0.105182381545734 
332	 0.102269847298394 
333	 0.113392097794395 
334	 0.110778772001475 
335	 0.100957603528459 
336	 0.111398691011919 
337	 0.116870292512985 
338	 0.112112536184011 
339	 0.109634530709581 
340	 0.109308495822127 
341	 0.110410801200921 
342	 0.111853651626957 
343	 0.11295194382586 
344	 0.112912889798321 
345	 0.11324833212024 
346	 0.113846427321245 
347	 0.1124642349013 
348	 0.111596540854474 
349	 0.112626379681881 
350	 0.111953363932799 
351	 0.111002465972056 
352	 0.112663159293973 
353	 0.114380147298857 
354	 0.115400167382902 
355	 0.11577113341011 
356	 0.11532500234991 
357	 0.114182995617703 
358	 0.113653263583369 
359	 0.114276458880614 
360	 0.116556707476495 
361	 0.117747432640056 
362	 0.117463140157316 
363	 0.117041157020261 
364	 0.116702104516149 
365	 0.116510341030497 
366	 0.11579322786932 
367	 0.115103450191822 
368	 0.1152459958237 
369	 0.114872676298273 
370	 0.114027425503457 
371	 0.11390706858214 
372	 0.114041107435205 
373	 0.114026296261502 
374	 0.112920050317102 
375	 0.111736401016165 
376	 0.111951476790853 
377	 0.111798207507797 
378	 0.111273193378976 
379	 0.111910752549003 
380	 0.111936129992515 
381	 0.110672544991277 
382	 0.109948292099225 
383	 0.109583264620695 
384	 0.109105569725115 
385	 0.109133757695593 
386	 0.10950973896224 
387	 0.109524099124873 
388	 0.108666949418417 
389	 0.107009666761019 
390	 0.106284040445979 
391	 0.106171220708465 
392	 0.106092995646445 
393	 0.106156205954736 
394	 0.106235499423782 
395	 0.106051913114474 
396	 0.105739827407064 
397	 0.105348202784357 
398	 0.104915211044641 
399	 0.104023270142764 
400	 0.102305987770499 
401	 0.101674087613889 
402	 0.102215043151894 
403	 0.103536975897889 
404	 0.103897696146972 
405	 0.102816060361325 
406	 0.102428396034019 
407	 0.10223719524896 
408	 0.10140322024883 
409	 0.100239561926024 
410	 9.92586756165151E-02 
411	 9.96871324839053E-02 
412	 0.100043316211235 
413	 0.099710803039642 
414	 9.97676686698468E-02 
415	 9.97666191233949E-02 
416	 9.90223145840854E-02 
417	 0.098466604091337 
418	 9.83536253728794E-02 
419	 9.87767349825551E-02 
420	 9.89856837683553E-02 
421	 9.86027454354782E-02 
422	 9.81624197785033E-02 
423	 9.78359381646746E-02 
424	 9.77627950051601E-02 
425	 9.76843717748734E-02 
426	 9.75153316086505E-02 
427	 9.72417815607503E-02 
428	 9.69221556597717E-02 
429	 9.66560097190766E-02 
430	 9.69021043368557E-02 
431	 9.71578419974608E-02 
432	 9.65210820000866E-02 
433	 9.58224876736296E-02 
434	 9.54091910109823E-02 
435	 9.55312007005134E-02 
436	 9.58464999198983E-02 
437	 9.60654710660776E-02 
438	 9.57790127620133E-02 
439	 9.53804358197174E-02 
440	 9.56982579989092E-02 
441	 9.60460951448948E-02 
442	 9.62036370222766E-02 
443	 9.61876348383055E-02 
444	 9.61600714105617E-02 
445	 9.62828295669215E-02 
446	 9.68751763994913E-02 
447	 9.75769166780383E-02 
448	 9.74632327216773E-02 
449	 9.74701657406643E-02 
450	 9.78672623397187E-02 
451	 9.82803237621015E-02 
452	 9.86857571916269E-02 
453	 9.90704896938334E-02 
454	 9.92680832084795E-02 
455	 0.099296644203024 
456	 9.92777789358219E-02 
457	 9.93554895103755E-02 
458	 9.95500201378983E-02 
459	 9.94910678639184E-02 
460	 9.95291363160614E-02 
461	 0.100093018955992 
462	 0.100467979112349 
463	 0.100550015772412 
464	 0.10056087788507 
465	 0.100637697792284 
466	 0.100898109969565 
467	 0.101508268432109 
468	 0.102116413020248 
469	 0.102197579924831 
470	 0.102352194813792 
471	 0.102683816387918 
472	 0.102961648225544 
473	 0.103172333487175 
474	 0.103331772108957 
475	 0.103663181177209 
476	 0.104039708214082 
477	 0.104195694213041 
478	 0.104283619822837 
479	 0.104317827554569 
480	 0.104127882403205 
481	 0.10411140079139 
482	 0.104550598197848 
483	 0.104785256764983 
484	 0.104829840915651 
485	 0.104998267536793 
486	 0.105244608006802 
487	 0.105453877530501 
488	 0.105072793486888 
489	 0.104772059277629 
490	 0.105218366177349 
491	 0.105402206157229 
492	 0.105467967931903 
493	 0.106465608060485 
494	 0.106939691306801 
495	 0.106483497481759 
496	 0.106788552806926 
497	 0.107616695763617 
498	 0.10845193686816 
499	 0.108969838854745 
500	 0.109268426400406 
501	 0.110075049910138 
502	 0.110811860003049 
503	 0.111194222201265 
504	 0.111931883635336 
505	 0.112852683874297 
506	 0.113520261354858 
507	 0.114280029034292 
508	 0.115188728343326 
509	 0.116058978255166 
510	 0.116972999868973 
511	 0.117983924872002 
512	 0.118867568069098 
513	 0.119757234580911 
514	 0.121095378548177 
515	 0.122177717313912 
516	 0.1228481719866 
517	 0.123779711527614 
518	 0.124875755312214 
519	 0.125951481828314 
520	 0.126542044730474 
521	 0.126940978775811 
522	 0.128214412737501 
523	 0.129420410359877 
524	 0.130213176704161 
525	 0.131299371148396 
526	 0.132551469661014 
527	 0.133671662981371 
528	 0.134997546645402 
529	 0.136398336934588 
530	 0.137208655621361 
531	 0.1379885720934 
532	 0.139105942345884 
533	 0.140198104709698 
534	 0.141272500836225 
535	 0.142451730216377 
536	 0.143549202128383 
537	 0.144569910007197 
538	 0.145823348995278 
539	 0.147052842779922 
540	 0.148006649585163 
541	 0.149004339872712 
542	 0.150061939315499 
543	 0.151089542905855 
544	 0.151940422896027 
545	 0.15265533174126 
546	 0.15384566305261 
547	 0.155223242483723 
548	 0.1563406561171 
549	 0.15708403287256 
550	 0.157638679054278 
551	 0.158758987245085 
552	 0.159866770982645 
553	 0.160608053615099 
554	 0.161273555152507 
555	 0.16205791839163 
556	 0.163268924417252 
557	 0.164253714976312 
558	 0.164843448094644 
559	 0.165391905861801 
560	 0.165908522090776 
561	 0.166403149742136 
562	 0.167042966820899 
563	 0.167734511765696 
564	 0.168196737340408 
565	 0.168395393573995 
566	 0.168409851378223 
567	 0.168845573454214 
568	 0.169368638395548 
569	 0.169484935836647 
570	 0.169599017546932 
571	 0.169792812360002 
572	 0.170032018632419 
573	 0.170074584738358 
574	 0.169829869430852 
575	 0.169815184420379 
576	 0.170086993671255 
577	 0.170650489940219 
578	 0.170628824275493 
579	 0.17004128539177 
580	 0.170360936927016 
581	 0.170736812671876 
582	 0.170436019998032 
583	 0.170567770363267 
584	 0.171154132839479 
585	 0.171823330994466 
586	 0.172085678098611 
587	 0.171798610225169 
588	 0.171657894609754 
589	 0.171725214004944 
590	 0.171980155970003 
591	 0.172171798817168 
592	 0.17223744163991 
593	 0.172209472669587 
594	 0.172324336245812 
595	 0.172670487762971 
596	 0.172687686814736 
597	 0.172658863775825 
598	 0.173224711608632 
599	 0.173646631684335 
600	 0.17369741472151 
601	 0.173501475142616 
602	 0.173245215761043 
603	 0.173092883663173 
604	 0.172977762492992 
605	 0.172781954288092 
606	 0.172264322542063 
607	 0.171511703046864 
608	 0.170682915995433 
609	 0.17049482650554 
610	 0.170316699309102 
611	 0.169290752722217 
612	 0.168653820460601 
613	 0.168508002368592 
614	 0.168161723038568 
615	 0.167614006144905 
616	 0.166880627736985 
617	 0.166174055232265 
618	 0.165601905546501 
619	 0.165264148392942 
620	 0.16500486405565 
621	 0.164748433849629 
622	 0.164421275632503 
623	 0.164170190148916 
624	 0.164123763215431 
625	 0.164114456693172 
626	 0.164075495829783 
627	 0.163915525632783 
628	 0.163861648210007 
629	 0.163941040440387 
630	 0.163703314014838 
631	 0.163446221124649 
632	 0.163576963935283 
633	 0.163711154762956 
634	 0.163735323905662 
635	 0.163595696216556 
636	 0.16352211507032 
637	 0.163631689396397 
638	 0.163620352872431 
639	 0.163626591058 
640	 0.163974809565815 
641	 0.164223506573864 
642	 0.164314937819828 
643	 0.164678199127216 
644	 0.165017343718019 
645	 0.165067587924034 
646	 0.165079978023945 
647	 0.1649497973033 
648	 0.164269524333276 
649	 0.163614602341633 
650	 0.163189389484013 
651	 0.162623563022315 
652	 0.161934347018631 
653	 0.161164556006463 
654	 0.159932183334296 
655	 0.158269777402216 
656	 0.156951117551572 
657	 0.155271231891038 
658	 0.152994679838698 
659	 0.150987076636016 
660	 0.149116889673849 
661	 0.147067229882576 
662	 0.144714383745402 
663	 0.142166164246042 
664	 0.140060343163159 
665	 0.137943777437044 
666	 0.13547775604578 
667	 0.133486198138059 
668	 0.131943795055767 
669	 0.13040232582707 
670	 0.129017907110847 
671	 0.127890318886634 
672	 0.127324577891455 
673	 0.126986338823687 
674	 0.126468269877434 
675	 0.126005527051635 
676	 0.125758320408974 
677	 0.125979354647061 
678	 0.126615026347728 
679	 0.127633036038099 
680	 0.128996386811782 
681	 0.130617216737496 
682	 0.132393249769154 
683	 0.134096600953807 
684	 0.135954592417094 
685	 0.139154950614684 
686	 0.143240041231605 
687	 0.147720094969235 
688	 0.152252747029131 
689	 0.156724001614034 
690	 0.162149041111358 
691	 0.167267204254315 
692	 0.172038608271127 
693	 0.17765261753873 
694	 0.183741542455302 
695	 0.189575453666383 
696	 0.195222458637171 
697	 0.200647095886143 
698	 0.206023842918811 
699	 0.211487549818641 
700	 0.216879076054009 
701	 0.221325443255832 
702	 0.22542814775662 
703	 0.230171529538642 
704	 0.234554227091148 
705	 0.238422904035568 
706	 0.241953929982832 
707	 0.245025918216871 
708	 0.24767345734792 
709	 0.250817218496246 
710	 0.254148110766474 
711	 0.256854067485893 
712	 0.259477411166922 
713	 0.262094229752986 
714	 0.264390338296736 
715	 0.266550379658714 
716	 0.268870992025375 
717	 0.271310965461969 
718	 0.273723311655304 
719	 0.275296290865341 
720	 0.276786249984 
721	 0.278403917353043 
722	 0.279966488984935 
723	 0.281537748766612 
724	 0.283062300795598 
725	 0.284551815960209 
726	 0.285819209525969 
727	 0.28660274555808 
728	 0.28766128120959 
729	 0.289253653601792 
730	 0.290251937805784 
731	 0.290942147047964 
732	 0.291899305197036 
733	 0.292443968164886 
734	 0.292671560822429 
735	 0.293289531239994 
736	 0.294059498191694 
737	 0.294789322472871 
738	 0.295421918793925 
739	 0.2960895638425 
740	 0.297087287640764 
741	 0.297718725961541 
742	 0.297926444246226 
743	 0.29840188245884 
744	 0.29920651857155 
745	 0.300298820192424 
746	 0.300680963644233 
747	 0.300582151943727 
748	 0.300967940494565 
749	 0.301485516125934 
750	 0.302046359855955 
751	 0.302771185833208 
752	 0.303302968704428 
753	 0.303302666985936 
754	 0.303677741800681 
755	 0.304402887828597 
756	 0.304914704246245 
757	 0.304925387939699 
758	 0.304517783471804 
759	 0.30585676759511 
760	 0.30941933628547 
761	 0.311702204192334 
762	 0.312664494795975 
763	 0.312712384561227 
764	 0.312341277926509 
765	 0.31196562680769 
766	 0.311812929883024 
767	 0.312041343748169 
768	 0.312158577261217 
769	 0.311567865773361 
770	 0.311319155686592 
771	 0.311601758143855 
772	 0.312059985297897 
773	 0.312582651090655 
774	 0.313090597980561 
775	 0.313680572738448 
776	 0.31430110133786 
777	 0.314871705815518 
778	 0.315155093706705 
779	 0.315268289845482 
780	 0.316057966015663 
781	 0.316706604053732 
782	 0.316596912986339 
783	 0.316512904406629 
784	 0.316662622637835 
785	 0.317180791461093 
786	 0.317759305540391 
787	 0.318280773574787 
788	 0.31881793285478 
789	 0.31919953753939 
790	 0.319289695328036 
791	 0.319489412347629 
792	 0.3197970694565 
793	 0.320059002167834 
794	 0.319914386743655 
795	 0.319503657319763 
796	 0.320290729057022 
797	 0.321049920892174 
798	 0.320561765248625 
799	 0.320690155453525 
800	 0.321469309670892 
801	 0.321994235049623 
802	 0.322407874377603 
803	 0.3227331116148 
804	 0.322993943298493 
805	 0.323348898330034 
806	 0.323948314115609 
807	 0.324396926311048 
808	 0.324693199428173 
809	 0.325040418561918 
810	 0.325632369679508 
811	 0.32645994506632 
812	 0.326733471657631 
813	 0.327130948968476 
814	 0.328594201402642 
815	 0.329747999840592 
816	 0.330343451330362 
817	 0.330918463041607 
818	 0.331411762023123 
819	 0.331873182636682 
820	 0.332566260737875 
821	 0.333247022838638 
822	 0.333589663325574 
823	 0.333355012308481 
824	 0.333070390086688 
825	 0.334340546715172 
826	 0.335444688793293 
827	 0.335734813088208 
828	 0.33601740827197 
829	 0.33613232425246 
830	 0.335834872009243 
831	 0.335943671570111 
832	 0.33640144272233 
833	 0.336476838081244 
834	 0.336582217803009 
835	 0.33682905304177 
836	 0.336859034638908 
837	 0.336831072721092 
838	 0.336922744671992 
839	 0.335891603834021 
840	 0.334500123517436 
841	 0.335643239301348 
842	 0.336647362043826 
843	 0.336444180293105 
844	 0.336129804898156 
845	 0.335998912731209 
846	 0.336255002584197 
847	 0.336005944746554 
848	 0.335394157982254 
849	 0.335451088339628 
850	 0.335212951119584 
851	 0.334424480418364 
852	 0.333961590073986 
853	 0.333938624719599 
854	 0.334348067735708 
855	 0.334441501399315 
856	 0.334378162737912 
857	 0.335168858827239 
858	 0.334888231355848 
859	 0.333356823849919 
860	 0.333154953664823 
861	 0.333566660328422 
862	 0.333769677061193 
863	 0.333905232701715 
864	 0.33408153923904 
865	 0.334558206516722 
866	 0.334942094301414 
867	 0.335259222183808 
868	 0.336415192066663 
869	 0.337087219129337 
870	 0.336375996480455 
871	 0.336623859805575 
872	 0.337869868047692 
873	 0.339476445755719 
874	 0.340610706191417 
875	 0.341170103504089 
876	 0.342091903402081 
877	 0.343210289876638 
878	 0.344377525614735 
879	 0.345422282728015 
880	 0.346677210940924 
881	 0.348716443256067 
882	 0.349863444967247 
883	 0.350214037235727 
884	 0.351830400698371 
885	 0.353352641800066 
886	 0.354072989981963 
887	 0.354687833072314 
888	 0.355447340014283 
889	 0.356578900815169 
890	 0.358154969279893 
891	 0.359737963971581 
892	 0.359879561466462 
893	 0.360182503926335 
894	 0.36153124743487 
895	 0.364258135644301 
896	 0.366345515902262 
897	 0.365454451707069 
898	 0.364527306490351 
899	 0.36491234833029 
900	 0.368255233175551 
901	 0.369665407437539 
902	 0.368413736799643 
903	 0.369438508829732 
904	 0.370956427791639 
905	 0.371408562108836 
906	 0.370629236619802 
907	 0.370027375494289 
908	 0.372144641699528 
909	 0.373417972791786 
910	 0.373259263564863 
911	 0.373869299005078 
912	 0.374494680565837 
913	 0.374813747161791 
914	 0.375557032350991 
915	 0.376692090612073 
916	 0.378016984228293 
917	 0.376964210417579 
918	 0.374652524448394 
919	 0.37565475273171 
920	 0.375344947958301 
921	 0.373067461536747 
922	 0.374087935890857 
923	 0.375169233930374 
924	 0.373456747852844 
925	 0.37347779748889 
926	 0.374418303510371 
927	 0.372765255545688 
928	 0.371744104746616 
929	 0.372687489412889 
930	 0.375815442447317 
931	 0.378791632059296 
932	 0.37940597227857 
933	 0.379427636958299 
934	 0.378551419294219 
935	 0.376243698064663 
936	 0.375133504218733 
937	 0.37556107522607 
938	 0.376647722838401 
939	 0.375528348115894 
940	 0.372695155446185 
941	 0.375150738271151 
942	 0.376588973215115 
943	 0.372699133806052 
944	 0.368731276683912 
945	 0.368202478189884 
946	 0.375066929456144 
947	 0.376849456906727 
948	 0.372464198825965 
949	 0.369047349297776 
950	 0.36966455440266 
951	 0.373914361233783 
952	 0.371472641653998 
953	 0.36695672793032 
954	 0.36516653203175 
955	 0.365308156394269 
956	 0.366152838416349 
957	 0.365724344766729 
958	 0.364625143683273 
959	 0.362450429633909 
960	 0.356115687158448 
961	 0.35702429157417 
962	 0.367174889162987 
963	 0.36692440110128 
964	 0.362613412335012 
965	 0.361882204066366 
966	 0.360442392856094 
967	 0.359805582272526 
968	 0.364228900986138 
969	 0.365664826850646 
970	 0.363563519119916 
971	 0.365086015661841 
972	 0.365896433955878 
973	 0.364142482598581 
974	 0.364045420919051 
975	 0.365427463970148 
976	 0.367425760001866 
977	 0.366821083206226 
978	 0.364417963839707 
979	 0.36306847486687 
980	 0.364797065823575 
981	 0.368479210552672 
982	 0.367202784376575 
983	 0.3674629186795 
984	 0.3714525566849 
985	 0.369416445409279 
986	 0.365750486303277 
987	 0.365784124473948 
988	 0.364358640401355 
989	 0.362659538575297 
990	 0.364537162666269 
991	 0.370468406210741 
992	 0.377364821323494 
993	 0.373841063964757 
994	 0.369344720872572 
995	 0.36873536103722 
996	 0.369807743954058 
997	 0.370666443172206 
998	 0.369834662341178 
999	 0.371272501449547 
1000	 0.37302070050141 
1001	 0.370549626068739 
1002	 0.370546677898762 
1003	 0.373045446250922 
1004	 0.371896925068688 
1005	 0.374284909583066 
1006	 0.380851903484203 
1007	 0.380148551134536 
1008	 0.375770417751151 
1009	 0.371569445855362 
1010	 0.370320272315445 
1011	 0.372037615738082 
1012	 0.375690616985258 
1013	 0.376582315650033 
1014	 0.374475476584012 
1015	 0.371672429790865 
1016	 0.36805841586164 
1017	 0.366204472404224 
1018	 0.375592545269678 
1019	 0.380791356256153 
1020	 0.376025559027215 
1021	 0.383080413952316 
1022	 0.389914540234315 
1023	 0.383883178340936 
1024	 0.382191872266464 
1025	 0.382951678437888 
1026	 0.378222248673903 
1027	 0.376206480666804 
1028	 0.379066262450112 
1029	 0.387265100532709 
1030	 0.39086380820036 
1031	 0.387805104013073 
1032	 0.388556055850846 
1033	 0.38584191388783 
1034	 0.377826778751537 
1035	 0.384041696851806 
1036	 0.390651230799789 
1037	 0.38290784565097 
1038	 0.392398885500402 
1039	 0.406838685463318 
1040	 0.396401015104118 
1041	 0.386173413665404 
1042	 0.384847537649168 
1043	 0.400063817717125 
1044	 0.39892263284634 
1045	 0.379615339719439 
1046	 0.388669110451222 
1047	 0.395986165404448 
1048	 0.386462227309527 
1049	 0.391677082049747 
1050	 0.39487598454453 
1051	 0.380129796683215 
1052	 0.377845514988245 
1053	 0.382610520235032 
1054	 0.378373119719129 
1055	 0.384239884674707 
1056	 0.393611235053717 
1057	 0.382641394635015 
1058	 0.369055207660032 
1059	 0.363705611840846 
1060	 0.380210733206278 
1061	 0.394247745572296 
1062	 0.390977685992042 
1063	 0.358090124959682 
1064	 0.348051643334233 
1065	 0.390088549672424 
1066	 0.390099968705986 
1067	 0.371220684467344 
1068	 0.367882793698795 
1069	 0.373696041071976 
1070	 0.379527451224155 
1071	 0.372302139168622 
1072	 0.380402152628707 
1073	 0.394047628966477 
1074	 0.374338449779193 
1075	 0.350784785511988 
