Wavelength	SHSI00006.asd
325	 5.78364339873998E-02 
326	 5.85859980200822E-02 
327	 5.67789831017771E-02 
328	 5.08791673021491E-02 
329	 4.64258885754109E-02 
330	 4.54873275410469E-02 
331	 4.44710738561878E-02 
332	 4.58303682019477E-02 
333	 5.16177529693384E-02 
334	 5.13653444931609E-02 
335	 0.047492419658785 
336	 0.049545023227813 
337	 5.30243636583046E-02 
338	 5.53684784973801E-02 
339	 0.051454632753375 
340	 4.68531193620294E-02 
341	 4.60652364920311E-02 
342	 4.64261966496943E-02 
343	 4.81452068417826E-02 
344	 5.30576504779547E-02 
345	 5.21229775840807E-02 
346	 4.63274883281179E-02 
347	 4.91810708093984E-02 
348	 5.23717322997342E-02 
349	 5.05395369771302E-02 
350	 4.92614940381458E-02 
351	 4.92838192429081E-02 
352	 5.06200776121025E-02 
353	 5.23364748270664E-02 
354	 5.37128308123352E-02 
355	 5.34097511892986E-02 
356	 5.28204691805277E-02 
357	 5.29029092891772E-02 
358	 5.38477370357891E-02 
359	 5.49417068779162E-02 
360	 0.055111507740732 
361	 5.48403738773954E-02 
362	 5.41235260919533E-02 
363	 5.22382230399793E-02 
364	 5.18242695850145E-02 
365	 5.36059629698323E-02 
366	 5.25310399628273E-02 
367	 5.03374813331985E-02 
368	 4.99612119336297E-02 
369	 5.14292190076656E-02 
370	 5.35157240341143E-02 
371	 5.17634650547019E-02 
372	 5.20008011221063E-02 
373	 5.61478594308258E-02 
374	 5.39202080565426E-02 
375	 5.00382748137057E-02 
376	 5.22696008202093E-02 
377	 5.28684724181027E-02 
378	 5.10987969992774E-02 
379	 5.03419636447405E-02 
380	 5.09278599149166E-02 
381	 5.26473605652491E-02 
382	 5.26084783479914E-02 
383	 5.15888742860566E-02 
384	 5.10298067325268E-02 
385	 5.15804963959612E-02 
386	 5.24444146695031E-02 
387	 5.05374459335167E-02 
388	 0.049855598575198 
389	 5.16262766262996E-02 
390	 5.17474376797874E-02 
391	 5.10624226035659E-02 
392	 5.09724010127893E-02 
393	 0.049434634641726 
394	 4.74304135507941E-02 
395	 4.89805115231055E-02 
396	 4.96917381583112E-02 
397	 4.79876611874228E-02 
398	 0.045824071940849 
399	 4.50735425784394E-02 
400	 4.71507775902843E-02 
401	 4.70229872875381E-02 
402	 4.53640463196976E-02 
403	 4.62904583920678E-02 
404	 4.70071126426541E-02 
405	 4.65535890474571E-02 
406	 4.65976191220393E-02 
407	 4.68485810762081E-02 
408	 4.67797281264823E-02 
409	 4.71457294725173E-02 
410	 0.047577044170576 
411	 4.64410992662756E-02 
412	 4.59459163788127E-02 
413	 0.046898037220228 
414	 4.73660600312081E-02 
415	 4.71197382564817E-02 
416	 4.61315007255311E-02 
417	 4.60480518954186E-02 
418	 4.68143918154078E-02 
419	 4.70167279751893E-02 
420	 0.046664588375903 
421	 0.045902359302097 
422	 4.57385628390796E-02 
423	 4.60444676108559E-02 
424	 4.64604864137417E-02 
425	 0.04643211327185 
426	 4.60136504493547E-02 
427	 4.59772060766461E-02 
428	 4.62368376956841E-02 
429	 4.66255702319678E-02 
430	 4.63484741150988E-02 
431	 4.56619416248301E-02 
432	 4.51438286392976E-02 
433	 4.52600996329368E-02 
434	 4.58151334217453E-02 
435	 4.56355322419918E-02 
436	 4.53686498111952E-02 
437	 0.045453328742787 
438	 4.56561129505908E-02 
439	 4.58505819457461E-02 
440	 4.58830457044093E-02 
441	 4.56741458214227E-02 
442	 4.54104391042408E-02 
443	 4.59608652659522E-02 
444	 4.64932134597618E-02 
445	 4.63518624047283E-02 
446	 4.62163374281253E-02 
447	 4.62888833419946E-02 
448	 0.046783652204195 
449	 4.70915257152885E-02 
450	 4.71028343440071E-02 
451	 4.74359679370837E-02 
452	 4.78988465551254E-02 
453	 4.82478823835258E-02 
454	 4.81595199302071E-02 
455	 4.78458032508047E-02 
456	 4.80568323735782E-02 
457	 4.83338404071409E-02 
458	 4.84387059735318E-02 
459	 4.80970471754397E-02 
460	 4.78693790322171E-02 
461	 4.84208153451772E-02 
462	 4.90012255349336E-02 
463	 4.93822997536898E-02 
464	 4.95270688645355E-02 
465	 4.93340210475117E-02 
466	 4.88797930745217E-02 
467	 4.90163012325706E-02 
468	 0.04941053951042 
469	 4.94323216878952E-02 
470	 4.94177827849827E-02 
471	 4.95203548872883E-02 
472	 5.00604362605387E-02 
473	 5.02357885575632E-02 
474	 4.96607914063413E-02 
475	 4.96770736189982E-02 
476	 4.99800168096732E-02 
477	 4.96883542628978E-02 
478	 4.97016412638777E-02 
479	 5.01465526823391E-02 
480	 0.050437430893923 
481	 5.06373862161847E-02 
482	 5.08040131600411E-02 
483	 5.08348729417606E-02 
484	 5.08514221251764E-02 
485	 5.12104597749701E-02 
486	 5.13047782709387E-02 
487	 5.10228907099312E-02 
488	 5.10979936272697E-02 
489	 5.11073690168137E-02 
490	 5.06359327258638E-02 
491	 0.050893827379329 
492	 5.16512224649634E-02 
493	 5.16372088413953E-02 
494	 0.051667984405623 
495	 5.20834555805141E-02 
496	 5.27120552254927E-02 
497	 5.33538217940161E-02 
498	 5.37800168341833E-02 
499	 5.39897540486783E-02 
500	 5.40556941946306E-02 
501	 5.42471424773397E-02 
502	 5.43378803829346E-02 
503	 5.42306881043066E-02 
504	 5.41698555576739E-02 
505	 5.44585266535369E-02 
506	 5.55608168029158E-02 
507	 5.62137707787463E-02 
508	 5.62505273245156E-02 
509	 5.66382696469798E-02 
510	 5.70850284150467E-02 
511	 5.73875894422674E-02 
512	 5.81836255155068E-02 
513	 5.92585942261828E-02 
514	 5.99478606059425E-02 
515	 6.02659181529506E-02 
516	 6.03268977307512E-02 
517	 6.08381861576542E-02 
518	 0.061470769849549 
519	 6.18196079408194E-02 
520	 6.23243773895857E-02 
521	 6.29981517257294E-02 
522	 6.36861481956025E-02 
523	 6.42357189266998E-02 
524	 6.46112020205631E-02 
525	 6.50703518804475E-02 
526	 6.57011542038427E-02 
527	 6.65835875174933E-02 
528	 6.71220177641442E-02 
529	 6.73564554868013E-02 
530	 6.80197910420012E-02 
531	 6.87500805045837E-02 
532	 6.93304505051923E-02 
533	 7.00902673177463E-02 
534	 7.09189224182296E-02 
535	 7.15228930867074E-02 
536	 7.20618491038305E-02 
537	 7.26160345241795E-02 
538	 7.33266749255069E-02 
539	 0.073926196567669 
540	 7.41744594007064E-02 
541	 7.46160064024469E-02 
542	 7.52814157999234E-02 
543	 7.59440002172029E-02 
544	 7.66475772057181E-02 
545	 7.73657063575133E-02 
546	 7.79136497776894E-02 
547	 7.83312801800133E-02 
548	 0.078691629747916 
549	 7.91757952751466E-02 
550	 7.97387321864469E-02 
551	 7.99963231030023E-02 
552	 8.04516181091957E-02 
553	 8.13610258702303E-02 
554	 0.082051279754855 
555	 8.24759526753575E-02 
556	 8.27302456380255E-02 
557	 8.30849929176175E-02 
558	 8.35327246113736E-02 
559	 8.35080779059268E-02 
560	 8.35864511939242E-02 
561	 8.42719020883826E-02 
562	 8.47470085780436E-02 
563	 8.50044399837965E-02 
564	 8.54882480546716E-02 
565	 8.57871292378532E-02 
566	 8.57584714577533E-02 
567	 8.56119401060276E-02 
568	 8.55349149353196E-02 
569	 8.57317602948373E-02 
570	 8.61021120642082E-02 
571	 8.64593276599545E-02 
572	 0.086303176365743 
573	 8.61575492481996E-02 
574	 8.63406872778498E-02 
575	 8.66312740608356E-02 
576	 8.68279722577679E-02 
577	 0.086608034179624 
578	 8.65287565612389E-02 
579	 0.086755535899197 
580	 8.71648090200388E-02 
581	 8.73763333109086E-02 
582	 8.71111527676856E-02 
583	 8.72151440533002E-02 
584	 8.75529550847922E-02 
585	 0.087335228851439 
586	 0.087202441241737 
587	 8.73704521852026E-02 
588	 8.74956823981115E-02 
589	 8.75507089191158E-02 
590	 8.75396134752014E-02 
591	 8.75300646399993E-02 
592	 8.76057236759941E-02 
593	 8.80174907035377E-02 
594	 8.81687561731112E-02 
595	 8.77618502881177E-02 
596	 8.73977967832727E-02 
597	 8.74292118210033E-02 
598	 8.83419799520673E-02 
599	 8.88914466977959E-02 
600	 8.87817578728215E-02 
601	 0.088749562791708 
602	 8.85300004279266E-02 
603	 0.087952749191979 
604	 8.81343133388193E-02 
605	 8.87949544254808E-02 
606	 0.088773579567721 
607	 8.84392946668094E-02 
608	 8.79496182490217E-02 
609	 8.74686511633096E-02 
610	 8.72433109911256E-02 
611	 8.75336883530533E-02 
612	 8.70673395104461E-02 
613	 8.60476675518561E-02 
614	 0.086253071824186 
615	 8.66150918098249E-02 
616	 8.64465651885523E-02 
617	 8.58490579974026E-02 
618	 8.51437469945036E-02 
619	 8.48331884832935E-02 
620	 8.47417636631175E-02 
621	 8.48339522462534E-02 
622	 8.51853122714729E-02 
623	 8.54611529482878E-02 
624	 8.53583627076053E-02 
625	 8.50190844408728E-02 
626	 8.46140717853421E-02 
627	 0.084434694569125 
628	 8.45365275540103E-02 
629	 8.48691428753611E-02 
630	 8.49496611290284E-02 
631	 0.084898295574779 
632	 0.084923917357422 
633	 8.51710612923295E-02 
634	 8.55152247419293E-02 
635	 8.54395587077857E-02 
636	 8.53059885132079E-02 
637	 8.53099228151585E-02 
638	 8.51043177410999E-02 
639	 8.49827865667838E-02 
640	 8.55311878249106E-02 
641	 8.62068346357159E-02 
642	 0.086670878421064 
643	 8.63806313687272E-02 
644	 8.59834278125245E-02 
645	 8.60545428052787E-02 
646	 8.61990434747879E-02 
647	 8.62334837706879E-02 
648	 8.58659063798476E-02 
649	 8.54865666640614E-02 
650	 8.52621038231944E-02 
651	 8.50907048702242E-02 
652	 8.49116571044498E-02 
653	 8.46561162494653E-02 
654	 8.39893113208622E-02 
655	 8.30086689143964E-02 
656	 8.25492269546434E-02 
657	 8.18091193203705E-02 
658	 8.04667948834857E-02 
659	 0.0794924872389 
660	 7.87944081977911E-02 
661	 7.80859397608856E-02 
662	 7.72931262325449E-02 
663	 7.62797785471208E-02 
664	 7.47380345138376E-02 
665	 7.29560113375282E-02 
666	 7.12547449428166E-02 
667	 0.070342542378006 
668	 6.99648431265959E-02 
669	 0.069154073407835 
670	 6.85307406371507E-02 
671	 0.068218384478387 
672	 0.067678459086937 
673	 0.067235129621929 
674	 0.06728646619805 
675	 6.72162134074556E-02 
676	 6.69942317047314E-02 
677	 6.69120817916213E-02 
678	 6.72155073352465E-02 
679	 6.80120932636597E-02 
680	 6.89271684130793E-02 
681	 0.06991679833028 
682	 7.10225484129752E-02 
683	 7.19352613304713E-02 
684	 7.27587567905066E-02 
685	 7.42890778324343E-02 
686	 7.61459590480573E-02 
687	 0.078020116905901 
688	 8.06439383355475E-02 
689	 8.35835144729671E-02 
690	 0.086200015116353 
691	 8.88652593573415E-02 
692	 9.17012113698011E-02 
693	 9.43625001771416E-02 
694	 0.097189172693652 
695	 0.100395670448665 
696	 0.102969313426462 
697	 0.105096898573145 
698	 0.107917903908319 
699	 0.110855052095157 
700	 0.113546024962906 
701	 0.115773368755699 
702	 0.117727777384355 
703	 0.119732371458632 
704	 0.121473586507665 
705	 0.123056547175422 
706	 0.12504182232024 
707	 0.126656729147362 
708	 0.127493953414091 
709	 0.128643956236205 
710	 0.130086766371883 
711	 0.131503228614557 
712	 0.132726610346246 
713	 0.133762672860779 
714	 0.135055946164208 
715	 0.136164222163192 
716	 0.136721191052106 
717	 0.137135239042794 
718	 0.137769184139654 
719	 0.139378702120654 
720	 0.140280821740086 
721	 0.14016919555241 
722	 0.140877060239457 
723	 0.141765020332284 
724	 0.141989378824854 
725	 0.142743592250228 
726	 0.14392368681799 
727	 0.144457275663826 
728	 0.145220557995249 
729	 0.146458316376682 
730	 0.146755442801677 
731	 0.146599528987437 
732	 0.146866420779059 
733	 0.147464568456623 
734	 0.148197915678627 
735	 0.148438605039071 
736	 0.148578558486186 
737	 0.148897228050771 
738	 0.149484897828202 
739	 0.15013303293744 
740	 0.1504259131145 
741	 0.150736634973799 
742	 0.151142185447419 
743	 0.151478394041123 
744	 0.151736631605382 
745	 0.151926105533088 
746	 0.152151687759048 
747	 0.152490232402834 
748	 0.153067533967178 
749	 0.153745840389368 
750	 0.154353150572635 
751	 0.154370503643207 
752	 0.154276727328851 
753	 0.154608038610129 
754	 0.155010977499931 
755	 0.15525618273374 
756	 0.15494192179203 
757	 0.154362628007954 
758	 0.153729128889253 
759	 0.153741238262118 
760	 0.154832053832888 
761	 0.156809353957304 
762	 0.157290612375207 
763	 0.156726977736498 
764	 0.157897924693155 
765	 0.158403111617141 
766	 0.157762424284365 
767	 0.157957502033414 
768	 0.158522247276458 
769	 0.158802489027338 
770	 0.158987813762207 
771	 0.159153153335555 
772	 0.159465570841541 
773	 0.159795367828964 
774	 0.160045344211175 
775	 0.160172342701469 
776	 0.160329456039031 
777	 0.160804348659048 
778	 0.161267036508452 
779	 0.161530469011408 
780	 0.161288341441947 
781	 0.161120349393932 
782	 0.161472674787673 
783	 0.161891782192082 
784	 0.162185985721734 
785	 0.162093728808955 
786	 0.162180811080826 
787	 0.162635201759762 
788	 0.163354345161043 
789	 0.163831786132665 
790	 0.163622235974258 
791	 0.163183732969404 
792	 0.16300672739218 
793	 0.164122803895821 
794	 0.164566775496304 
795	 0.163917294156051 
796	 0.16411587682166 
797	 0.16438053117779 
798	 0.163871806455884 
799	 0.163714283705742 
800	 0.163921241327532 
801	 0.163959111629201 
802	 0.163801619470818 
803	 0.163539369308263 
804	 0.163767123466857 
805	 0.164333087459249 
806	 0.164996985427465 
807	 0.165322828036384 
808	 0.16535206730478 
809	 0.165487105010373 
810	 0.165717978268289 
811	 0.166065201793853 
812	 0.166643025595442 
813	 0.166793121155539 
814	 0.165720309306983 
815	 0.166303749643697 
816	 0.16843716551152 
817	 0.169319028385999 
818	 0.169535713606438 
819	 0.169307967739338 
820	 0.168384401185026 
821	 0.168151057608066 
822	 0.17014678138208 
823	 0.170855525208688 
824	 0.170141293184223 
825	 0.1701915293595 
826	 0.17019555859206 
827	 0.169988617061372 
828	 0.170423952726604 
829	 0.171015721652944 
830	 0.171089936626631 
831	 0.171139811985854 
832	 0.171371224997672 
833	 0.172067412635464 
834	 0.172707014837463 
835	 0.172952988725654 
836	 0.172368665824106 
837	 0.171849445375199 
838	 0.17239042300633 
839	 0.172487643170437 
840	 0.172211438210982 
841	 0.172705031654189 
842	 0.173329605847975 
843	 0.173630339480872 
844	 0.172650996358199 
845	 0.171797652803738 
846	 0.17263812170548 
847	 0.172825044450793 
848	 0.172214158469449 
849	 0.171894792355809 
850	 0.171392718704693 
851	 0.170862543368504 
852	 0.172069827299337 
853	 0.173325510304146 
854	 0.17274790150959 
855	 0.172199434954284 
856	 0.171995569991006 
857	 0.171954192881886 
858	 0.171778692842217 
859	 0.171445461090507 
860	 0.171484414506795 
861	 0.171498971827222 
862	 0.171132673194481 
863	 0.171044628845588 
864	 0.171518084330465 
865	 0.1730202747323 
866	 0.173580733754137 
867	 0.172933550661519 
868	 0.173602135651604 
869	 0.173950688299039 
870	 0.172824075786298 
871	 0.173159899346764 
872	 0.174473200691239 
873	 0.174916831937789 
874	 0.175729900774777 
875	 0.176911926176148 
876	 0.177117243226865 
877	 0.17709057658823 
878	 0.177435238224107 
879	 0.178301973671192 
880	 0.179374220269841 
881	 0.180115007389333 
882	 0.180297329960299 
883	 0.180219752100175 
884	 0.181218263038692 
885	 0.181888827464558 
886	 0.181628821881235 
887	 0.182230846320872 
888	 0.18296891741319 
889	 0.182667769868814 
890	 0.182928154972624 
891	 0.18387944676131 
892	 0.184848951439718 
893	 0.18492800377894 
894	 0.183981854468429 
895	 0.184343857077494 
896	 0.185520282437187 
897	 0.186644405957581 
898	 0.18802921372437 
899	 0.189222888903441 
900	 0.189071913570533 
901	 0.189560580213941 
902	 0.190765972961098 
903	 0.189826911291699 
904	 0.188784023759757 
905	 0.189134968701191 
906	 0.188584410067765 
907	 0.188169985639216 
908	 0.190325293080555 
909	 0.19162370856866 
910	 0.191441108264375 
911	 0.191488562460047 
912	 0.192835509642155 
913	 0.195324002565566 
914	 0.193526363064363 
915	 0.191265074968917 
916	 0.193706919378205 
917	 0.195319133281892 
918	 0.194916460126264 
919	 0.192101029792691 
920	 0.192178205770049 
921	 0.195862046728058 
922	 0.1961966735584 
923	 0.194815057300783 
924	 0.193538016570174 
925	 0.193064580852888 
926	 0.192769509239679 
927	 0.190887353473454 
928	 0.188395040623028 
929	 0.186638891447257 
930	 0.190271748344592 
931	 0.192899751825234 
932	 0.189840315914341 
933	 0.190474461126263 
934	 0.193926774381942 
935	 0.196245533784271 
936	 0.192439792686982 
937	 0.186295835327908 
938	 0.190919916146544 
939	 0.190769240127924 
940	 0.184283702998194 
941	 0.187437711207335 
942	 0.191305566115777 
943	 0.189634125191572 
944	 0.190573803145727 
945	 0.192440535719809 
946	 0.190973910215804 
947	 0.189346658251544 
948	 0.189340963451286 
949	 0.193595253804623 
950	 0.198475165318444 
951	 0.201174972367725 
952	 0.198273935002751 
953	 0.191414071979069 
954	 0.183580888271018 
955	 0.186235431592593 
956	 0.193387497014373 
957	 0.191362885617134 
958	 0.188931698032704 
959	 0.188100424233479 
960	 0.187441891325278 
961	 0.188074792921294 
962	 0.18987018183659 
963	 0.188917818758542 
964	 0.18897091976248 
965	 0.19339276649331 
966	 0.194167185694557 
967	 0.191826590455385 
968	 0.189915095901932 
969	 0.191920294744643 
970	 0.195955131983348 
971	 0.190981155117751 
972	 0.186706564376933 
973	 0.18876412872325 
974	 0.195316460974129 
975	 0.200106600527773 
976	 0.197051679181097 
977	 0.193970856342988 
978	 0.192435142088762 
979	 0.191959768262383 
980	 0.193925020779663 
981	 0.19723620001689 
982	 0.196852240166155 
983	 0.194853807159975 
984	 0.19307680724615 
985	 0.195145062116397 
986	 0.196345204136672 
987	 0.1922590390836 
988	 0.19839315254492 
989	 0.207783715541665 
990	 0.201642311606072 
991	 0.194218773657485 
992	 0.191049414987432 
993	 0.195402056126593 
994	 0.199474928968941 
995	 0.199208549411525 
996	 0.197528727661279 
997	 0.195362657678109 
998	 0.193855758872271 
999	 0.196230301170138 
1000	 0.198183457434066 
1001	 0.19132392542343 
1002	 0.191585638574074 
1003	 0.199311801780186 
1004	 0.202719129806024 
1005	 0.198125118708279 
1006	 0.188650839749373 
1007	 0.199660950010903 
1008	 0.207609572105349 
1009	 0.195729899042277 
1010	 0.196372258453266 
1011	 0.204985754018019 
1012	 0.209651678019562 
1013	 0.207585654003546 
1014	 0.203324187673728 
1015	 0.210304645786687 
1016	 0.21077691485636 
1017	 0.202447155335876 
1018	 0.200476587767287 
1019	 0.200811471988877 
1020	 0.200949938300777 
1021	 0.200309193642454 
1022	 0.199278417938128 
1023	 0.198618443279768 
1024	 0.201771211995701 
1025	 0.206278978654642 
1026	 0.206985556014238 
1027	 0.206507989555935 
1028	 0.204037467802844 
1029	 0.192542660501432 
1030	 0.200839432479641 
1031	 0.227231336538671 
1032	 0.217962996312394 
1033	 0.203843422491972 
1034	 0.203984646870567 
1035	 0.2067630112402 
1036	 0.207432037761774 
1037	 0.202610725433712 
1038	 0.197264875106683 
1039	 0.197936322423525 
1040	 0.213571603937903 
1041	 0.210562608190764 
1042	 0.195016806845051 
1043	 0.212489924483648 
1044	 0.224582559216312 
1045	 0.220714666812754 
1046	 0.216422513822625 
1047	 0.20559314475331 
1048	 0.187821013384015 
1049	 0.187875037141094 
1050	 0.19595943748752 
1051	 0.199275537029658 
1052	 0.197563237990858 
1053	 0.197763837095353 
1054	 0.209926212227688 
1055	 0.216263385126719 
1056	 0.211598910795294 
1057	 0.196001910609768 
1058	 0.18205756898703 
1059	 0.18063276461517 
1060	 0.205849067980168 
1061	 0.210326443608842 
1062	 0.182442977670667 
1063	 0.18564088738017 
1064	 0.211604493297096 
1065	 0.24435868095733 
1066	 0.236096029154426 
1067	 0.216081276953335 
1068	 0.221738768395517 
1069	 0.219248773501719 
1070	 0.207448779180636 
1071	 0.196847927918269 
1072	 0.193644720924881 
1073	 0.200128241123665 
1074	 0.21931351746926 
1075	 0.233640002689968 
