Wavelength	SHSI00073.asd
325	 9.13292017019394E-02 
326	 9.33595788032563E-02 
327	 8.85349186933453E-02 
328	 8.78492296722493E-02 
329	 8.96445925913173E-02 
330	 9.19970783689915E-02 
331	 8.75315634037656E-02 
332	 8.44870850519271E-02 
333	 9.04342435367165E-02 
334	 9.07106399583912E-02 
335	 8.77599049486392E-02 
336	 9.32582541685113E-02 
337	 0.098991634729062 
338	 0.101016685283953 
339	 9.33205533621272E-02 
340	 0.087329506655479 
341	 9.18584667381115E-02 
342	 9.46021170861916E-02 
343	 9.46376972740924E-02 
344	 9.42052560207641E-02 
345	 9.21117301536781E-02 
346	 8.94095105991696E-02 
347	 9.04673271384053E-02 
348	 9.25322727888896E-02 
349	 9.35063475970998E-02 
350	 9.27118889629921E-02 
351	 9.22253609773034E-02 
352	 9.54206153657815E-02 
353	 9.76382594910717E-02 
354	 9.81612956815838E-02 
355	 9.91885890964947E-02 
356	 9.95843534513553E-02 
357	 9.88614863217704E-02 
358	 9.87727291501395E-02 
359	 9.90291728694853E-02 
360	 9.88202331458151E-02 
361	 9.97785166786101E-02 
362	 0.101207609662758 
363	 9.93482031013176E-02 
364	 9.87369917268406E-02 
365	 0.10119994741245 
366	 0.101923570685087 
367	 0.101150517553054 
368	 9.98652166697437E-02 
369	 0.100367088427839 
370	 0.102072096292164 
371	 0.100995485151675 
372	 0.100331818491304 
373	 0.101262406207457 
374	 9.92885479796816E-02 
375	 9.64815198340276E-02 
376	 9.62371454910451E-02 
377	 9.54948092636786E-02 
378	 0.094474122834585 
379	 0.096315199102636 
380	 9.75484557947358E-02 
381	 9.65784248462033E-02 
382	 9.56320497824939E-02 
383	 9.48132796948927E-02 
384	 9.39697360532915E-02 
385	 9.37320054263027E-02 
386	 9.38176398856181E-02 
387	 9.29593383194899E-02 
388	 9.18078763061589E-02 
389	 9.08377343965268E-02 
390	 9.07437146687936E-02 
391	 9.13861004998087E-02 
392	 9.24898257308251E-02 
393	 9.25722840462704E-02 
394	 9.15466397454135E-02 
395	 9.00887895737975E-02 
396	 8.94355778734517E-02 
397	 8.97867796456599E-02 
398	 0.089140601361822 
399	 8.78452168597016E-02 
400	 8.64555528115265E-02 
401	 0.086405039385659 
402	 8.73710389469532E-02 
403	 8.81467173810708E-02 
404	 8.81146829322378E-02 
405	 8.72717138179383E-02 
406	 0.087569487627789 
407	 8.79258972842651E-02 
408	 8.68392378822976E-02 
409	 8.60288623673622E-02 
410	 0.085767824766734 
411	 8.56413173132512E-02 
412	 8.55379233073127E-02 
413	 8.53966870899701E-02 
414	 8.53672805798617E-02 
415	 8.52012069092407E-02 
416	 8.45759433199046E-02 
417	 8.41211048109204E-02 
418	 8.40212164155613E-02 
419	 8.43515207255916E-02 
420	 8.46187035507845E-02 
421	 8.45302657407185E-02 
422	 0.084143199314748 
423	 0.083795863790533 
424	 8.39525557150782E-02 
425	 8.39428604598891E-02 
426	 8.37413467315562E-02 
427	 8.39389323428367E-02 
428	 8.40656622310098E-02 
429	 8.38390417025089E-02 
430	 0.08366112042878 
431	 8.34417380520129E-02 
432	 8.29432635362885E-02 
433	 8.25510077420567E-02 
434	 8.23355137452521E-02 
435	 8.20292163441677E-02 
436	 8.20822644752783E-02 
437	 8.26832835647779E-02 
438	 8.27298672315832E-02 
439	 8.24292903690456E-02 
440	 8.24332722286071E-02 
441	 8.27952456781115E-02 
442	 8.32972642632025E-02 
443	 8.28988997580173E-02 
444	 8.24790559737889E-02 
445	 8.27565614666171E-02 
446	 8.31831257076733E-02 
447	 8.36136782751958E-02 
448	 8.39810979439584E-02 
449	 8.40552191720485E-02 
450	 8.38982463253123E-02 
451	 8.42005169568744E-02 
452	 8.47282090491627E-02 
453	 8.51964270878055E-02 
454	 8.54064299749935E-02 
455	 8.54378253194088E-02 
456	 8.56512670597359E-02 
457	 8.58254338129475E-02 
458	 8.58946003259138E-02 
459	 8.60181446173668E-02 
460	 8.60691079545563E-02 
461	 8.58954862828011E-02 
462	 8.59635761592951E-02 
463	 8.63260049933411E-02 
464	 8.67861241187196E-02 
465	 0.087270920496027 
466	 8.76700871068264E-02 
467	 8.76334331590704E-02 
468	 8.75332413616821E-02 
469	 0.087962657451519 
470	 8.80696377071659E-02 
471	 8.78390650052664E-02 
472	 8.79996433515748E-02 
473	 8.83152372450454E-02 
474	 8.86472019229166E-02 
475	 8.92040484384757E-02 
476	 8.97056750518489E-02 
477	 0.089638760950533 
478	 8.95858379824866E-02 
479	 0.089667623472668 
480	 8.95929162632849E-02 
481	 8.94430854681206E-02 
482	 8.93475257706209E-02 
483	 8.99758106911626E-02 
484	 9.09254406288059E-02 
485	 9.10269652467367E-02 
486	 9.07761218083871E-02 
487	 9.03956087614835E-02 
488	 9.01042951150038E-02 
489	 9.00112756485209E-02 
490	 9.01860064541381E-02 
491	 9.04795444603549E-02 
492	 9.07735129128433E-02 
493	 9.08498495437097E-02 
494	 9.10245816639453E-02 
495	 0.091424354257522 
496	 9.19120588597135E-02 
497	 9.23091260195489E-02 
498	 0.092413125470949 
499	 9.27380810629765E-02 
500	 0.093374715848554 
501	 9.42005261051208E-02 
502	 0.094760165800296 
503	 9.48267182888224E-02 
504	 9.49657077983714E-02 
505	 9.54064848929786E-02 
506	 9.63824879170338E-02 
507	 9.73640739160983E-02 
508	 9.81471283091113E-02 
509	 9.86533093743644E-02 
510	 9.91741734572904E-02 
511	 9.99352215547648E-02 
512	 0.100688321139188 
513	 0.101448270927184 
514	 0.102370625355664 
515	 0.103125150178268 
516	 0.103723839617938 
517	 0.104969001683956 
518	 0.106139725302711 
519	 0.106433536235364 
520	 0.106683956416966 
521	 0.107165384825899 
522	 0.108080614090834 
523	 0.109081710325966 
524	 0.110000667054904 
525	 0.110894836399896 
526	 0.111788787701562 
527	 0.112706958985584 
528	 0.113542905798614 
529	 0.114279433007505 
530	 0.114972984842039 
531	 0.115726730292187 
532	 0.116609690259103 
533	 0.117523203495205 
534	 0.118427804434125 
535	 0.119291969738685 
536	 0.120037943480242 
537	 0.120734715283593 
538	 0.121810543445504 
539	 0.122870577962263 
540	 0.123522521381373 
541	 0.124074050472713 
542	 0.124669863756623 
543	 0.125548998934009 
544	 0.126253854091995 
545	 0.126718582745645 
546	 0.127827261091794 
547	 0.129003289044189 
548	 0.12940239322386 
549	 0.129956254959303 
550	 0.130842570158179 
551	 0.131848802723242 
552	 0.132730507436632 
553	 0.133343106326371 
554	 0.133955781309566 
555	 0.134592080881753 
556	 0.13522834256459 
557	 0.135729184399937 
558	 0.136124026415463 
559	 0.136771087832034 
560	 0.137389508554209 
561	 0.137729609014721 
562	 0.138202036688364 
563	 0.138780340792643 
564	 0.139226982211381 
565	 0.139456446032014 
566	 0.139503308256902 
567	 0.139870277832962 
568	 0.140282086684594 
569	 0.140332341877387 
570	 0.140334419853285 
571	 0.140358062460526 
572	 0.140337935257715 
573	 0.140407606465271 
574	 0.14062488425318 
575	 0.140726900302348 
576	 0.140786525204232 
577	 0.141013875672892 
578	 0.141141826703356 
579	 0.141127398356187 
580	 0.141173229767127 
581	 0.141250901828761 
582	 0.141333279478407 
583	 0.141454374196093 
584	 0.141668827895888 
585	 0.142190474212665 
586	 0.14228154717688 
587	 0.141788962999067 
588	 0.14189387922423 
589	 0.142132710299851 
590	 0.141764180965414 
591	 0.141722432167736 
592	 0.142064678344116 
593	 0.142222609637833 
594	 0.142355517911274 
595	 0.142533353667687 
596	 0.142583592499502 
597	 0.14264092640758 
598	 0.142991401065039 
599	 0.14314690454502 
600	 0.143052145010518 
601	 0.143216478898672 
602	 0.143275445348121 
603	 0.142929585144005 
604	 0.142808911327684 
605	 0.142772964635292 
606	 0.14217844281231 
607	 0.141442278426996 
608	 0.140790491001764 
609	 0.140486586263173 
610	 0.140272758007753 
611	 0.139792754426205 
612	 0.139223459550159 
613	 0.138673964244308 
614	 0.138364468545097 
615	 0.138057064874655 
616	 0.137600683568933 
617	 0.137040855443286 
618	 0.136514940906423 
619	 0.136240514712442 
620	 0.135917547104434 
621	 0.135491564008354 
622	 0.13515132198387 
623	 0.134888164394589 
624	 0.134700672349229 
625	 0.134721061354078 
626	 0.134844310845513 
627	 0.134773055564372 
628	 0.134587749344293 
629	 0.134385563949596 
630	 0.134554264783672 
631	 0.134814788271195 
632	 0.13478330324942 
633	 0.134648879415808 
634	 0.134501334605606 
635	 0.134463738242375 
636	 0.134508205886893 
637	 0.134610070858148 
638	 0.134702468353282 
639	 0.1348050178309 
640	 0.134980683114074 
641	 0.135045917622912 
642	 0.135043104006123 
643	 0.135444281479976 
644	 0.135769829471394 
645	 0.135613263616677 
646	 0.135590465579965 
647	 0.135618239407658 
648	 0.135214833825089 
649	 0.134519610900898 
650	 0.133680893815129 
651	 0.133136730587029 
652	 0.132725006159449 
653	 0.132192282453074 
654	 0.131238529345167 
655	 0.129898535483461 
656	 0.128915829955893 
657	 0.127409781055933 
658	 0.125105528149906 
659	 0.123382590241597 
660	 0.12190317703591 
661	 0.119908388838595 
662	 0.11788116118483 
663	 0.115929858525346 
664	 0.113836461457736 
665	 0.11209823254583 
666	 0.111060190776402 
667	 0.109648232266772 
668	 0.107976843471862 
669	 0.106781325316294 
670	 0.105816264903656 
671	 0.104991599224255 
672	 0.10416804847711 
673	 0.103635174059645 
674	 0.103711628221551 
675	 0.103746305804028 
676	 0.103691150545743 
677	 0.103874900369851 
678	 0.104327860789495 
679	 0.10507922373832 
680	 0.106096831507733 
681	 0.10737977329145 
682	 0.108954233656157 
683	 0.110384281627527 
684	 0.111796317928718 
685	 0.114228896896004 
686	 0.117449067887655 
687	 0.121175181519602 
688	 0.124909796385929 
689	 0.128375817129709 
690	 0.132112953184492 
691	 0.135670347614714 
692	 0.139275619591967 
693	 0.144242611231408 
694	 0.149292481367569 
695	 0.152867555531903 
696	 0.156619572298452 
697	 0.160748039165496 
698	 0.165105524496846 
699	 0.169227167609996 
700	 0.172796786363495 
701	 0.176066780988643 
702	 0.179298579809435 
703	 0.18282948343173 
704	 0.185876861386685 
705	 0.188333994938611 
706	 0.190396919337903 
707	 0.19225809216931 
708	 0.194095925430935 
709	 0.196167587423275 
710	 0.198323276343014 
711	 0.200246768557403 
712	 0.201882373667485 
713	 0.203241695553594 
714	 0.204561803531612 
715	 0.205796827321539 
716	 0.206973316375455 
717	 0.208410502459909 
718	 0.209967217598463 
719	 0.21076312284318 
720	 0.211255307174826 
721	 0.211766793281325 
722	 0.21282802647601 
723	 0.214088757898121 
724	 0.215058340383252 
725	 0.215535849554855 
726	 0.215740380233908 
727	 0.216617110306569 
728	 0.217693980028545 
729	 0.218626297385837 
730	 0.218836623986243 
731	 0.21881768890554 
732	 0.219317946100624 
733	 0.219909193981897 
734	 0.220389556620526 
735	 0.220336849006244 
736	 0.220466164513755 
737	 0.221185358639282 
738	 0.221594186699732 
739	 0.221831785927598 
740	 0.222432937808022 
741	 0.222651238661511 
742	 0.222445520215226 
743	 0.222560312223326 
744	 0.223104383965075 
745	 0.224060649501112 
746	 0.224270029638696 
747	 0.223992894087884 
748	 0.224392578607843 
749	 0.224673647740553 
750	 0.224663984228962 
751	 0.224934593319839 
752	 0.225315529303042 
753	 0.225589742183272 
754	 0.225941785889229 
755	 0.226278781575893 
756	 0.226351513867182 
757	 0.225755099266213 
758	 0.224542632991217 
759	 0.225334234895266 
760	 0.228669320829011 
761	 0.231408824052231 
762	 0.231773903743471 
763	 0.230696645000898 
764	 0.230903527683669 
765	 0.23106655290383 
766	 0.230783042080339 
767	 0.23035927631643 
768	 0.230033022876964 
769	 0.230061208849786 
770	 0.230011434839237 
771	 0.229893544598578 
772	 0.230116252237496 
773	 0.230452985495158 
774	 0.230745391949021 
775	 0.23104883686457 
776	 0.231361133887915 
777	 0.231700015884274 
778	 0.231716124759009 
779	 0.23153959545852 
780	 0.232174852853469 
781	 0.232830380906156 
782	 0.232861760577614 
783	 0.232611009025174 
784	 0.2324025031356 
785	 0.23278999230111 
786	 0.233181191775105 
787	 0.233411260890439 
788	 0.23377887261787 
789	 0.233970158375859 
790	 0.233713178460941 
791	 0.233472829761384 
792	 0.233460628941363 
793	 0.234002362600676 
794	 0.234107826923885 
795	 0.233691392178231 
796	 0.234409759209822 
797	 0.235069618767716 
798	 0.234471967312764 
799	 0.23441812209008 
800	 0.234944775463174 
801	 0.235199351727333 
802	 0.235227494135453 
803	 0.235120172451844 
804	 0.235458358080336 
805	 0.235873292763619 
806	 0.235946396772537 
807	 0.236288896782026 
808	 0.236741837688764 
809	 0.236398310336335 
810	 0.23657988909818 
811	 0.237611618819921 
812	 0.237496521237626 
813	 0.23713538353607 
814	 0.237922274857852 
815	 0.238788566634593 
816	 0.239392871603307 
817	 0.239582982089691 
818	 0.239883550346232 
819	 0.240430404636509 
820	 0.240523579844839 
821	 0.240473404051867 
822	 0.240690453574335 
823	 0.240932381215905 
824	 0.241128264004023 
825	 0.241254139369383 
826	 0.24132702863829 
827	 0.241403094303071 
828	 0.2417382987077 
829	 0.242078385112323 
830	 0.242089150677907 
831	 0.242090431237564 
832	 0.242155285597814 
833	 0.242284329027948 
834	 0.242347515511346 
835	 0.242290555271928 
836	 0.242146468076819 
837	 0.242122321242817 
838	 0.24241274819255 
839	 0.24197754595995 
840	 0.241175044285767 
841	 0.241661975371568 
842	 0.242176031462428 
843	 0.242124148718926 
844	 0.241385162011838 
845	 0.24100834688049 
846	 0.242077315617075 
847	 0.242062300120019 
848	 0.241156311988914 
849	 0.241536160216811 
850	 0.241886823388516 
851	 0.241689479491541 
852	 0.241034351617942 
853	 0.240884495675354 
854	 0.24207374061928 
855	 0.241169225576139 
856	 0.23915695412297 
857	 0.240277797607362 
858	 0.240964690017826 
859	 0.240298268538609 
860	 0.240068841670063 
861	 0.240222640027707 
862	 0.240566194980748 
863	 0.240200288306042 
864	 0.239681902372598 
865	 0.240768035568042 
866	 0.241562546474916 
867	 0.241608435244516 
868	 0.242187393663043 
869	 0.242495846864866 
870	 0.242005607946393 
871	 0.242511186894939 
872	 0.243700350725309 
873	 0.244461082245212 
874	 0.244688643735736 
875	 0.24461990964518 
876	 0.245458285337584 
877	 0.246527574063445 
878	 0.247285709169421 
879	 0.247744292117288 
880	 0.24789899872077 
881	 0.24775896239597 
882	 0.247614262192232 
883	 0.247807083128857 
884	 0.249158498888709 
885	 0.25026370680516 
886	 0.250418542540003 
887	 0.25089483617721 
888	 0.251243752087246 
889	 0.250740401579763 
890	 0.251675289708181 
891	 0.253542333812679 
892	 0.252798345891675 
893	 0.252880182934848 
894	 0.255047299659872 
895	 0.256286762369275 
896	 0.256649242912937 
897	 0.25643822638841 
898	 0.25475435225352 
899	 0.253284378237499 
900	 0.256585082139614 
901	 0.257771802874399 
902	 0.255824240376577 
903	 0.25753582183344 
904	 0.258929463739243 
905	 0.257143165443286 
906	 0.256864558489884 
907	 0.258121526620965 
908	 0.259780889680304 
909	 0.259477935306814 
910	 0.257663980659393 
911	 0.259170756239154 
912	 0.260865258483644 
913	 0.260999770742864 
914	 0.261217947642557 
915	 0.261588093375308 
916	 0.261944453123024 
917	 0.259920771855864 
918	 0.25709495903304 
919	 0.258918791970406 
920	 0.26044120437296 
921	 0.260122641232242 
922	 0.25992115913845 
923	 0.259588923780934 
924	 0.259001723585217 
925	 0.260448303427399 
926	 0.261744998708689 
927	 0.25711948617924 
928	 0.254566103805636 
929	 0.256514820528242 
930	 0.258520657450714 
931	 0.260515403922654 
932	 0.262228437536334 
933	 0.264643295175797 
934	 0.265701938463755 
935	 0.262680283213424 
936	 0.261989755489177 
937	 0.263451934425452 
938	 0.26195429342975 
939	 0.261565271730154 
940	 0.262669041343966 
941	 0.261644281285055 
942	 0.258659423195555 
943	 0.254501583078115 
944	 0.25431111809518 
945	 0.256398699776124 
946	 0.256901147385971 
947	 0.256478235600206 
948	 0.255544741592562 
949	 0.255016106223604 
950	 0.256135544919829 
951	 0.258365176447558 
952	 0.256249817731214 
953	 0.252630568189311 
954	 0.25035904674095 
955	 0.247847919469967 
956	 0.24760559794722 
957	 0.254483982674083 
958	 0.255396268982558 
959	 0.248998772474547 
960	 0.24119837693793 
961	 0.24333850162315 
962	 0.256916256183807 
963	 0.260166905569291 
964	 0.257153244491498 
965	 0.253878322078149 
966	 0.252154831864875 
967	 0.252243968213284 
968	 0.253660588630501 
969	 0.255137825257611 
970	 0.25536775779259 
971	 0.250954330909975 
972	 0.249579768001015 
973	 0.254581218647189 
974	 0.258177004281948 
975	 0.258799518302423 
976	 0.255927096109342 
977	 0.255500066699891 
978	 0.257930823931696 
979	 0.261627261688642 
980	 0.261287828411054 
981	 0.257073437911169 
982	 0.256061029660339 
983	 0.25652609825176 
984	 0.257156924464123 
985	 0.256150227476172 
986	 0.2547647256184 
987	 0.254452331026259 
988	 0.253496530720394 
989	 0.252357740475704 
990	 0.252335316058263 
991	 0.255801614450305 
992	 0.261518932564977 
993	 0.2628217643526 
994	 0.261605535581469 
995	 0.259240367944887 
996	 0.257749099388046 
997	 0.256372530040798 
998	 0.254467343265285 
999	 0.255094152443567 
1000	 0.257959755329827 
1001	 0.261646597841708 
1002	 0.260590377093447 
1003	 0.255566831592039 
1004	 0.253022415685979 
1005	 0.256440607391236 
1006	 0.264657087868832 
1007	 0.263745351201179 
1008	 0.261187567430401 
1009	 0.262240979593205 
1010	 0.254002073735597 
1011	 0.247482277435917 
1012	 0.25862325682634 
1013	 0.261835952943285 
1014	 0.256896978496981 
1015	 0.257382775328496 
1016	 0.256400174726107 
1017	 0.253804223878116 
1018	 0.25676592847898 
1019	 0.259648568612441 
1020	 0.259870697005956 
1021	 0.262855286379361 
1022	 0.265541582692236 
1023	 0.264704422803497 
1024	 0.265706627487533 
1025	 0.262569051542154 
1026	 0.244423664061643 
1027	 0.249662679376665 
1028	 0.272226624212374 
1029	 0.264863501854994 
1030	 0.255262818690506 
1031	 0.252813716027229 
1032	 0.255818604027046 
1033	 0.258455964312806 
1034	 0.257659273132075 
1035	 0.260164488896909 
1036	 0.263814797649184 
1037	 0.265416944201226 
1038	 0.265100359191136 
1039	 0.262890941152308 
1040	 0.258972633366197 
1041	 0.259444910015064 
1042	 0.264706141815939 
1043	 0.272566567678403 
1044	 0.266123044752268 
1045	 0.246449056960178 
1046	 0.246925756131162 
1047	 0.249266567904645 
1048	 0.245643873025847 
1049	 0.263290545738131 
1050	 0.280872778118109 
1051	 0.276737103836141 
1052	 0.26015275728373 
1053	 0.247975719645185 
1054	 0.261712756426044 
1055	 0.270896492861055 
1056	 0.267437585881977 
1057	 0.24907855907231 
1058	 0.242711611512065 
1059	 0.253272853134858 
1060	 0.259260234445726 
1061	 0.266311843365768 
1062	 0.272929632801088 
1063	 0.263121182799055 
1064	 0.25314101507946 
1065	 0.253601123371532 
1066	 0.240703051585688 
1067	 0.232241372041264 
1068	 0.246299408279594 
1069	 0.25147945609199 
1070	 0.253801932385918 
1071	 0.273140942537189 
1072	 0.262514458379025 
1073	 0.237335602371242 
1074	 0.263880545646305 
1075	 0.26470609120281 
