Wavelength	SHSI00165.asd
325	 6.46889584442937E-02 
326	 5.55146094798696E-02 
327	 4.30097098191497E-02 
328	 5.15718057720138E-02 
329	 5.76928348254558E-02 
330	 5.44113756345736E-02 
331	 5.58403405266255E-02 
332	 5.99223621954559E-02 
333	 6.37442072503885E-02 
334	 6.42793801996021E-02 
335	 6.16133803164045E-02 
336	 5.66730912986226E-02 
337	 5.57180453432945E-02 
338	 0.057998478099615 
339	 4.91624420154308E-02 
340	 4.48235526883287E-02 
341	 5.60061618243233E-02 
342	 5.83009753356618E-02 
343	 5.45818551882891E-02 
344	 5.76408073706246E-02 
345	 5.90537533123648E-02 
346	 5.73404468359671E-02 
347	 5.46574082334819E-02 
348	 5.45831404496746E-02 
349	 5.82379407839972E-02 
350	 5.47310742384971E-02 
351	 4.93188177868871E-02 
352	 5.22716661775652E-02 
353	 5.45726333829046E-02 
354	 5.45566186491048E-02 
355	 5.49029414455906E-02 
356	 5.48308017203154E-02 
357	 5.42050488439364E-02 
358	 5.60372997878685E-02 
359	 5.78205903057586E-02 
360	 0.055396116173113 
361	 5.45082792818719E-02 
362	 5.56725070997932E-02 
363	 5.57646789907925E-02 
364	 5.48071020640403E-02 
365	 5.35170418869807E-02 
366	 0.056497641394543 
367	 6.04596015654582E-02 
368	 0.060403457312694 
369	 5.87824256148933E-02 
370	 5.69332385445856E-02 
371	 5.69804395864454E-02 
372	 5.87285040732472E-02 
373	 6.14250711425309E-02 
374	 6.13638068972276E-02 
375	 5.91911747773583E-02 
376	 5.64594800188327E-02 
377	 5.50273804954759E-02 
378	 5.55718476768441E-02 
379	 5.88542617758406E-02 
380	 5.97140055994375E-02 
381	 5.64066352972971E-02 
382	 5.74661023168745E-02 
383	 5.93472980362475E-02 
384	 5.64029531968594E-02 
385	 5.62211180549817E-02 
386	 5.83591625836598E-02 
387	 5.60977100667416E-02 
388	 5.41864029474851E-02 
389	 5.45634617377665E-02 
390	 0.055258987825291 
391	 5.62258596544175E-02 
392	 5.75753669216624E-02 
393	 5.74860531605887E-02 
394	 0.055984702068101 
395	 5.43138799335484E-02 
396	 5.33689202791634E-02 
397	 5.32211190074315E-02 
398	 5.21462833242447E-02 
399	 5.09598550868055E-02 
400	 5.05655511374911E-02 
401	 5.04141416006447E-02 
402	 5.08407813413199E-02 
403	 5.32944322346913E-02 
404	 5.45165910733499E-02 
405	 5.36378161915307E-02 
406	 5.46646865938188E-02 
407	 5.60343281988845E-02 
408	 5.54515561058361E-02 
409	 5.45022999100151E-02 
410	 5.39285628026959E-02 
411	 5.48177289038137E-02 
412	 5.53494475298013E-02 
413	 5.47390191942849E-02 
414	 5.38351437865756E-02 
415	 5.37274708360326E-02 
416	 5.56613163213851E-02 
417	 5.57923992433566E-02 
418	 5.43020313850288E-02 
419	 5.48384779422736E-02 
420	 5.51856868429093E-02 
421	 5.43677096868467E-02 
422	 5.43863062521534E-02 
423	 5.47794198060868E-02 
424	 5.45624869486381E-02 
425	 5.43499843695922E-02 
426	 5.43352507929381E-02 
427	 5.46096523653046E-02 
428	 5.51679968011352E-02 
429	 5.57959465863063E-02 
430	 5.49785502961054E-02 
431	 5.37277851630233E-02 
432	 5.39915681331511E-02 
433	 5.41950289026513E-02 
434	 5.39879411701721E-02 
435	 5.35311508136362E-02 
436	 5.37608245536596E-02 
437	 5.50934471362027E-02 
438	 5.53390546574928E-02 
439	 5.48075952800559E-02 
440	 5.46317391669581E-02 
441	 5.48502138324217E-02 
442	 5.53501437575156E-02 
443	 5.54150023264185E-02 
444	 5.54927701104691E-02 
445	 5.59212324352198E-02 
446	 5.60130081584893E-02 
447	 5.58861122358045E-02 
448	 5.60964750456157E-02 
449	 5.59576384656602E-02 
450	 0.05548307585706 
451	 5.58791702592274E-02 
452	 5.64348677701218E-02 
453	 5.64157823339501E-02 
454	 5.68306586036033E-02 
455	 5.74593991456192E-02 
456	 5.72390720857908E-02 
457	 5.67081207265014E-02 
458	 5.62132735119528E-02 
459	 5.63065689105765E-02 
460	 5.67397629559278E-02 
461	 0.057140622440344 
462	 0.056903956634808 
463	 5.63340291237484E-02 
464	 5.68672537428439E-02 
465	 5.72687469086628E-02 
466	 5.70182668346775E-02 
467	 5.73580584535728E-02 
468	 5.76774684103914E-02 
469	 5.69137805214694E-02 
470	 5.63955163589015E-02 
471	 5.65323012822234E-02 
472	 5.74295904410091E-02 
473	 5.81441579884341E-02 
474	 0.058062725055966 
475	 5.75659150343824E-02 
476	 5.70589279528689E-02 
477	 0.057137336687351 
478	 5.70448389377737E-02 
479	 5.67651215200512E-02 
480	 5.71608489061104E-02 
481	 5.77177814468909E-02 
482	 5.79983958775725E-02 
483	 5.81564164167517E-02 
484	 5.82479290543723E-02 
485	 5.84070241686787E-02 
486	 5.82494442889059E-02 
487	 5.77208595908759E-02 
488	 5.72911512364754E-02 
489	 5.69831888401332E-02 
490	 0.056801932125411 
491	 5.72969284070643E-02 
492	 5.81389504619392E-02 
493	 5.83069858572986E-02 
494	 5.79443427135956E-02 
495	 5.72774591817325E-02 
496	 5.72705189892775E-02 
497	 5.77863750476859E-02 
498	 5.85120436869259E-02 
499	 5.90348060438753E-02 
500	 5.92677697751196E-02 
501	 5.94824467334678E-02 
502	 5.93946643181797E-02 
503	 5.89081486137238E-02 
504	 5.85373244893941E-02 
505	 5.84527006708732E-02 
506	 5.88078622147375E-02 
507	 5.90230200498908E-02 
508	 5.90631418738182E-02 
509	 5.95312155166008E-02 
510	 6.01993642242679E-02 
511	 6.08228630530988E-02 
512	 6.08966482263264E-02 
513	 6.07363864382298E-02 
514	 6.12475999188776E-02 
515	 6.20126830606542E-02 
516	 6.27071645142964E-02 
517	 6.24216334044337E-02 
518	 6.21148954314372E-02 
519	 6.28196478183952E-02 
520	 6.27996005464161E-02 
521	 6.23085360806673E-02 
522	 6.29462568331349E-02 
523	 6.37646315929527E-02 
524	 6.43166013556999E-02 
525	 0.064660030816821 
526	 6.49557993913526E-02 
527	 6.54376988825809E-02 
528	 6.54972876021941E-02 
529	 6.52550147152224E-02 
530	 6.56019613544441E-02 
531	 0.066229938989382 
532	 6.68685231813615E-02 
533	 6.70986854755454E-02 
534	 6.70002461267741E-02 
535	 6.68225597500387E-02 
536	 6.69825375717306E-02 
537	 6.75373853895109E-02 
538	 6.79512976810402E-02 
539	 6.83385139308693E-02 
540	 6.88028337729159E-02 
541	 0.068758086112072 
542	 6.84060347183138E-02 
543	 6.84837465289497E-02 
544	 6.90258330250566E-02 
545	 6.98784529059173E-02 
546	 6.99283684199086E-02 
547	 6.97058860902815E-02 
548	 7.00347642387234E-02 
549	 7.04008062746982E-02 
550	 7.05935674285788E-02 
551	 7.02878292022381E-02 
552	 7.01491473800077E-02 
553	 0.070584451820436 
554	 7.11931758585777E-02 
555	 7.16090087277242E-02 
556	 7.12498685987897E-02 
557	 7.11912787724114E-02 
558	 7.16169517480081E-02 
559	 7.15474214818687E-02 
560	 7.15310768937206E-02 
561	 7.20482370089511E-02 
562	 7.20914358772917E-02 
563	 7.18511298705132E-02 
564	 7.23913502339053E-02 
565	 7.25779915088995E-02 
566	 7.20797848365913E-02 
567	 7.18590669926545E-02 
568	 7.20265239565323E-02 
569	 7.25961290136843E-02 
570	 7.24781117396757E-02 
571	 7.17466123317251E-02 
572	 7.16592389682938E-02 
573	 7.17301654664885E-02 
574	 7.17041729792963E-02 
575	 7.20171015880686E-02 
576	 7.23276882601833E-02 
577	 7.19119744010348E-02 
578	 7.16389724465677E-02 
579	 0.071809377553618 
580	 7.24396950183755E-02 
581	 7.28038513685369E-02 
582	 0.072325432011951 
583	 7.21166752275714E-02 
584	 0.072246248018314 
585	 7.23453457747152E-02 
586	 0.072344850724097 
587	 7.22197007892587E-02 
588	 0.072096718252376 
589	 7.21984528138273E-02 
590	 7.27726950309521E-02 
591	 7.28816193952726E-02 
592	 0.072526223827834 
593	 7.25476636648033E-02 
594	 7.23606227363375E-02 
595	 0.071787253993399 
596	 7.22377625377653E-02 
597	 7.30957511498847E-02 
598	 7.29786393659925E-02 
599	 7.27514646118983E-02 
600	 0.072645124991594 
601	 7.24235391492914E-02 
602	 7.25696548029052E-02 
603	 7.34235274188337E-02 
604	 7.37969405472542E-02 
605	 7.36288243414671E-02 
606	 7.33309819766673E-02 
607	 7.30943922841102E-02 
608	 7.30990866715932E-02 
609	 7.36658292522819E-02 
610	 7.41522315866663E-02 
611	 7.37440617096674E-02 
612	 7.36565450390946E-02 
613	 7.38894571863476E-02 
614	 7.33537634215129E-02 
615	 7.29373467359186E-02 
616	 7.31262661066435E-02 
617	 7.31150258237706E-02 
618	 7.29694941492582E-02 
619	 7.29887129949551E-02 
620	 7.31015686832798E-02 
621	 7.32499130599454E-02 
622	 0.073275083006755 
623	 7.32235136055875E-02 
624	 7.31511652717223E-02 
625	 7.30793201750107E-02 
626	 0.073219118198516 
627	 7.41592356079438E-02 
628	 7.47930915026482E-02 
629	 7.47068105229496E-02 
630	 7.46048530652353E-02 
631	 0.074290079907479 
632	 7.34626217206409E-02 
633	 7.36894795524592E-02 
634	 0.074799982102858 
635	 7.50482410694009E-02 
636	 7.47437586926946E-02 
637	 7.41460676026623E-02 
638	 7.38644482971296E-02 
639	 7.39611357386235E-02 
640	 7.43905415651359E-02 
641	 7.45940018655189E-02 
642	 7.43706000877132E-02 
643	 7.37568780097878E-02 
644	 7.34565210675697E-02 
645	 7.39996020118821E-02 
646	 0.073884625755227 
647	 0.07331787444484 
648	 7.36897147074762E-02 
649	 7.37520242840675E-02 
650	 7.31577401117981E-02 
651	 7.28021020038215E-02 
652	 7.29113047840748E-02 
653	 7.36427751677563E-02 
654	 0.073940132015428 
655	 7.36213535356002E-02 
656	 7.32030156686289E-02 
657	 7.24417416433547E-02 
658	 0.071408169844114 
659	 0.071042789338464 
660	 7.13521427115111E-02 
661	 7.22803605395418E-02 
662	 7.22797020944717E-02 
663	 7.12900116525035E-02 
664	 7.13141127695601E-02 
665	 7.13610379113982E-02 
666	 7.06657943421768E-02 
667	 7.10057568733865E-02 
668	 7.18379062623048E-02 
669	 7.10706598129344E-02 
670	 7.04155276546669E-02 
671	 7.05407339881939E-02 
672	 7.14892258647802E-02 
673	 7.21573136323162E-02 
674	 7.13366367050595E-02 
675	 7.08629434343001E-02 
676	 7.09755181066657E-02 
677	 7.09769772157939E-02 
678	 7.10513210826675E-02 
679	 7.13157499211074E-02 
680	 7.19661838547571E-02 
681	 7.26842810172209E-02 
682	 7.29195083066567E-02 
683	 7.38340708368107E-02 
684	 7.53826938393138E-02 
685	 0.076057023866392 
686	 0.076711710147667 
687	 7.80941764378018E-02 
688	 7.97413003105054E-02 
689	 8.10692837480052E-02 
690	 8.12377315019389E-02 
691	 8.24734716842922E-02 
692	 8.51976253352905E-02 
693	 8.76116499627193E-02 
694	 8.93757621074895E-02 
695	 0.090244401144012 
696	 9.17659003222767E-02 
697	 9.40690642784758E-02 
698	 9.67602687516701E-02 
699	 9.89498932432642E-02 
700	 0.100297964152811 
701	 0.102320047106035 
702	 0.104504865 
703	 0.105932458492298 
704	 0.107816701389078 
705	 0.110155935712869 
706	 0.111824664239257 
707	 0.113425350526436 
708	 0.115286579123309 
709	 0.116743615884258 
710	 0.118085874576687 
711	 0.119987921137935 
712	 0.121962176440879 
713	 0.123770559969182 
714	 0.12517745918171 
715	 0.126344251951368 
716	 0.127505443311627 
717	 0.128751395015094 
718	 0.130230508418102 
719	 0.132113719410035 
720	 0.133326110873256 
721	 0.133714887475006 
722	 0.134680063149829 
723	 0.136041105221908 
724	 0.137458344380908 
725	 0.138611954495525 
726	 0.139597050866143 
727	 0.141423805856654 
728	 0.142546062709277 
729	 0.142477296445678 
730	 0.143725630246655 
731	 0.145332260999575 
732	 0.145619559608409 
733	 0.145980994756938 
734	 0.14669776879573 
735	 0.147533954972278 
736	 0.148382163840992 
737	 0.149146944204642 
738	 0.149933723923344 
739	 0.15079059689881 
740	 0.151761120339914 
741	 0.152915177209205 
742	 0.154046336188399 
743	 0.154272263700664 
744	 0.154368705476181 
745	 0.155012008107338 
746	 0.155781812006312 
747	 0.156597622837182 
748	 0.157497009530951 
749	 0.158103263716991 
750	 0.158442789368129 
751	 0.159475549319664 
752	 0.160698428061702 
753	 0.161490207352445 
754	 0.161536623473836 
755	 0.161362038494232 
756	 0.162791834682877 
757	 0.163282857783817 
758	 0.161998690713843 
759	 0.162308253561995 
760	 0.165123129307117 
761	 0.168958088004751 
762	 0.170447798531215 
763	 0.170077483173554 
764	 0.171378954392126 
765	 0.17262891889015 
766	 0.173196357833951 
767	 0.173456989714243 
768	 0.173490628236008 
769	 0.17327371869774 
770	 0.173562136527716 
771	 0.174389983723394 
772	 0.175067388312984 
773	 0.175877723781932 
774	 0.176960617726529 
775	 0.177836962019043 
776	 0.178540873793671 
777	 0.179284538569923 
778	 0.179964802454121 
779	 0.180625733426564 
780	 0.181551672679453 
781	 0.182430944839416 
782	 0.183044761917925 
783	 0.183881205522231 
784	 0.184864718897581 
785	 0.185697189394189 
786	 0.186167622489033 
787	 0.186381796961405 
788	 0.187223640145407 
789	 0.188118676767081 
790	 0.188516590673484 
791	 0.188979631894273 
792	 0.189801412266619 
793	 0.191546162352254 
794	 0.192552150809317 
795	 0.192536983780381 
796	 0.19355663530836 
797	 0.194637752349211 
798	 0.194762450054456 
799	 0.195383826441159 
800	 0.196572708440539 
801	 0.197789905280778 
802	 0.19860944421664 
803	 0.198992350419699 
804	 0.200082856727218 
805	 0.200854023412308 
806	 0.200245716673861 
807	 0.201069000097933 
808	 0.203059049278042 
809	 0.20368549090361 
810	 0.204563003973801 
811	 0.205975786585883 
812	 0.205348134966452 
813	 0.204447121432323 
814	 0.205848762180952 
815	 0.207878745958038 
816	 0.210057517273091 
817	 0.212526549926964 
818	 0.213622339197901 
819	 0.213019672463544 
820	 0.213100296648278 
821	 0.214052089319217 
822	 0.215864863626165 
823	 0.218521248282008 
824	 0.220809934658596 
825	 0.219836114619234 
826	 0.219019241502651 
827	 0.219748685326077 
828	 0.220634771891788 
829	 0.221718137327971 
830	 0.223150794829727 
831	 0.224726696866503 
832	 0.226204196738696 
833	 0.227226472149025 
834	 0.227725014594779 
835	 0.227839966626142 
836	 0.228427982558533 
837	 0.229221855252741 
838	 0.229865715075103 
839	 0.231352771169858 
840	 0.233431218625501 
841	 0.235070018978177 
842	 0.235437327293736 
843	 0.2345743575546 
844	 0.235216121618621 
845	 0.236133951627487 
846	 0.235788892268982 
847	 0.236954209364087 
848	 0.239111225440156 
849	 0.239187188762641 
850	 0.238756787333639 
851	 0.238728161851827 
852	 0.240074055024366 
853	 0.242880267964952 
854	 0.246819821285662 
855	 0.247245011756208 
856	 0.24511873567336 
857	 0.245104935065502 
858	 0.246221236980978 
859	 0.247943849109032 
860	 0.248647675620311 
861	 0.249268305811839 
862	 0.250694466198219 
863	 0.251285751984306 
864	 0.251691104369305 
865	 0.254182171845103 
866	 0.255987808889878 
867	 0.256510839894758 
868	 0.25799566153666 
869	 0.259314035944966 
870	 0.25959766184551 
871	 0.260178620902299 
872	 0.260886074137465 
873	 0.260897722556863 
874	 0.261839296702599 
875	 0.263794826867948 
876	 0.264947518070846 
877	 0.265772615124948 
878	 0.266793647141816 
879	 0.269214935663474 
880	 0.271851088319332 
881	 0.272606762790881 
882	 0.271846717385691 
883	 0.271013254954007 
884	 0.274641280365988 
885	 0.278073211896269 
886	 0.278773250249914 
887	 0.279485061917364 
888	 0.279735211875177 
889	 0.278600163931314 
890	 0.278301494171396 
891	 0.27901588655562 
892	 0.279356457825929 
893	 0.280150674223041 
894	 0.281800599411752 
895	 0.284129826685766 
896	 0.287264356213567 
897	 0.29112605893207 
898	 0.292812383398371 
899	 0.293218034103498 
900	 0.296703423616321 
901	 0.297035150285797 
902	 0.293682717237523 
903	 0.293573951283979 
904	 0.294219633680895 
905	 0.29390227834152 
906	 0.29654015647708 
907	 0.300596664076075 
908	 0.302430669232471 
909	 0.301892786852575 
910	 0.300276755625182 
911	 0.303020387384714 
912	 0.304683525806031 
913	 0.303142962128705 
914	 0.306625538269035 
915	 0.31127729589179 
916	 0.311494621822699 
917	 0.311222239935089 
918	 0.311003777278503 
919	 0.30975857369955 
920	 0.310190440017864 
921	 0.312077905676953 
922	 0.308869299399599 
923	 0.306710043636237 
924	 0.310583731770321 
925	 0.310459259299368 
926	 0.306177503067525 
927	 0.300911009103421 
928	 0.302079561897581 
929	 0.309943724255331 
930	 0.309195772559164 
931	 0.306031165312711 
932	 0.306335212106539 
933	 0.312403063287226 
934	 0.319704960168936 
935	 0.321219022470381 
936	 0.327141326824726 
937	 0.332598493235416 
938	 0.319402645681122 
939	 0.313532933728469 
940	 0.319591913735331 
941	 0.319803568858402 
942	 0.317796864845085 
943	 0.316877833009102 
944	 0.319205925259773 
945	 0.320361611068912 
946	 0.312797593985149 
947	 0.319278198782375 
948	 0.334647541194903 
949	 0.322632449492684 
950	 0.313785639076023 
951	 0.319161627032063 
952	 0.321738734994625 
953	 0.321206605772395 
954	 0.318765950945213 
955	 0.318680521597268 
956	 0.318746371190201 
957	 0.313276558938236 
958	 0.316513302206686 
959	 0.325975676416876 
960	 0.320332343472666 
961	 0.3180226060489 
962	 0.32567598035055 
963	 0.327320446218303 
964	 0.326545409562316 
965	 0.327624221894076 
966	 0.32638668718253 
967	 0.321370220998827 
968	 0.309984522245815 
969	 0.310617626087233 
970	 0.322725246720587 
971	 0.324170876720331 
972	 0.32337418859795 
973	 0.325179140770535 
974	 0.328860032434706 
975	 0.33208262034228 
976	 0.332585092286702 
977	 0.336614020748842 
978	 0.340473408659194 
979	 0.333596382989821 
980	 0.33357519572798 
981	 0.340426097946993 
982	 0.332463059903663 
983	 0.329166567626897 
984	 0.338378446531698 
985	 0.338549974939531 
986	 0.335152300541974 
987	 0.336184102684712 
988	 0.341455373711873 
989	 0.346535296720862 
990	 0.342472982048715 
991	 0.3447774467794 
992	 0.352238373111027 
993	 0.343329768019286 
994	 0.336431047379578 
995	 0.339878782914943 
996	 0.343717961641085 
997	 0.343852694899835 
998	 0.33817362700269 
999	 0.341864198831378 
1000	 0.349392532752173 
1001	 0.347015060669834 
1002	 0.34740464466099 
1003	 0.352241689912782 
1004	 0.356206031027924 
1005	 0.359506715939409 
1006	 0.36135188889919 
1007	 0.359149133899406 
1008	 0.356086180593051 
1009	 0.355334427084226 
1010	 0.359356607899305 
1011	 0.363811794208878 
1012	 0.362145957604318 
1013	 0.362334738552002 
1014	 0.365192979346944 
1015	 0.367929076714795 
1016	 0.374840274812716 
1017	 0.382064489251096 
1018	 0.368474462702776 
1019	 0.36052196892568 
1020	 0.370926161606273 
1021	 0.379527735487407 
1022	 0.377967758540363 
1023	 0.362644485327874 
1024	 0.364281379771528 
1025	 0.377648647062276 
1026	 0.385394568298548 
1027	 0.375777621054753 
1028	 0.355471533674612 
1029	 0.355128335418548 
1030	 0.35617833631659 
1031	 0.356657061510561 
1032	 0.376389397423701 
1033	 0.393000075699187 
1034	 0.392615610605454 
1035	 0.391097653459227 
1036	 0.383681691472591 
1037	 0.366594818148644 
1038	 0.369424025736045 
1039	 0.384752799034627 
1040	 0.390543189716307 
1041	 0.384845743744923 
1042	 0.373911907939369 
1043	 0.378052051608697 
1044	 0.386334891093232 
1045	 0.392643966305192 
1046	 0.389206975182817 
1047	 0.381975820204043 
1048	 0.374324779972888 
1049	 0.358664021342063 
1050	 0.349600479109864 
1051	 0.360259108602279 
1052	 0.36584285622117 
1053	 0.367442614151378 
1054	 0.372209759001486 
1055	 0.396377026292078 
1056	 0.422201041902028 
1057	 0.393076359168361 
1058	 0.387262639663918 
1059	 0.40895263462833 
1060	 0.382828594015206 
1061	 0.358692463946974 
1062	 0.361771059678822 
1063	 0.386361982154095 
1064	 0.397225346335525 
1065	 0.37426024556009 
1066	 0.367769040255856 
1067	 0.369005486596344 
1068	 0.362700631226617 
1069	 0.373412441116526 
1070	 0.381302215785957 
1071	 0.349371806546483 
1072	 0.346706677271747 
1073	 0.372709150536943 
1074	 0.38534550252474 
1075	 0.371129069168447 
