Wavelength	SHSI00183.asd
325	 7.40235423697532E-02 
326	 6.43076104049395E-02 
327	 5.60207932315266E-02 
328	 6.87448687799176E-02 
329	 7.10120890355896E-02 
330	 5.63939990231614E-02 
331	 5.80592398556205E-02 
332	 6.51367703116857E-02 
333	 6.55675768222841E-02 
334	 6.57029156939853E-02 
335	 6.58561238013159E-02 
336	 6.45135095523488E-02 
337	 6.29039416138837E-02 
338	 6.20718683245152E-02 
339	 6.46829644249827E-02 
340	 6.69153145384146E-02 
341	 6.60807491157416E-02 
342	 6.82092211188612E-02 
343	 7.20533427668882E-02 
344	 7.36796241685858E-02 
345	 7.49571418350337E-02 
346	 7.51598248145817E-02 
347	 6.88996037828634E-02 
348	 6.65780593527362E-02 
349	 7.33303047653103E-02 
350	 7.13381016296823E-02 
351	 6.61980871853718E-02 
352	 7.02204695861551E-02 
353	 7.23660109118296E-02 
354	 7.12428395900565E-02 
355	 7.23392298352337E-02 
356	 7.25564883639134E-02 
357	 7.05864074633116E-02 
358	 7.22215679342108E-02 
359	 7.44509591426534E-02 
360	 7.18628678623524E-02 
361	 7.06740752219246E-02 
362	 7.15139190138123E-02 
363	 7.12087691238237E-02 
364	 7.04225865641154E-02 
365	 6.97024912612097E-02 
366	 6.98976495326058E-02 
367	 7.12665734491853E-02 
368	 7.40327111765202E-02 
369	 7.43323828515603E-02 
370	 7.26186661378216E-02 
371	 7.34520246631465E-02 
372	 7.60842873552166E-02 
373	 7.93522265277299E-02 
374	 7.89423311774871E-02 
375	 7.57070437054697E-02 
376	 7.15993186086582E-02 
377	 0.07002102566058 
378	 7.11560538161522E-02 
379	 7.25272295437852E-02 
380	 7.36183072995008E-02 
381	 7.39710061839198E-02 
382	 7.36049556758941E-02 
383	 7.28261475267879E-02 
384	 7.20341405829786E-02 
385	 7.21848605706155E-02 
386	 0.072595457841276 
387	 7.05658533095599E-02 
388	 6.87617943187323E-02 
389	 6.82913964283888E-02 
390	 6.75663337416037E-02 
391	 6.83545605122408E-02 
392	 7.27027471959289E-02 
393	 7.35775227812983E-02 
394	 7.10289518469834E-02 
395	 6.98073370805657E-02 
396	 6.97887668546486E-02 
397	 7.03452218579487E-02 
398	 6.83434978780261E-02 
399	 0.066031081542302 
400	 6.57716646850861E-02 
401	 6.72395370179639E-02 
402	 6.95389248158716E-02 
403	 7.11323262163927E-02 
404	 7.04888218697934E-02 
405	 6.79201452798563E-02 
406	 6.96874555674127E-02 
407	 7.25670318880468E-02 
408	 0.072017329817255 
409	 7.06972653449928E-02 
410	 6.97305691824259E-02 
411	 7.05601353505065E-02 
412	 7.14180554915395E-02 
413	 7.13977235690447E-02 
414	 7.05914823825289E-02 
415	 6.99703707249735E-02 
416	 7.07320151833018E-02 
417	 7.10932523121641E-02 
418	 7.10049644570206E-02 
419	 7.18823648143891E-02 
420	 7.19786303806277E-02 
421	 7.06899440063833E-02 
422	 7.08472621316257E-02 
423	 7.16387831243144E-02 
424	 7.14246361936386E-02 
425	 7.11152575109692E-02 
426	 7.10979050424242E-02 
427	 7.20330459568176E-02 
428	 7.26107914314187E-02 
429	 0.072035106240278 
430	 7.14444253567361E-02 
431	 7.10169703047156E-02 
432	 7.07453251595279E-02 
433	 7.07634612485661E-02 
434	 7.09644465676494E-02 
435	 7.07560975464958E-02 
436	 7.11400169204738E-02 
437	 7.25651688767417E-02 
438	 7.26993252875545E-02 
439	 7.19757682381934E-02 
440	 7.17842036144124E-02 
441	 7.19140914715635E-02 
442	 7.22294398039461E-02 
443	 7.22204127856447E-02 
444	 7.22781668920651E-02 
445	 7.26852950023635E-02 
446	 7.27762726280256E-02 
447	 0.072555259055746 
448	 7.22314870767361E-02 
449	 7.21638021435715E-02 
450	 7.24813727986509E-02 
451	 7.30159041082411E-02 
452	 7.35765175414097E-02 
453	 7.39801121510968E-02 
454	 7.42459536871142E-02 
455	 7.43492042451193E-02 
456	 0.074223487374597 
457	 7.40663207513516E-02 
458	 7.39668077072128E-02 
459	 7.37671241064488E-02 
460	 7.38291743423944E-02 
461	 7.45521356625653E-02 
462	 7.45271334293449E-02 
463	 7.39081371507647E-02 
464	 7.42029501044499E-02 
465	 7.46625510709522E-02 
466	 7.49175853703198E-02 
467	 7.53082851022814E-02 
468	 7.53463357521498E-02 
469	 7.43105835776118E-02 
470	 7.33900270256416E-02 
471	 7.31655324623831E-02 
472	 7.43656899877476E-02 
473	 7.54241999781459E-02 
474	 0.075344786875122 
475	 7.48720882819244E-02 
476	 7.45224796365517E-02 
477	 7.50236557132623E-02 
478	 7.50519233739629E-02 
479	 7.45380495974155E-02 
480	 7.49348769023073E-02 
481	 7.53648058432541E-02 
482	 0.075171258115958 
483	 0.075681438076648 
484	 7.65719724381074E-02 
485	 7.66229533086983E-02 
486	 7.60181186243543E-02 
487	 7.50653432274944E-02 
488	 7.50435149866541E-02 
489	 0.075128766626282 
490	 7.44681934200059E-02 
491	 7.46083314715951E-02 
492	 7.53654136116961E-02 
493	 7.54733914909035E-02 
494	 7.54501059576424E-02 
495	 7.55351551313647E-02 
496	 7.58490634168594E-02 
497	 7.62902683204787E-02 
498	 7.67121646650952E-02 
499	 7.66594685680865E-02 
500	 7.62269442585477E-02 
501	 7.60954076143639E-02 
502	 7.62645386214567E-02 
503	 7.66481298549722E-02 
504	 7.66061995669995E-02 
505	 7.62249167896514E-02 
506	 7.57236128912565E-02 
507	 7.61626094262222E-02 
508	 7.74620691671061E-02 
509	 7.79369175462992E-02 
510	 7.83051248124953E-02 
511	 0.07908740207894 
512	 7.90339810192934E-02 
513	 7.85261513863305E-02 
514	 7.88461084152275E-02 
515	 7.95671550180479E-02 
516	 8.03795334971468E-02 
517	 8.04716702447307E-02 
518	 0.080095144558756 
519	 7.96340897370176E-02 
520	 7.95033280139652E-02 
521	 7.97568189957352E-02 
522	 0.080264329663358 
523	 8.07381109847837E-02 
524	 8.10406462703683E-02 
525	 8.12932235682885E-02 
526	 8.16919620681527E-02 
527	 8.25033750340269E-02 
528	 8.25907257773243E-02 
529	 8.20694129497255E-02 
530	 8.23094332471259E-02 
531	 8.30150420780172E-02 
532	 8.38726561983644E-02 
533	 8.39370129374396E-02 
534	 8.35713303130125E-02 
535	 0.083790094078604 
536	 8.38361907093925E-02 
537	 8.36907987975005E-02 
538	 8.43050863590004E-02 
539	 8.50894271875432E-02 
540	 8.54311834344283E-02 
541	 8.55869182920552E-02 
542	 8.56086315061563E-02 
543	 8.54547761286777E-02 
544	 8.55909156496763E-02 
545	 8.61061012300961E-02 
546	 8.61538503801965E-02 
547	 8.60775865220903E-02 
548	 8.64239315648256E-02 
549	 8.65428995914768E-02 
550	 8.63930081688973E-02 
551	 8.63617758861968E-02 
552	 8.64549308136949E-02 
553	 8.67014948859354E-02 
554	 8.73032605171298E-02 
555	 0.08785593342959 
556	 8.75473643358705E-02 
557	 8.76166549692384E-02 
558	 8.82040431571117E-02 
559	 0.087952001262291 
560	 0.087642626433831 
561	 8.80044488267803E-02 
562	 0.088249072239216 
563	 0.088275292238295 
564	 8.81822391169572E-02 
565	 8.82102477051302E-02 
566	 8.84693748573814E-02 
567	 8.88652495930378E-02 
568	 8.92384526850435E-02 
569	 8.94047961545724E-02 
570	 8.91668632071598E-02 
571	 8.86264063507625E-02 
572	 8.81822346086715E-02 
573	 8.82108727687232E-02 
574	 8.88429876226831E-02 
575	 8.90746385706056E-02 
576	 0.088982074942852 
577	 8.89712603688097E-02 
578	 8.91691609460967E-02 
579	 8.94603841717969E-02 
580	 8.90403370336739E-02 
581	 8.87642628004114E-02 
582	 8.93527640600772E-02 
583	 8.97305395513102E-02 
584	 8.98006329805472E-02 
585	 8.98314173360689E-02 
586	 8.99967381607038E-02 
587	 9.02532869993816E-02 
588	 8.97672988155857E-02 
589	 8.91265969918913E-02 
590	 8.92013553352418E-02 
591	 8.94457527125962E-02 
592	 8.96836395884604E-02 
593	 8.98582796500308E-02 
594	 8.98271384341034E-02 
595	 8.95847217424535E-02 
596	 8.98106714703328E-02 
597	 0.090254871906658 
598	 9.03395188554138E-02 
599	 9.01506617434947E-02 
600	 0.089860572187116 
601	 9.01914882515805E-02 
602	 9.03150669168706E-02 
603	 8.96007901707869E-02 
604	 8.99659186894407E-02 
605	 9.09628106111484E-02 
606	 9.05438394580409E-02 
607	 9.02150969494299E-02 
608	 9.04978843956253E-02 
609	 9.07939692002576E-02 
610	 0.090851897295168 
611	 9.04360301719926E-02 
612	 9.05763397264328E-02 
613	 9.11543549671703E-02 
614	 9.08391924783329E-02 
615	 9.06408083173767E-02 
616	 9.10486235321518E-02 
617	 9.06996946823957E-02 
618	 9.00657680727321E-02 
619	 9.02562485043547E-02 
620	 9.05506921869765E-02 
621	 9.06775407368653E-02 
622	 9.04271831545516E-02 
623	 0.090176850871514 
624	 9.02656433048708E-02 
625	 9.04216646872806E-02 
626	 9.05302099258428E-02 
627	 9.03597138367435E-02 
628	 9.05851660485245E-02 
629	 9.13762717841457E-02 
630	 9.20436004188193E-02 
631	 9.21996470769545E-02 
632	 9.14825449594517E-02 
633	 9.11721496221592E-02 
634	 9.13916976083045E-02 
635	 9.13643928113217E-02 
636	 9.13364095258332E-02 
637	 9.14384838241122E-02 
638	 9.15750039563816E-02 
639	 9.16886087566988E-02 
640	 9.16841500481564E-02 
641	 0.091960882060319 
642	 9.23533104475685E-02 
643	 9.15419548904373E-02 
644	 9.09532319377154E-02 
645	 9.17859883404348E-02 
646	 9.22821306459449E-02 
647	 9.22267013091396E-02 
648	 0.091996817870384 
649	 9.16657829058216E-02 
650	 9.13249070113774E-02 
651	 9.09533079910963E-02 
652	 9.10368153083104E-02 
653	 9.21209607356222E-02 
654	 0.092476335053807 
655	 9.18752155751477E-02 
656	 9.12664472281677E-02 
657	 9.05110561535677E-02 
658	 0.089702803427957 
659	 8.95418171552068E-02 
660	 8.98317900382819E-02 
661	 9.02094719162522E-02 
662	 0.090106095346957 
663	 8.94774064108239E-02 
664	 8.89389175496384E-02 
665	 8.88502962569102E-02 
666	 8.94138539080226E-02 
667	 8.95410090503086E-02 
668	 8.92505578159864E-02 
669	 0.089079236258872 
670	 8.90032585306818E-02 
671	 0.089083383146384 
672	 8.95788682123377E-02 
673	 8.98549572276497E-02 
674	 8.92068025051351E-02 
675	 8.88139687146394E-02 
676	 8.89593072379958E-02 
677	 8.96246580606856E-02 
678	 9.01126041368079E-02 
679	 9.00812540804871E-02 
680	 9.01712427218444E-02 
681	 0.090432221392708 
682	 9.08013003007183E-02 
683	 0.091386389028961 
684	 9.21810135330686E-02 
685	 9.30832289344458E-02 
686	 9.41680686132348E-02 
687	 9.54407415523127E-02 
688	 9.64527367413041E-02 
689	 9.70311686309186E-02 
690	 9.71287500010566E-02 
691	 9.80511531832739E-02 
692	 9.99752142592609E-02 
693	 0.101335512718889 
694	 0.102574644197804 
695	 0.104166141902096 
696	 0.105562100354398 
697	 0.106815359813139 
698	 0.108499795548089 
699	 0.109743628134513 
700	 0.110241084365892 
701	 0.11120190855193 
702	 0.112360121354487 
703	 0.113161291443059 
704	 0.114272701278855 
705	 0.115646751776798 
706	 0.116553736532453 
707	 0.117323085870512 
708	 0.118167596378695 
709	 0.118995598362335 
710	 0.119847440030312 
711	 0.120795785105974 
712	 0.121818761676468 
713	 0.122898562670343 
714	 0.124083718130379 
715	 0.125019831404924 
716	 0.12543476340875 
717	 0.125891991498127 
718	 0.126532520250239 
719	 0.127258737520677 
720	 0.127851612098027 
721	 0.128226928633475 
722	 0.128513386098507 
723	 0.129027095467254 
724	 0.130086457070537 
725	 0.130663911229169 
726	 0.130930154446498 
727	 0.13252846715682 
728	 0.133237837050604 
729	 0.132340503870573 
730	 0.133305903538895 
731	 0.134651637855094 
732	 0.133839525309037 
733	 0.134006502753724 
734	 0.135347492126266 
735	 0.13609261380401 
736	 0.1362507802708 
737	 0.135940841758774 
738	 0.136433154248124 
739	 0.1374165739757 
740	 0.137956577562758 
741	 0.138415277454755 
742	 0.138802123225625 
743	 0.138729841119989 
744	 0.138931471188383 
745	 0.139928147019738 
746	 0.140051424338972 
747	 0.139700208660728 
748	 0.140579028433156 
749	 0.141254617670231 
750	 0.141340204843145 
751	 0.141683175043918 
752	 0.142125673894655 
753	 0.142441256711924 
754	 0.142619622853298 
755	 0.142831989542314 
756	 0.143843314007573 
757	 0.143348592398827 
758	 0.140699751314755 
759	 0.14052995522201 
760	 0.143826855000654 
761	 0.148503970275224 
762	 0.149834457530588 
763	 0.14844758958423 
764	 0.149168213699474 
765	 0.149501303115252 
766	 0.148876529584725 
767	 0.148924522799078 
768	 0.14923802895328 
769	 0.149248830417288 
770	 0.149181959321255 
771	 0.149265853085591 
772	 0.150142034729146 
773	 0.151053302798908 
774	 0.151453795195913 
775	 0.151351673501357 
776	 0.151180397592707 
777	 0.151698795834294 
778	 0.152299863050335 
779	 0.152724952998229 
780	 0.152662755908272 
781	 0.15293264123519 
782	 0.154079123579819 
783	 0.154610391141477 
784	 0.154687893015465 
785	 0.155218187073376 
786	 0.155548976256546 
787	 0.15554595319187 
788	 0.155458643818756 
789	 0.155846328651328 
790	 0.157122546485957 
791	 0.157888082210947 
792	 0.158177261618708 
793	 0.158843962318634 
794	 0.159080711423881 
795	 0.158802738018747 
796	 0.159012405293714 
797	 0.159386415510159 
798	 0.159558402019208 
799	 0.159888804334553 
800	 0.160524601195424 
801	 0.161770591290838 
802	 0.162513794120965 
803	 0.162462676627388 
804	 0.162937814052405 
805	 0.163253943547422 
806	 0.162638283418401 
807	 0.162452892747687 
808	 0.162883586854384 
809	 0.163652489144143 
810	 0.16413986201806 
811	 0.164117570663068 
812	 0.164325445497741 
813	 0.164578142458677 
814	 0.164573605670217 
815	 0.165267093123986 
816	 0.166704385462469 
817	 0.168287175731194 
818	 0.169268665942134 
819	 0.169281465576593 
820	 0.168315195054193 
821	 0.168108523883739 
822	 0.170578975033522 
823	 0.171971433259429 
824	 0.171619750497807 
825	 0.170419774971481 
826	 0.1698596740895 
827	 0.170616745731168 
828	 0.172254348589297 
829	 0.173411475535876 
830	 0.172586230572364 
831	 0.1725749961424 
832	 0.17380285825195 
833	 0.175754967979015 
834	 0.176449760390822 
835	 0.175387588458767 
836	 0.175359199465222 
837	 0.175859247035199 
838	 0.176053911481695 
839	 0.176575844501416 
840	 0.177334047784639 
841	 0.177781972448587 
842	 0.178140685107019 
843	 0.17843793465199 
844	 0.178341936278427 
845	 0.178194315664226 
846	 0.178383536847885 
847	 0.178323273510667 
848	 0.178163927453232 
849	 0.178824509312577 
850	 0.178509876718333 
851	 0.177214916207146 
852	 0.179370861504179 
853	 0.182340147692268 
854	 0.182977383882432 
855	 0.183400089928331 
856	 0.183650078487512 
857	 0.182585985751936 
858	 0.183082149341297 
859	 0.185281175718336 
860	 0.184545820627198 
861	 0.182836225701678 
862	 0.182344891172165 
863	 0.18331062529234 
864	 0.185147636970846 
865	 0.186292038949488 
866	 0.18756541106128 
867	 0.188975663702503 
868	 0.189833800271473 
869	 0.189477384715684 
870	 0.187698368799803 
871	 0.187393185352434 
872	 0.188024398261255 
873	 0.187525240779235 
874	 0.187985304763042 
875	 0.189775363676252 
876	 0.191996288712035 
877	 0.192958282492192 
878	 0.19188166029887 
879	 0.19272179089534 
880	 0.194168686604431 
881	 0.19317445954718 
882	 0.193266769061592 
883	 0.194757644702457 
884	 0.195354544245448 
885	 0.195443223583914 
886	 0.195292949595638 
887	 0.195364462825454 
888	 0.195500718747516 
889	 0.195406994994522 
890	 0.194696711700537 
891	 0.193602462920204 
892	 0.193050415341757 
893	 0.192715134576132 
894	 0.192839942392298 
895	 0.195342705036986 
896	 0.198864047080809 
897	 0.201473145236488 
898	 0.202815742052547 
899	 0.203498144227399 
900	 0.205769593000154 
901	 0.204956917808181 
902	 0.20121663400724 
903	 0.202049536309158 
904	 0.203182769851152 
905	 0.201519339689139 
906	 0.201509462463046 
907	 0.203234398903229 
908	 0.205807215079078 
909	 0.204646850215136 
910	 0.201023227164222 
911	 0.205697459893792 
912	 0.208769818319617 
913	 0.205521940804958 
914	 0.205362413511596 
915	 0.20747465757524 
916	 0.209539107781794 
917	 0.210485377289051 
918	 0.209833700716109 
919	 0.206615646303388 
920	 0.207252539240511 
921	 0.211710446688917 
922	 0.207131901447676 
923	 0.202019584717634 
924	 0.203764335938223 
925	 0.202035536766082 
926	 0.19796591930605 
927	 0.197706238997854 
928	 0.198294082407349 
929	 0.199567618712413 
930	 0.205484046823272 
931	 0.208544793069002 
932	 0.203752346356095 
933	 0.209392637011669 
934	 0.219733298357505 
935	 0.221965901205626 
936	 0.220886508105823 
937	 0.216888942956914 
938	 0.207336680165809 
939	 0.204405969644846 
940	 0.210014852567308 
941	 0.215338468199585 
942	 0.215963768996637 
943	 0.210103089636701 
944	 0.211194037548151 
945	 0.213973645433827 
946	 0.207121148889771 
947	 0.203851893558101 
948	 0.206479892890229 
949	 0.21148658935343 
950	 0.209707412279461 
951	 0.200474073287335 
952	 0.204505117901856 
953	 0.21081423813304 
954	 0.209156848441729 
955	 0.211520330806761 
956	 0.215272892519773 
957	 0.212290130707576 
958	 0.215781643513917 
959	 0.223745815694548 
960	 0.217439803181837 
961	 0.214429085201512 
962	 0.220996371429784 
963	 0.221615439713367 
964	 0.218440204882262 
965	 0.215051036644059 
966	 0.218236770128282 
967	 0.222256765684174 
968	 0.213318031741121 
969	 0.210846663029327 
970	 0.21634408730847 
971	 0.214250981679542 
972	 0.212531747543353 
973	 0.215085796678863 
974	 0.216911789698668 
975	 0.218476924716378 
976	 0.220856095077894 
977	 0.225313159726835 
978	 0.228398359754045 
979	 0.22246379762729 
980	 0.219523245694487 
981	 0.22111791268871 
982	 0.217193080152752 
983	 0.216284053863917 
984	 0.221192067807076 
985	 0.218771607686602 
986	 0.215604077331681 
987	 0.21955840374794 
988	 0.222208561651332 
989	 0.223047824994834 
990	 0.224351950483285 
991	 0.223903279371614 
992	 0.221550435598645 
993	 0.218567306428256 
994	 0.218120915637251 
995	 0.22008765767724 
996	 0.213150655303139 
997	 0.207649155724375 
998	 0.214150166186865 
999	 0.225881509067861 
1000	 0.233800633543498 
1001	 0.225987725417007 
1002	 0.21780890219158 
1003	 0.215425467912543 
1004	 0.223420185449905 
1005	 0.229013884409613 
1006	 0.226342929521175 
1007	 0.216594996626483 
1008	 0.212902026680392 
1009	 0.223235597368281 
1010	 0.22470675287394 
1011	 0.221639329939236 
1012	 0.224137157952426 
1013	 0.223551570688503 
1014	 0.221935432076746 
1015	 0.229388388790599 
1016	 0.22500058223033 
1017	 0.211004011390992 
1018	 0.223523373380097 
1019	 0.235991697376006 
1020	 0.234533918687031 
1021	 0.235554062727163 
1022	 0.230522172721027 
1023	 0.213101363322576 
1024	 0.21965447522426 
1025	 0.232538535900955 
1026	 0.21364413826476 
1027	 0.204356632767376 
1028	 0.210993159407868 
1029	 0.220368765614619 
1030	 0.219275491327872 
1031	 0.209414792310472 
1032	 0.225649277686536 
1033	 0.236331693379127 
1034	 0.225628958269095 
1035	 0.236779697520089 
1036	 0.242377257713343 
1037	 0.212691400072984 
1038	 0.202859088041026 
1039	 0.215743761856516 
1040	 0.237580460222966 
1041	 0.237271280758884 
1042	 0.220314378404241 
1043	 0.228893547012576 
1044	 0.225995264480321 
1045	 0.208775003916961 
1046	 0.223585295582344 
1047	 0.232432369250139 
1048	 0.212824621704754 
1049	 0.181196210760944 
1050	 0.169624175023432 
1051	 0.203326802332518 
1052	 0.228144735929354 
1053	 0.232267228414161 
1054	 0.211387099867355 
1055	 0.205201391312818 
1056	 0.212489352380771 
1057	 0.208772355978968 
1058	 0.210303203967706 
1059	 0.217145708605117 
1060	 0.212159082982632 
1061	 0.21970468710635 
1062	 0.240237972887151 
1063	 0.212288721575922 
1064	 0.185960675866997 
1065	 0.199285713791713 
1066	 0.239266298397843 
1067	 0.255210927817473 
1068	 0.204307318226744 
1069	 0.192642790245852 
1070	 0.209139617776727 
1071	 0.19809736264154 
1072	 0.177639752637373 
1073	 0.172325327556502 
1074	 0.225475281367843 
1075	 0.210380493795304 
