Wavelength	SHSI00396.asd
325	 7.64091824601212E-02 
326	 7.79958202207954E-02 
327	 7.83014433205077E-02 
328	 8.98281037524155E-02 
329	 9.27598684774661E-02 
330	 8.31403527361348E-02 
331	 7.82296240821752E-02 
332	 7.59465962553958E-02 
333	 7.32031685129808E-02 
334	 7.44649649497214E-02 
335	 7.71998444784714E-02 
336	 7.34985792779293E-02 
337	 7.48864365948973E-02 
338	 8.13520211118091E-02 
339	 7.65790099652978E-02 
340	 7.08556383723122E-02 
341	 0.072611917221258 
342	 7.27363570161635E-02 
343	 7.16591138214675E-02 
344	 7.27553717626425E-02 
345	 7.38222780935407E-02 
346	 7.44776657619473E-02 
347	 0.075988217227481 
348	 7.59152740942601E-02 
349	 7.32081140942013E-02 
350	 7.29748495078661E-02 
351	 7.41504825220716E-02 
352	 7.41697560248308E-02 
353	 7.21480503254959E-02 
354	 6.99592278281789E-02 
355	 7.54080900076321E-02 
356	 7.93343128726753E-02 
357	 7.66163391466618E-02 
358	 0.072402288486982 
359	 7.01453885034497E-02 
360	 7.38152842004655E-02 
361	 0.073764110020973 
362	 7.00661583579403E-02 
363	 7.13645272914777E-02 
364	 7.28393696927341E-02 
365	 7.23017134820197E-02 
366	 7.37318340123383E-02 
367	 7.45187909270881E-02 
368	 7.07704562168749E-02 
369	 6.92861467163103E-02 
370	 7.07640666200945E-02 
371	 7.18101755350165E-02 
372	 7.29345009653518E-02 
373	 7.40426820685267E-02 
374	 7.35730703744393E-02 
375	 7.18817156197097E-02 
376	 0.069707531376744 
377	 6.89299990943009E-02 
378	 6.98311243689283E-02 
379	 7.18676511585501E-02 
380	 7.19592956737572E-02 
381	 6.94204214235004E-02 
382	 0.071096238955495 
383	 7.32294786494497E-02 
384	 7.01689328680518E-02 
385	 6.95823441610628E-02 
386	 7.17069145359578E-02 
387	 7.13898754614467E-02 
388	 7.09252216660425E-02 
389	 7.11104253857797E-02 
390	 7.03269009225797E-02 
391	 6.98207845003674E-02 
392	 7.10901118420242E-02 
393	 7.06164997797043E-02 
394	 6.92251855257799E-02 
395	 7.20304519102109E-02 
396	 7.15400957260202E-02 
397	 6.63869200773132E-02 
398	 6.70997436950305E-02 
399	 0.069424276024104 
400	 6.83588092960839E-02 
401	 6.76160517077547E-02 
402	 6.77324228592816E-02 
403	 6.85465053227519E-02 
404	 6.88180525563429E-02 
405	 0.068173737534402 
406	 6.77268173562711E-02 
407	 6.80595144824026E-02 
408	 6.96894487923902E-02 
409	 6.95993774992388E-02 
410	 6.80509383386665E-02 
411	 6.77790030269638E-02 
412	 6.77646175072016E-02 
413	 6.76538269251892E-02 
414	 6.83009203518152E-02 
415	 6.89666013397408E-02 
416	 6.86525599173703E-02 
417	 6.84180972396521E-02 
418	 6.85334098292074E-02 
419	 6.90702778214986E-02 
420	 6.92794991162708E-02 
421	 6.88986375093157E-02 
422	 6.92676404621758E-02 
423	 6.97596493739887E-02 
424	 6.92665203014636E-02 
425	 0.068856488767093 
426	 6.89390428203732E-02 
427	 7.00106222951187E-02 
428	 7.06203383742019E-02 
429	 6.99379631507129E-02 
430	 6.95079493955947E-02 
431	 0.069420958753776 
432	 6.94411848989157E-02 
433	 6.96146959385747E-02 
434	 6.98345969165677E-02 
435	 6.97355693303512E-02 
436	 6.97818368303501E-02 
437	 7.02078660587753E-02 
438	 7.01770258400236E-02 
439	 6.98742548986169E-02 
440	 6.98292663375628E-02 
441	 0.070036670309558 
442	 7.04190552135178E-02 
443	 7.06418485688005E-02 
444	 0.07066714294853 
445	 7.05239202224733E-02 
446	 7.07734258653935E-02 
447	 7.12157486297694E-02 
448	 7.11905467846642E-02 
449	 7.11651103216428E-02 
450	 0.07129503709059 
451	 7.15449338892513E-02 
452	 7.17971793083539E-02 
453	 7.19296603183841E-02 
454	 7.17941888090824E-02 
455	 7.16455093485527E-02 
456	 7.23114106865935E-02 
457	 7.26032776088051E-02 
458	 7.22168198804906E-02 
459	 7.25099713808999E-02 
460	 7.29752346474555E-02 
461	 7.28998919513967E-02 
462	 7.30204997206459E-02 
463	 7.32960399569207E-02 
464	 0.073073711755651 
465	 7.29147219631335E-02 
466	 7.31049769021331E-02 
467	 7.34840582012597E-02 
468	 7.36742905414989E-02 
469	 0.073171656819731 
470	 7.28371136745291E-02 
471	 7.29191685885958E-02 
472	 0.073410533223863 
473	 0.073677658080273 
474	 7.33911007679124E-02 
475	 7.34495304810867E-02 
476	 7.37878287675955E-02 
477	 7.41035434412812E-02 
478	 7.39973557139572E-02 
479	 7.35820625764513E-02 
480	 7.38643330445562E-02 
481	 7.42821255706028E-02 
482	 7.43647488722848E-02 
483	 7.43857195024066E-02 
484	 7.43929789514943E-02 
485	 7.43894096596576E-02 
486	 7.44413509212121E-02 
487	 0.074577431466994 
488	 7.48064796127197E-02 
489	 0.074924916889537 
490	 0.074757304645207 
491	 7.47694504400873E-02 
492	 7.49597917943325E-02 
493	 7.50820486305232E-02 
494	 7.50751368245351E-02 
495	 7.49718203074941E-02 
496	 7.51577054478576E-02 
497	 7.55626798956827E-02 
498	 7.60498741107818E-02 
499	 0.07597643544305 
500	 7.55535404993509E-02 
501	 7.60613232062402E-02 
502	 7.66675227049746E-02 
503	 7.68798393732462E-02 
504	 7.71022691747466E-02 
505	 7.73802643580774E-02 
506	 7.77335241033134E-02 
507	 7.77650566978924E-02 
508	 7.75363022708616E-02 
509	 7.76602580496663E-02 
510	 7.82798530117255E-02 
511	 7.93978660749912E-02 
512	 7.98808377996085E-02 
513	 7.99562575421953E-02 
514	 0.080653804656726 
515	 0.081252052976723 
516	 8.15401571240097E-02 
517	 8.18223395117883E-02 
518	 8.20447837968155E-02 
519	 8.21428480179461E-02 
520	 8.24547679553375E-02 
521	 0.082961794660147 
522	 8.34128299572418E-02 
523	 8.39372041566977E-02 
524	 8.45745602139814E-02 
525	 8.52434846229412E-02 
526	 8.57578462315316E-02 
527	 8.58691997704859E-02 
528	 8.60639055680633E-02 
529	 8.64702164475252E-02 
530	 8.70475493750293E-02 
531	 8.75264103446128E-02 
532	 8.77687377960904E-02 
533	 8.82709266573063E-02 
534	 8.88588751744344E-02 
535	 8.90416634548678E-02 
536	 8.93059636824609E-02 
537	 8.97403284532115E-02 
538	 9.00294407643254E-02 
539	 9.01189210095832E-02 
540	 0.090003526795846 
541	 9.02591002879621E-02 
542	 9.08367718272428E-02 
543	 9.13069985913662E-02 
544	 9.16356569125049E-02 
545	 9.18306134123784E-02 
546	 9.21601146745775E-02 
547	 9.24857751233071E-02 
548	 9.25963301798107E-02 
549	 9.27242896457388E-02 
550	 9.28905063823566E-02 
551	 9.29203805284294E-02 
552	 9.30893051880863E-02 
553	 9.35339220229882E-02 
554	 9.38446206603397E-02 
555	 9.40268448825757E-02 
556	 9.42130902210173E-02 
557	 9.43183423305968E-02 
558	 9.43596481530158E-02 
559	 9.44948826322115E-02 
560	 9.47061818859651E-02 
561	 9.49523899040476E-02 
562	 9.50062846570646E-02 
563	 9.49141111062855E-02 
564	 9.49018364453053E-02 
565	 9.49476910084919E-02 
566	 0.095000050276364 
567	 9.47121368463946E-02 
568	 9.45173290910303E-02 
569	 9.49923413339432E-02 
570	 9.52487179083267E-02 
571	 0.095122381904786 
572	 9.49037434351457E-02 
573	 9.46634731981399E-02 
574	 9.44710078741632E-02 
575	 9.44102132442666E-02 
576	 9.44260296158372E-02 
577	 9.43963808276289E-02 
578	 9.43901554181956E-02 
579	 9.43957760228261E-02 
580	 9.43030062139851E-02 
581	 9.41563827614485E-02 
582	 9.40088520143848E-02 
583	 9.39679972163237E-02 
584	 9.39999561542801E-02 
585	 9.39638716964007E-02 
586	 9.39373335576521E-02 
587	 0.093928587843965 
588	 9.37758556337549E-02 
589	 9.37462117965421E-02 
590	 0.094189005205646 
591	 9.42557708141113E-02 
592	 9.38916779766359E-02 
593	 9.35995325369874E-02 
594	 9.35046077596221E-02 
595	 9.36586735066177E-02 
596	 9.37529192945759E-02 
597	 9.36759974838517E-02 
598	 9.32840212420129E-02 
599	 9.33651400372545E-02 
600	 9.38784862315782E-02 
601	 9.34779004349716E-02 
602	 9.29304985578147E-02 
603	 0.09294806854459 
604	 9.31091957369069E-02 
605	 9.32928749354596E-02 
606	 0.093420415819949 
607	 9.33877543348445E-02 
608	 9.31813205458163E-02 
609	 9.30264111685313E-02 
610	 9.30010598253404E-02 
611	 9.31642563916603E-02 
612	 9.26215744734198E-02 
613	 9.17013075582743E-02 
614	 9.22571255605463E-02 
615	 9.28180581325178E-02 
616	 9.25096344994021E-02 
617	 9.20792849937238E-02 
618	 9.17779155290788E-02 
619	 9.18570112803047E-02 
620	 9.18870382459135E-02 
621	 9.17634129906995E-02 
622	 9.16560876405889E-02 
623	 9.16314254934035E-02 
624	 9.17331915794156E-02 
625	 9.17766871468675E-02 
626	 9.17409395267414E-02 
627	 9.16940245467317E-02 
628	 9.15193805653951E-02 
629	 9.12690249547368E-02 
630	 9.14970097235784E-02 
631	 9.18371171866207E-02 
632	 9.17844634950787E-02 
633	 9.17717640088811E-02 
634	 9.17756533829185E-02 
635	 9.13869470764918E-02 
636	 9.09654358417847E-02 
637	 0.090769644325288 
638	 9.09704453085562E-02 
639	 9.12580465055176E-02 
640	 9.10572471048356E-02 
641	 9.07940551318136E-02 
642	 9.05938594973483E-02 
643	 9.04054629997011E-02 
644	 9.01309161981598E-02 
645	 8.97205451855255E-02 
646	 8.97600395879476E-02 
647	 9.00140000283635E-02 
648	 8.95945588964899E-02 
649	 8.90641811124463E-02 
650	 8.86904279314737E-02 
651	 8.86144633475166E-02 
652	 8.85777754037934E-02 
653	 8.82601641322259E-02 
654	 0.088166270106466 
655	 8.82731548445403E-02 
656	 8.81249186050541E-02 
657	 8.76895525179929E-02 
658	 8.70668304517231E-02 
659	 8.69173543101636E-02 
660	 8.68836634603163E-02 
661	 8.62760818009581E-02 
662	 8.58075119231787E-02 
663	 8.55263889760912E-02 
664	 8.47279762739703E-02 
665	 8.39361784412214E-02 
666	 8.35833067092652E-02 
667	 8.31582025474974E-02 
668	 8.27136648158606E-02 
669	 8.26107368202595E-02 
670	 8.24558811284398E-02 
671	 8.21435845083895E-02 
672	 8.19483927431638E-02 
673	 8.19211976702602E-02 
674	 8.20817672561751E-02 
675	 8.19532292052092E-02 
676	 8.16867770995902E-02 
677	 8.20778996032231E-02 
678	 8.26166800289092E-02 
679	 8.29884175270523E-02 
680	 8.30721734257605E-02 
681	 8.30849504003355E-02 
682	 8.33694097102562E-02 
683	 8.41524374955195E-02 
684	 8.52348243764691E-02 
685	 8.55200677655719E-02 
686	 8.60718571201712E-02 
687	 8.77603604317204E-02 
688	 8.89051418721496E-02 
689	 8.95278065790147E-02 
690	 9.05856929821701E-02 
691	 9.21167111866695E-02 
692	 9.39842695556646E-02 
693	 9.51671774187215E-02 
694	 9.63268463180853E-02 
695	 9.81212634768771E-02 
696	 0.099542999562928 
697	 0.100767104158145 
698	 0.102962887792711 
699	 0.104768489958615 
700	 0.10564797828154 
701	 0.106947164007264 
702	 0.108471183669687 
703	 0.109752004919452 
704	 0.111097478426191 
705	 0.112429446709955 
706	 0.113212110088671 
707	 0.11393783415158 
708	 0.114913999129519 
709	 0.115859285069932 
710	 0.116721375006195 
711	 0.117465029399252 
712	 0.118309182613284 
713	 0.119183171727476 
714	 0.11948920681746 
715	 0.119597092511795 
716	 0.119903480097253 
717	 0.120612770854053 
718	 0.121627493937033 
719	 0.122274271627342 
720	 0.122794078838204 
721	 0.123219674502821 
722	 0.123342298254436 
723	 0.123634658077707 
724	 0.124600901293732 
725	 0.124642131881669 
726	 0.124039367314284 
727	 0.124941260377445 
728	 0.125687283629688 
729	 0.125558048753999 
730	 0.125747859961901 
731	 0.126126180440746 
732	 0.126334503613189 
733	 0.126469095752471 
734	 0.126560017557559 
735	 0.126572612871296 
736	 0.12683850051149 
737	 0.127512107597728 
738	 0.127878704821414 
739	 0.128096060661327 
740	 0.128683990150084 
741	 0.12900676325131 
742	 0.128973549541956 
743	 0.129135608339412 
744	 0.129098195620789 
745	 0.128593612058957 
746	 0.128719520668695 
747	 0.129331671826782 
748	 0.12968723068096 
749	 0.129614912322924 
750	 0.129185124335715 
751	 0.129342348811462 
752	 0.129603720502924 
753	 0.129411322957105 
754	 0.129527548518608 
755	 0.129878709613149 
756	 0.129841482874745 
757	 0.129648459396542 
758	 0.129440679335621 
759	 0.129627703615743 
760	 0.130360420158759 
761	 0.131119543998913 
762	 0.130985934738645 
763	 0.130373362943409 
764	 0.130498500493304 
765	 0.131026977344553 
766	 0.131637950868829 
767	 0.131648680705054 
768	 0.131430223150849 
769	 0.13142829698879 
770	 0.13156875219921 
771	 0.131758823781442 
772	 0.131710118175845 
773	 0.131542348888112 
774	 0.131387242420618 
775	 0.131597466228421 
776	 0.1320332678058 
777	 0.132388862576526 
778	 0.132271679484694 
779	 0.131772636332772 
780	 0.131820890714041 
781	 0.132067925071981 
782	 0.132226002079887 
783	 0.132503945258882 
784	 0.132912474527366 
785	 0.133492906763197 
786	 0.133453015430144 
787	 0.132821663063868 
788	 0.133130165647722 
789	 0.133635464948204 
790	 0.133586372262691 
791	 0.133490948132773 
792	 0.13331169014497 
793	 0.132639011780095 
794	 0.132577689209536 
795	 0.133354598964715 
796	 0.133918784505769 
797	 0.133953168814315 
798	 0.133291435879296 
799	 0.133262167813914 
800	 0.133797625079054 
801	 0.133909813629721 
802	 0.134146649995804 
803	 0.134608096440302 
804	 0.134810478515193 
805	 0.13480503835141 
806	 0.134676469983824 
807	 0.133960150185288 
808	 0.133177255069405 
809	 0.134041381391287 
810	 0.135006950315823 
811	 0.135301900735572 
812	 0.134775618889349 
813	 0.134261473238262 
814	 0.134859138895049 
815	 0.135263780785271 
816	 0.135247608367858 
817	 0.135250724017299 
818	 0.135145523125017 
819	 0.135052792621321 
820	 0.135849432196048 
821	 0.13665724248331 
822	 0.136400693270772 
823	 0.136229776037738 
824	 0.136340230530037 
825	 0.136567333373209 
826	 0.136272789985103 
827	 0.135502405792153 
828	 0.136526382637249 
829	 0.137564088769809 
830	 0.136287468383914 
831	 0.135781637656403 
832	 0.136188142385169 
833	 0.135692278827423 
834	 0.136030200204008 
835	 0.137454597809759 
836	 0.137070740524642 
837	 0.136090163377833 
838	 0.136158629544059 
839	 0.137298748688953 
840	 0.13861889222356 
841	 0.137557462980109 
842	 0.136483286684807 
843	 0.136459504418002 
844	 0.137047051764597 
845	 0.137804446658185 
846	 0.138223996693049 
847	 0.137198934713508 
848	 0.135637669339579 
849	 0.136865773293273 
850	 0.137669677262038 
851	 0.136993733496226 
852	 0.137038557307837 
853	 0.137304081785973 
854	 0.137087512828858 
855	 0.136504310912074 
856	 0.136065923503798 
857	 0.137006607405049 
858	 0.137741235068141 
859	 0.137832567558845 
860	 0.138242989756987 
861	 0.138276017435851 
862	 0.137370838223727 
863	 0.137819037330699 
864	 0.138885715333807 
865	 0.137782731729927 
866	 0.136890647394825 
867	 0.137023713185919 
868	 0.137828967322869 
869	 0.138467082375938 
870	 0.138325200863747 
871	 0.138281241195446 
872	 0.138583839552907 
873	 0.139453632730632 
874	 0.139917989174556 
875	 0.139810040538601 
876	 0.139897703653108 
877	 0.139906064304818 
878	 0.139639831954742 
879	 0.139193837749023 
880	 0.138719381123193 
881	 0.138408445939934 
882	 0.138451329771466 
883	 0.138791294439179 
884	 0.13903516007696 
885	 0.139232166017725 
886	 0.139461355828656 
887	 0.140216398351273 
888	 0.140699620639691 
889	 0.139849534022587 
890	 0.140135410424218 
891	 0.141209544745892 
892	 0.139870026253898 
893	 0.139373457672778 
894	 0.140827971022096 
895	 0.140737867047521 
896	 0.140325782479592 
897	 0.141231615853695 
898	 0.140589474983638 
899	 0.138959265804492 
900	 0.139115605650225 
901	 0.13986354980115 
902	 0.140674820143699 
903	 0.141166827941455 
904	 0.140928993604252 
905	 0.139909386099617 
906	 0.14060772017457 
907	 0.141916866134812 
908	 0.141193145993135 
909	 0.141052245719244 
910	 0.141876657274333 
911	 0.142083794707602 
912	 0.142468686423776 
913	 0.143225482393038 
914	 0.142606911303965 
915	 0.141533235833265 
916	 0.14130467065232 
917	 0.140651307023942 
918	 0.139957122439257 
919	 0.140863868749874 
920	 0.142106133503067 
921	 0.142798389462611 
922	 0.14108534279136 
923	 0.13964547578813 
924	 0.140873028375199 
925	 0.143113691546588 
926	 0.144493703097792 
927	 0.141523654122524 
928	 0.140382244136115 
929	 0.142635211542598 
930	 0.143785845510059 
931	 0.142240873703089 
932	 0.13717521713569 
933	 0.134232933142008 
934	 0.135967072880094 
935	 0.143550383230243 
936	 0.145732239384238 
937	 0.142519333763096 
938	 0.141786883613141 
939	 0.142551126653673 
940	 0.144781588537976 
941	 0.14944308202953 
942	 0.151806155421588 
943	 0.148512059822168 
944	 0.144382680974177 
945	 0.140594738213521 
946	 0.137867391763578 
947	 0.142094611959373 
948	 0.149467157720651 
949	 0.142606128472865 
950	 0.1408029738144 
951	 0.149123856085126 
952	 0.147525600515652 
953	 0.143311157454373 
954	 0.144147095316337 
955	 0.145110710055546 
956	 0.145129864103108 
957	 0.143482232252196 
958	 0.144905706301022 
959	 0.148965163290112 
960	 0.150965803352225 
961	 0.148660484940514 
962	 0.142876375498243 
963	 0.143477322565797 
964	 0.146876477142837 
965	 0.148606895945353 
966	 0.14816350501837 
967	 0.145946665351046 
968	 0.142705667276051 
969	 0.143325076769512 
970	 0.146838803676974 
971	 0.144710301473619 
972	 0.142042448756547 
973	 0.141802280150845 
974	 0.142542506593389 
975	 0.143799588011838 
976	 0.145061196317047 
977	 0.14513124354105 
978	 0.144470498390248 
979	 0.144578039220311 
980	 0.144786607483237 
981	 0.145113920707044 
982	 0.146494034389033 
983	 0.146375600263393 
984	 0.1442848431865 
985	 0.146578593191481 
986	 0.149212824046702 
987	 0.14766259952207 
988	 0.146914698441016 
989	 0.146768840945538 
990	 0.144921406080936 
991	 0.143827294889792 
992	 0.144483124928929 
993	 0.147928629908502 
994	 0.149945253540423 
995	 0.1488254186883 
996	 0.149526952071803 
997	 0.147725855162696 
998	 0.140109105164233 
999	 0.140126821477518 
1000	 0.144781907246696 
1001	 0.144950232760433 
1002	 0.143831841156053 
1003	 0.142140243683031 
1004	 0.13931526363218 
1005	 0.141187493584537 
1006	 0.148379104771946 
1007	 0.151026081557344 
1008	 0.152659593646364 
1009	 0.155219606900916 
1010	 0.148573472291772 
1011	 0.138395873926891 
1012	 0.134386283920163 
1013	 0.14192688723465 
1014	 0.153145960509775 
1015	 0.145971756224731 
1016	 0.143629505130232 
1017	 0.149429176289072 
1018	 0.14543879277709 
1019	 0.145521460269644 
1020	 0.15412942456219 
1021	 0.147354554387154 
1022	 0.139369759101838 
1023	 0.145826257084127 
1024	 0.156188049981611 
1025	 0.162133689030614 
1026	 0.153528408673307 
1027	 0.152598285375517 
1028	 0.157959915180349 
1029	 0.148738843131552 
1030	 0.134848022830103 
1031	 0.125329694434182 
1032	 0.140362456797047 
1033	 0.155605569975496 
1034	 0.155561196285904 
1035	 0.149432875544512 
1036	 0.142522032058347 
1037	 0.140385361881761 
1038	 0.151662038576674 
1039	 0.164889376263243 
1040	 0.157514474199476 
1041	 0.150116938055822 
1042	 0.147222381743049 
1043	 0.145714719521681 
1044	 0.149190820293593 
1045	 0.155733640957502 
1046	 0.153002776937545 
1047	 0.148210447731756 
1048	 0.146904732269398 
1049	 0.151807111740721 
1050	 0.155166743509908 
1051	 0.150219860878231 
1052	 0.149013124937381 
1053	 0.152244247296923 
1054	 0.157330775758171 
1055	 0.160378272749232 
1056	 0.15931142433273 
1057	 0.15201668494948 
1058	 0.145307487338617 
1059	 0.143703528567702 
1060	 0.155332239333926 
1061	 0.155786424446935 
1062	 0.139036549306561 
1063	 0.132615131461405 
1064	 0.141240600318008 
1065	 0.162888180450898 
1066	 0.163137622883137 
1067	 0.156760220340748 
1068	 0.162130094774458 
1069	 0.148996349111727 
1070	 0.136381538135615 
1071	 0.162600417919254 
1072	 0.183813795025793 
1073	 0.189222308601062 
1074	 0.167483716136683 
1075	 0.174502169149306 
