Wavelength	SHSI00086.asd
325	 0.104859958171785 
326	 0.10494585431824 
327	 0.101688905157889 
328	 0.102698095514975 
329	 0.106315722982052 
330	 0.109160748958514 
331	 9.57440317109925E-02 
332	 8.73640481337464E-02 
333	 0.103270145393609 
334	 0.107431918520623 
335	 0.101681061109217 
336	 0.105202047265027 
337	 0.108520916081925 
338	 0.108809148816145 
339	 0.105496656280768 
340	 0.103823045295851 
341	 0.107503311959896 
342	 0.10853075506603 
343	 0.107266482529619 
344	 0.106969471951498 
345	 0.104773189632271 
346	 0.101649122914422 
347	 0.103644668713523 
348	 0.106267976812137 
349	 0.106439951666471 
350	 0.105775930382592 
351	 0.10572843271416 
352	 0.108240277156273 
353	 0.110012835116517 
354	 0.110240487541885 
355	 0.109461347992519 
356	 0.108438449909754 
357	 0.107896272871255 
358	 0.109442807355364 
359	 0.111369306147319 
360	 0.110904045915678 
361	 0.11110947548856 
362	 0.112244830663273 
363	 0.112806790676041 
364	 0.112246789966095 
365	 0.110583256257182 
366	 0.109767595191454 
367	 0.109450694823318 
368	 0.10885899220926 
369	 0.109703534249202 
370	 0.111117449790518 
371	 0.108808908157453 
372	 0.107910371858935 
373	 0.110431038806551 
374	 0.109545441564274 
375	 0.107135266783995 
376	 0.106751446220975 
377	 0.105763613478762 
378	 0.104480887641805 
379	 0.105835224412902 
380	 0.106535190660705 
381	 0.105310606234506 
382	 0.105825380057214 
383	 0.106361358024978 
384	 0.104294523724038 
385	 0.103512534849367 
386	 0.104175331915707 
387	 0.103750503997042 
388	 0.102883988513418 
389	 0.10198440608351 
390	 0.101739245948491 
391	 0.101746972237241 
392	 0.101469084188801 
393	 0.101110408667772 
394	 0.100822687506414 
395	 0.100868313355261 
396	 0.101353248528945 
397	 0.101904554519089 
398	 0.100496967260985 
399	 9.87160724294796E-02 
400	 9.82357856069315E-02 
401	 9.82523853680471E-02 
402	 9.86436741742977E-02 
403	 9.97447754571609E-02 
404	 9.99901636925498E-02 
405	 0.098940066438289 
406	 9.83455929246957E-02 
407	 9.79011093899513E-02 
408	 9.70379614937526E-02 
409	 9.68394596782904E-02 
410	 9.70942626877552E-02 
411	 9.65473086472518E-02 
412	 9.58047484049884E-02 
413	 9.52441727707205E-02 
414	 9.53042995341061E-02 
415	 9.55390073390853E-02 
416	 9.53335195945855E-02 
417	 9.51258030441626E-02 
418	 9.50206761011435E-02 
419	 9.50378658200867E-02 
420	 9.50384249452483E-02 
421	 9.49179581964673E-02 
422	 9.45295298833288E-02 
423	 9.41359751235869E-02 
424	 9.41197822498885E-02 
425	 9.43090289707067E-02 
426	 0.094483011464038 
427	 0.094053641371124 
428	 9.35682177350815E-02 
429	 9.34118502721256E-02 
430	 9.35341412332063E-02 
431	 9.36930327545356E-02 
432	 9.35400755910512E-02 
433	 9.28555623473218E-02 
434	 9.19398917584122E-02 
435	 9.19329774520422E-02 
436	 0.092231194748816 
437	 0.092407098118915 
438	 9.25809910991995E-02 
439	 9.26618103560334E-02 
440	 9.24464497050948E-02 
441	 9.25437443939807E-02 
442	 9.29314737904879E-02 
443	 9.26133008910289E-02 
444	 9.24644806731122E-02 
445	 9.31462107527017E-02 
446	 9.35579320832904E-02 
447	 9.36986698261686E-02 
448	 9.39944666974865E-02 
449	 9.42564096618587E-02 
450	 9.44528651247302E-02 
451	 9.47019211257169E-02 
452	 9.49474992591667E-02 
453	 9.51310740039364E-02 
454	 9.52700861661797E-02 
455	 9.54538822772174E-02 
456	 9.59498263178205E-02 
457	 9.62282068342829E-02 
458	 9.61469312455079E-02 
459	 9.63410120113401E-02 
460	 9.64947780422845E-02 
461	 9.61944417210865E-02 
462	 9.63211116495152E-02 
463	 9.68533903149853E-02 
464	 9.70699019880224E-02 
465	 9.73079520711349E-02 
466	 9.76865104340493E-02 
467	 9.78165391834137E-02 
468	 9.79489382137157E-02 
469	 9.85022684717813E-02 
470	 9.89029968260106E-02 
471	 9.90842840762562E-02 
472	 9.94257165170631E-02 
473	 9.95746175328907E-02 
474	 9.93912078342107E-02 
475	 9.96327943454417E-02 
476	 0.10012280304506 
477	 0.100373332347765 
478	 0.100613936336407 
479	 0.100825880436212 
480	 0.100729484015177 
481	 0.100534384321473 
482	 0.100445560501283 
483	 0.100724800785789 
484	 0.101150252573027 
485	 0.101081865828379 
486	 0.100993788622545 
487	 0.101094033348341 
488	 0.101529273971101 
489	 0.101833096480887 
490	 0.101574842131301 
491	 0.101698548495007 
492	 0.102196647234749 
493	 0.102525083555092 
494	 0.102859690046927 
495	 0.103223340899423 
496	 0.103363359966 
497	 0.103483484879134 
498	 0.103869206958512 
499	 0.1045046898834 
500	 0.105339275992926 
501	 0.10626298970223 
502	 0.106967861450826 
503	 0.107319135541293 
504	 0.107857522100568 
505	 0.108645248727945 
506	 0.109656888879067 
507	 0.110659059827712 
508	 0.111562655938967 
509	 0.112351246241293 
510	 0.113171876505858 
511	 0.114121815866876 
512	 0.114893219611482 
513	 0.115594373523158 
514	 0.116570118874053 
515	 0.117688339149481 
516	 0.118854080089351 
517	 0.119826313153169 
518	 0.120684044466924 
519	 0.121535404451673 
520	 0.122464624612985 
521	 0.123388219106948 
522	 0.124002106908928 
523	 0.124811287758756 
524	 0.125994164147291 
525	 0.12696418680665 
526	 0.127937367357046 
527	 0.129297085773862 
528	 0.130506674931487 
529	 0.131460258797667 
530	 0.132351896013999 
531	 0.133292596499404 
532	 0.134363927869007 
533	 0.135510647645675 
534	 0.136638328532192 
535	 0.137584095294905 
536	 0.1385009042418 
537	 0.139506333271618 
538	 0.140858647783053 
539	 0.142215153779634 
540	 0.143236258734789 
541	 0.144177513701365 
542	 0.145077242287214 
543	 0.145885133201409 
544	 0.146796457701552 
545	 0.147889420435883 
546	 0.149070815184565 
547	 0.150081799527209 
548	 0.150605185203209 
549	 0.151462119833649 
550	 0.152675843236548 
551	 0.153565585753786 
552	 0.154400160158175 
553	 0.15533280859648 
554	 0.156197960985436 
555	 0.156987758797132 
556	 0.157722371262818 
557	 0.158509630795233 
558	 0.159321419336371 
559	 0.159850831141704 
560	 0.16033329508958 
561	 0.16097810268284 
562	 0.161386844624922 
563	 0.161670797631666 
564	 0.162349032899818 
565	 0.162760318723064 
566	 0.162747032208446 
567	 0.163136059499432 
568	 0.163652179404683 
569	 0.163851619967467 
570	 0.163869032694323 
571	 0.163809050427192 
572	 0.163912731255061 
573	 0.164023025184899 
574	 0.164062689403888 
575	 0.164217787295046 
576	 0.164424043230766 
577	 0.164526907366727 
578	 0.164542214256055 
579	 0.164527136111588 
580	 0.164700173682186 
581	 0.164935324433716 
582	 0.165108489132519 
583	 0.165183106055881 
584	 0.165227199478004 
585	 0.165427619428032 
586	 0.165688387754766 
587	 0.16594326100776 
588	 0.166057001591081 
589	 0.166051010215116 
590	 0.165975499096461 
591	 0.165852443104967 
592	 0.165830832750459 
593	 0.166324679774626 
594	 0.166809920884442 
595	 0.166975634488551 
596	 0.16706083423186 
597	 0.167098541574924 
598	 0.167091925266515 
599	 0.167066617873936 
600	 0.167047021290657 
601	 0.16705929633994 
602	 0.167156909328992 
603	 0.167350567034247 
604	 0.167244521044517 
605	 0.166774597351631 
606	 0.165891882251134 
607	 0.165318526588417 
608	 0.16524313930092 
609	 0.164701540675618 
610	 0.163980951756551 
611	 0.163548898501636 
612	 0.163241560287045 
613	 0.162981155105099 
614	 0.162677723192678 
615	 0.162144057150641 
616	 0.161333132478117 
617	 0.160863940277478 
618	 0.160547359986035 
619	 0.159876418141218 
620	 0.159379450867605 
621	 0.15917259484621 
622	 0.159049357020971 
623	 0.15891274572075 
624	 0.158700139289846 
625	 0.158709523066307 
626	 0.158871298106986 
627	 0.158944630009611 
628	 0.158595990884496 
629	 0.157841047804479 
630	 0.157634926666144 
631	 0.157864133058323 
632	 0.15826180031758 
633	 0.15840971530309 
634	 0.158288834230245 
635	 0.158253159479845 
636	 0.158296333317369 
637	 0.158407209319364 
638	 0.158449372435933 
639	 0.158493709681195 
640	 0.158703022287113 
641	 0.158890430760767 
642	 0.159007143053489 
643	 0.159115067028025 
644	 0.159309994721477 
645	 0.159630127222344 
646	 0.159443412703908 
647	 0.158825199674118 
648	 0.158270757430144 
649	 0.157829081391976 
650	 0.157537878919896 
651	 0.157345770640632 
652	 0.15686078997767 
653	 0.155635126176484 
654	 0.154320815766386 
655	 0.153108035079695 
656	 0.152375414915485 
657	 0.150927740622587 
658	 0.148315603135057 
659	 0.146168989276278 
660	 0.144345988094086 
661	 0.142355264048814 
662	 0.140164219569105 
663	 0.137765881662503 
664	 0.135180364020362 
665	 0.132918601522804 
666	 0.131346967752565 
667	 0.129526487927565 
668	 0.127563336921228 
669	 0.12609277715035 
670	 0.124944049474269 
671	 0.124057396711621 
672	 0.123371486392403 
673	 0.12283094146014 
674	 0.122378430969912 
675	 0.122052651988499 
676	 0.121931679029748 
677	 0.122130991733396 
678	 0.12289647395367 
679	 0.124239901332904 
680	 0.125179274274713 
681	 0.126182786403942 
682	 0.12818739254854 
683	 0.130235481409127 
684	 0.132247474195865 
685	 0.135044394501279 
686	 0.138762187026067 
687	 0.143418484478054 
688	 0.147858412948012 
689	 0.151982170801761 
690	 0.157133752959829 
691	 0.162198093081765 
692	 0.167108328917147 
693	 0.172681151715645 
694	 0.178495513931506 
695	 0.183833592903331 
696	 0.18949273889902 
697	 0.195197803218226 
698	 0.200058721087842 
699	 0.204968374296294 
700	 0.210183905573904 
701	 0.215009051908351 
702	 0.219427458031884 
703	 0.223568796405609 
704	 0.2277729916923 
705	 0.231924751783889 
706	 0.235049791564421 
707	 0.238042052741671 
708	 0.241428944728881 
709	 0.244398618290368 
710	 0.247051473292868 
711	 0.249770197938928 
712	 0.252525190554174 
713	 0.255235622066692 
714	 0.25763701045041 
715	 0.259822106258732 
716	 0.262010573171854 
717	 0.264421414419925 
718	 0.266918970589313 
719	 0.268559387809121 
720	 0.269745860256974 
721	 0.270854645232561 
722	 0.272911031221702 
723	 0.27509364048425 
724	 0.276291370298238 
725	 0.277534717793859 
726	 0.278860031689879 
727	 0.279910747097146 
728	 0.280973717567392 
729	 0.282144760704582 
730	 0.283010838641335 
731	 0.283792488048566 
732	 0.284840630046469 
733	 0.285780771089326 
734	 0.286487278224712 
735	 0.286707277627447 
736	 0.287141710545863 
737	 0.288182122212418 
738	 0.28894475625114 
739	 0.289529958173497 
740	 0.290376946677632 
741	 0.291071272144919 
742	 0.2915237664597 
743	 0.291910311505014 
744	 0.292338209620696 
745	 0.292898413638167 
746	 0.293567978302905 
747	 0.294248788868971 
748	 0.294789328141808 
749	 0.294999719238659 
750	 0.294981045074889 
751	 0.295648079603202 
752	 0.296509010282802 
753	 0.296984490489969 
754	 0.297545323599226 
755	 0.298169775018251 
756	 0.298598182829594 
757	 0.298635660166842 
758	 0.298400931873716 
759	 0.299811740763357 
760	 0.303136810365413 
761	 0.304621206344341 
762	 0.305201305259717 
763	 0.305355755154181 
764	 0.304931104740695 
765	 0.304533525232757 
766	 0.304478320558532 
767	 0.30511025184032 
768	 0.305632319573287 
769	 0.305087361418967 
770	 0.305084956239054 
771	 0.305739724092376 
772	 0.305915589387037 
773	 0.306229592903501 
774	 0.307034103098917 
775	 0.307641528948328 
776	 0.308079258683008 
777	 0.308603690533461 
778	 0.308931658628314 
779	 0.309078772844416 
780	 0.309415189095575 
781	 0.309982344689161 
782	 0.310702117711489 
783	 0.310404999225315 
784	 0.309800603364372 
785	 0.31080747106723 
786	 0.311699444368272 
787	 0.312036844354287 
788	 0.312682960481995 
789	 0.313205004760123 
790	 0.313210103790333 
791	 0.313419632977565 
792	 0.31386881885262 
793	 0.314394141996831 
794	 0.314206221718131 
795	 0.313437089182025 
796	 0.314360000146517 
797	 0.315524683461647 
798	 0.315404144771801 
799	 0.315438041109696 
800	 0.315791522980188 
801	 0.316152066173812 
802	 0.316485988413055 
803	 0.316752368671258 
804	 0.316873271559887 
805	 0.317178603404297 
806	 0.317994994678703 
807	 0.318612632712419 
808	 0.318962676105265 
809	 0.319262348952586 
810	 0.319808750204268 
811	 0.320680046773449 
812	 0.32129425098025 
813	 0.321920595588431 
814	 0.322959196601344 
815	 0.324053338498088 
816	 0.324992058498833 
817	 0.325529287129186 
818	 0.325927175893199 
819	 0.326319246611059 
820	 0.326583000188213 
821	 0.327019950941195 
822	 0.327945807093982 
823	 0.327963895667897 
824	 0.327392869531491 
825	 0.328016067917499 
826	 0.3289305848623 
827	 0.329676275657518 
828	 0.329714878702806 
829	 0.329533433072878 
830	 0.329793158119233 
831	 0.330043978828006 
832	 0.330389390059144 
833	 0.33148728250261 
834	 0.332061019348812 
835	 0.33165081768366 
836	 0.331105537516391 
837	 0.330840926777906 
838	 0.331195862340626 
839	 0.331112112571312 
840	 0.330645172739844 
841	 0.330608624378969 
842	 0.330794672745569 
843	 0.331031419717021 
844	 0.330816995412655 
845	 0.330465966944973 
846	 0.330370004529485 
847	 0.330072462057936 
848	 0.329789983170594 
849	 0.330565507346276 
850	 0.330404275248575 
851	 0.328848852071072 
852	 0.328382079596124 
853	 0.328999320390999 
854	 0.330318454582899 
855	 0.330290923589875 
856	 0.329159427993647 
857	 0.328560431650397 
858	 0.328590269737221 
859	 0.329057940825463 
860	 0.328515949146229 
861	 0.327803441334966 
862	 0.327768049534361 
863	 0.32759180373764 
864	 0.327518389354012 
865	 0.328390127453184 
866	 0.329801043134619 
867	 0.331245163531037 
868	 0.331342257321676 
869	 0.331246896743781 
870	 0.331917786692943 
871	 0.332485151769841 
872	 0.333002953546955 
873	 0.333757482099387 
874	 0.33514541989525 
875	 0.336981994699287 
876	 0.338017919472572 
877	 0.339006936915871 
878	 0.34039637510284 
879	 0.341119389773122 
880	 0.341658851508731 
881	 0.343000715149324 
882	 0.344092628685874 
883	 0.34485158921949 
884	 0.345979550591107 
885	 0.347203256303532 
886	 0.348381107792632 
887	 0.349540159721433 
888	 0.350898536549633 
889	 0.352725119661808 
890	 0.354064986149104 
891	 0.35474447216149 
892	 0.354807978471925 
893	 0.355877199871581 
894	 0.358460881054206 
895	 0.360158381871449 
896	 0.361391506717617 
897	 0.362760241963266 
898	 0.362241584488582 
899	 0.361066588465326 
900	 0.363251087752951 
901	 0.365111448770169 
902	 0.365602845128803 
903	 0.366060999866258 
904	 0.366370490937961 
905	 0.366423033215631 
906	 0.366161677708387 
907	 0.365965814567104 
908	 0.366464205565134 
909	 0.367424752012105 
910	 0.368773782845934 
911	 0.370665964950976 
912	 0.371852115367014 
913	 0.37152765388179 
914	 0.369519344839662 
915	 0.368568462645336 
916	 0.371636219729734 
917	 0.37174115798268 
918	 0.369501760429371 
919	 0.37080650554306 
920	 0.37126185887704 
921	 0.370052960660221 
922	 0.371039534410706 
923	 0.372049159234231 
924	 0.371114866452005 
925	 0.370871189110117 
926	 0.370928169503387 
927	 0.369395884558201 
928	 0.368835407908569 
929	 0.370206417740287 
930	 0.37342897785499 
931	 0.373761724005615 
932	 0.367990371736348 
933	 0.36655374265963 
934	 0.36790148931674 
935	 0.367172437912712 
936	 0.368816816708182 
937	 0.371116106466795 
938	 0.367147981492878 
939	 0.365879058278462 
940	 0.368691110952596 
941	 0.368007668536933 
942	 0.366876016368416 
943	 0.367251114071194 
944	 0.363923656540768 
945	 0.361076323274795 
946	 0.365989896053647 
947	 0.371072046451677 
948	 0.373131989404347 
949	 0.368416997865523 
950	 0.36497480464943 
951	 0.365589968013071 
952	 0.363679862308194 
953	 0.361148339442856 
954	 0.360157361582902 
955	 0.361947353951819 
956	 0.363960962210771 
957	 0.361481830073541 
958	 0.359374794194046 
959	 0.357693696295761 
960	 0.351356522415458 
961	 0.349489341813747 
962	 0.354612121367747 
963	 0.354899563536458 
964	 0.354343016008474 
965	 0.357291126872305 
966	 0.356288852155637 
967	 0.354332753649628 
968	 0.359839352971445 
969	 0.360024980354009 
970	 0.355190560277717 
971	 0.360658643713931 
972	 0.362683903641082 
973	 0.355931143413805 
974	 0.358357827669279 
975	 0.362986887715743 
976	 0.360563999129376 
977	 0.360005660052051 
978	 0.360880874377715 
979	 0.358607010795373 
980	 0.357994964676317 
981	 0.360061950854314 
982	 0.363254120708813 
983	 0.364999727580591 
984	 0.364029485177536 
985	 0.362070367840308 
986	 0.360642954136226 
987	 0.361117114150909 
988	 0.362974091133186 
989	 0.365021284007878 
990	 0.365172816851812 
991	 0.36414730285078 
992	 0.363224119555994 
993	 0.366399096901375 
994	 0.367907647458293 
995	 0.365646041899702 
996	 0.36595018101879 
997	 0.366325883163716 
998	 0.364228566504335 
999	 0.364018727594984 
1000	 0.366164943797479 
1001	 0.370189522549894 
1002	 0.368642831856458 
1003	 0.362980649947897 
1004	 0.36379287443723 
1005	 0.367838801294817 
1006	 0.372703378227665 
1007	 0.373989851959749 
1008	 0.372092089025781 
1009	 0.367839753584137 
1010	 0.362032270138994 
1011	 0.361373862850483 
1012	 0.373535154089346 
1013	 0.380200023127561 
1014	 0.377809921644718 
1015	 0.368161815304634 
1016	 0.362180497678542 
1017	 0.363333553582314 
1018	 0.366532024903771 
1019	 0.36976489241273 
1020	 0.371686989828636 
1021	 0.372832652536835 
1022	 0.374709905402566 
1023	 0.378097122633514 
1024	 0.374683997705622 
1025	 0.369368091813175 
1026	 0.371928078455397 
1027	 0.37437749012239 
1028	 0.375611957491639 
1029	 0.379319496277636 
1030	 0.378515770534007 
1031	 0.372989127002227 
1032	 0.373702317675913 
1033	 0.375377669939109 
1034	 0.374637139154779 
1035	 0.373891278218891 
1036	 0.373131905542461 
1037	 0.372530974536235 
1038	 0.376446168240549 
1039	 0.3808420030668 
1040	 0.377668480345963 
1041	 0.376595561970371 
1042	 0.379942649140488 
1043	 0.388711471604576 
1044	 0.381986158892226 
1045	 0.361020159759836 
1046	 0.366113805037654 
1047	 0.373416741565396 
1048	 0.369689408311519 
1049	 0.372429789420653 
1050	 0.380644844147381 
1051	 0.389655033118412 
1052	 0.369749184259274 
1053	 0.347625425077827 
1054	 0.369306868666311 
1055	 0.377866414868629 
1056	 0.369977335016068 
1057	 0.368650990392046 
1058	 0.370128150677646 
1059	 0.372941166251687 
1060	 0.372375611882899 
1061	 0.380106407404182 
1062	 0.39338497960006 
1063	 0.373415738052876 
1064	 0.349575030256397 
1065	 0.345684809235035 
1066	 0.348498792156987 
1067	 0.354968412784002 
1068	 0.362880679074955 
1069	 0.361263761977606 
1070	 0.353487929386718 
1071	 0.348692932615 
1072	 0.361710070280407 
1073	 0.379099265548256 
1074	 0.360096578678156 
1075	 0.352712405537606 
