Wavelength	SHSI00301.asd
325	 9.28364002240603E-02 
326	 9.39086246136548E-02 
327	 8.33455362288364E-02 
328	 8.77229880427434E-02 
329	 8.71426025961304E-02 
330	 7.78029298584583E-02 
331	 7.87092693897413E-02 
332	 8.48536306821901E-02 
333	 8.99323273137077E-02 
334	 8.64301146567843E-02 
335	 7.79595959838711E-02 
336	 7.47683728328048E-02 
337	 7.64117870618893E-02 
338	 8.15594843084665E-02 
339	 8.49791170359074E-02 
340	 8.52628699567457E-02 
341	 8.20902790114722E-02 
342	 8.08332396361325E-02 
343	 8.17939225370691E-02 
344	 8.41503872219102E-02 
345	 8.29929958605056E-02 
346	 7.92079445765874E-02 
347	 8.14663049086392E-02 
348	 8.36337754951593E-02 
349	 8.17290721301581E-02 
350	 7.97820843069588E-02 
351	 7.91280432223919E-02 
352	 8.10200131766118E-02 
353	 8.17017978686246E-02 
354	 8.06191374654757E-02 
355	 7.92728702484955E-02 
356	 7.94301492780198E-02 
357	 8.18002480815778E-02 
358	 8.37154535071786E-02 
359	 0.084076032827697 
360	 8.18716726289297E-02 
361	 8.03623331168626E-02 
362	 8.01073731876171E-02 
363	 7.95148514136774E-02 
364	 8.01139353196393E-02 
365	 0.082093994876021 
366	 0.081638109115054 
367	 7.98476996098514E-02 
368	 0.078662800770341 
369	 7.79881077561879E-02 
370	 7.78526374942964E-02 
371	 7.81790854091678E-02 
372	 7.86858767530938E-02 
373	 7.91304681644346E-02 
374	 7.92678441434523E-02 
375	 7.89323697567529E-02 
376	 7.79753375445333E-02 
377	 7.77843348401057E-02 
378	 7.83502202100452E-02 
379	 7.85123807122655E-02 
380	 0.078199481865285 
381	 7.74366441817192E-02 
382	 7.65972073268462E-02 
383	 7.63398303072686E-02 
384	 7.74168858931701E-02 
385	 7.76855331651623E-02 
386	 7.72936784461953E-02 
387	 7.86150622505746E-02 
388	 7.91346740657687E-02 
389	 7.79903970440955E-02 
390	 7.73805257886561E-02 
391	 7.69661040386399E-02 
392	 7.61362494126777E-02 
393	 7.66548135641443E-02 
394	 7.79468979124596E-02 
395	 7.75166366325359E-02 
396	 0.076500521780544 
397	 0.075651187916662 
398	 7.61155954149707E-02 
399	 7.67515471710487E-02 
400	 7.63705665963403E-02 
401	 7.64946031813444E-02 
402	 7.68901789146285E-02 
403	 7.61875748743691E-02 
404	 7.61075153475806E-02 
405	 7.70429202969166E-02 
406	 7.68008771096727E-02 
407	 7.62614838941275E-02 
408	 7.67099585106783E-02 
409	 7.71835149864288E-02 
410	 7.73637108085564E-02 
411	 7.69810510925396E-02 
412	 7.65940772264996E-02 
413	 7.65063632755949E-02 
414	 7.67939810302873E-02 
415	 7.69312499919286E-02 
416	 7.62637550540528E-02 
417	 7.57903588998621E-02 
418	 7.57840584113443E-02 
419	 0.076269317377436 
420	 0.076860583792092 
421	 7.72900268777419E-02 
422	 7.74383843771918E-02 
423	 7.74319205684786E-02 
424	 7.74729531689287E-02 
425	 7.75897710103209E-02 
426	 7.76585948418244E-02 
427	 7.70917812385989E-02 
428	 7.69570140236037E-02 
429	 7.77981276847014E-02 
430	 7.80796403674638E-02 
431	 7.78991915155055E-02 
432	 7.77626201243622E-02 
433	 7.79931504311805E-02 
434	 7.84072345762681E-02 
435	 0.077973526738607 
436	 7.74979108807338E-02 
437	 7.75268443937155E-02 
438	 7.78340934181043E-02 
439	 7.82169499121558E-02 
440	 7.83890357016886E-02 
441	 7.83746832502572E-02 
442	 7.82810261038473E-02 
443	 7.85277830692237E-02 
444	 7.88473802013445E-02 
445	 7.89937163590802E-02 
446	 7.88062609049958E-02 
447	 7.85542946712234E-02 
448	 7.88830181836458E-02 
449	 7.92556647681189E-02 
450	 7.94697302537626E-02 
451	 7.95106159439263E-02 
452	 7.95305703473603E-02 
453	 7.96792310272905E-02 
454	 7.98191814839442E-02 
455	 8.00023433313428E-02 
456	 8.05255846269636E-02 
457	 8.05768755799025E-02 
458	 8.00164967107458E-02 
459	 8.01932006920523E-02 
460	 0.080536123761775 
461	 8.02618469818782E-02 
462	 8.04848015949372E-02 
463	 8.10431316862436E-02 
464	 8.06037729327498E-02 
465	 8.04808045645518E-02 
466	 8.11911844004003E-02 
467	 8.12404740883239E-02 
468	 8.10205505576218E-02 
469	 0.081345473911995 
470	 8.14798769068924E-02 
471	 8.13295467620315E-02 
472	 8.11906939460868E-02 
473	 8.12918051962696E-02 
474	 8.17334281167307E-02 
475	 8.20654386211766E-02 
476	 8.22461560715683E-02 
477	 8.23546019531643E-02 
478	 8.20516456431432E-02 
479	 8.15206085440975E-02 
480	 8.18721243815587E-02 
481	 8.22849946154975E-02 
482	 8.21302407116593E-02 
483	 8.24078989488909E-02 
484	 0.082905927500485 
485	 8.26955928516966E-02 
486	 8.26938042090402E-02 
487	 8.31087009798127E-02 
488	 8.31694894789599E-02 
489	 8.31353271437414E-02 
490	 8.33127714444107E-02 
491	 8.34813973800073E-02 
492	 8.35485377103001E-02 
493	 8.33339640618085E-02 
494	 8.33064264707246E-02 
495	 8.36421889787659E-02 
496	 8.40078236873338E-02 
497	 8.42739967836356E-02 
498	 8.43256592167816E-02 
499	 8.44091523731248E-02 
500	 8.46285244050563E-02 
501	 8.51211621369914E-02 
502	 8.54498291481328E-02 
503	 0.085386486441986 
504	 8.54130225456026E-02 
505	 0.085552776134265 
506	 0.085713173641019 
507	 8.61032308019078E-02 
508	 8.66553393907866E-02 
509	 8.69083759961697E-02 
510	 8.70248510039043E-02 
511	 8.71555739735003E-02 
512	 0.087347382302144 
513	 8.76248634703649E-02 
514	 8.80333178448159E-02 
515	 8.83460057314533E-02 
516	 8.84866217072943E-02 
517	 8.85242495274138E-02 
518	 8.88024898573201E-02 
519	 8.96319702505382E-02 
520	 9.00319064549195E-02 
521	 9.00321234469295E-02 
522	 9.02888735777928E-02 
523	 9.06185379233953E-02 
524	 9.09468542992736E-02 
525	 9.12428297306346E-02 
526	 9.15759884307126E-02 
527	 9.20580165370984E-02 
528	 9.21570815888619E-02 
529	 9.19487329256884E-02 
530	 0.092116443541452 
531	 9.26393393673588E-02 
532	 0.093418168264733 
533	 9.36872498773325E-02 
534	 9.36525326696898E-02 
535	 9.39622027441373E-02 
536	 9.41869070129784E-02 
537	 0.094260445988449 
538	 9.44495637601428E-02 
539	 9.47438687447486E-02 
540	 9.51064458593672E-02 
541	 9.52885307902833E-02 
542	 9.53796367880019E-02 
543	 9.57915917333759E-02 
544	 9.60673150155549E-02 
545	 9.60480070400923E-02 
546	 9.60075581435372E-02 
547	 9.60855204635491E-02 
548	 9.64193003677819E-02 
549	 9.68955164355747E-02 
550	 9.73338146800085E-02 
551	 9.72613575601351E-02 
552	 9.72358566961978E-02 
553	 9.75966546211149E-02 
554	 9.80249653459206E-02 
555	 9.82874820141412E-02 
556	 9.80232109427963E-02 
557	 9.79301235502327E-02 
558	 9.81966607673149E-02 
559	 9.85016092263793E-02 
560	 9.87295742988166E-02 
561	 9.87928570233756E-02 
562	 9.88212400817942E-02 
563	 9.88826970248858E-02 
564	 9.90684029122115E-02 
565	 9.93111364842856E-02 
566	 9.95254536786185E-02 
567	 9.93891044935897E-02 
568	 9.92627824411538E-02 
569	 0.099632537522806 
570	 9.98132675432263E-02 
571	 9.97126534495251E-02 
572	 9.96263463622342E-02 
573	 9.96233842262613E-02 
574	 9.97446350664136E-02 
575	 9.99006269983201E-02 
576	 9.99895508935278E-02 
577	 9.98453752018062E-02 
578	 9.98337229348408E-02 
579	 0.100004543487347 
580	 0.10001660810068 
581	 9.99612437517582E-02 
582	 9.99359521741072E-02 
583	 9.99800034343452E-02 
584	 0.100083320805496 
585	 0.100194657835979 
586	 0.100342652054899 
587	 0.100473707732159 
588	 0.100199688876547 
589	 9.99611114677733E-02 
590	 0.100364888593827 
591	 0.100669572415116 
592	 0.100660345877409 
593	 0.10025366682568 
594	 0.100119700765467 
595	 0.100563430781304 
596	 0.100502632431952 
597	 0.10027025161636 
598	 0.100712209845933 
599	 0.101093431816561 
600	 0.101207091726393 
601	 0.101244773990162 
602	 0.101113915313206 
603	 0.100779651236699 
604	 0.100922779253727 
605	 0.101276823936261 
606	 0.100800925293073 
607	 0.100522639241448 
608	 0.100784308362949 
609	 0.100997369704867 
610	 0.101032235487242 
611	 0.10080168190218 
612	 0.100773088904142 
613	 0.100867026776616 
614	 0.100349433333142 
615	 0.100031763461928 
616	 0.100317302944923 
617	 0.10008964503545 
618	 9.97389727487937E-02 
619	 0.100204083634606 
620	 0.100660497320915 
621	 0.100816234064096 
622	 0.100572300290804 
623	 0.100330340158901 
624	 0.100442356234822 
625	 0.100521699834209 
626	 0.100523942414656 
627	 0.100496850913507 
628	 0.100673334542894 
629	 0.101005955955765 
630	 0.100591023572345 
631	 0.100106719046928 
632	 0.100470455511833 
633	 0.10057925878572 
634	 0.100388921839307 
635	 0.10067125266488 
636	 0.100910847170639 
637	 0.100824057652132 
638	 0.100726594340973 
639	 0.100747503578856 
640	 0.101074738234004 
641	 0.10089957416324 
642	 0.100286729008015 
643	 0.100719719378488 
644	 0.101155514376056 
645	 0.100689748899858 
646	 0.100449309887607 
647	 0.100537709524007 
648	 0.100696902616666 
649	 0.100670313641863 
650	 0.100384632925207 
651	 0.100205256687336 
652	 0.100061798626175 
653	 9.98299945816005E-02 
654	 9.96240469489817E-02 
655	 9.94765859107689E-02 
656	 9.94410865453792E-02 
657	 9.93705885756431E-02 
658	 9.91525736146559E-02 
659	 9.86773371259022E-02 
660	 9.80861135885429E-02 
661	 9.76060472034569E-02 
662	 9.71731158942665E-02 
663	 9.67823402036641E-02 
664	 9.65208207790784E-02 
665	 9.59787993206613E-02 
666	 9.48996258453719E-02 
667	 9.44460609784888E-02 
668	 9.45537789195922E-02 
669	 0.094586269068916 
670	 9.44017839494826E-02 
671	 9.39993138810629E-02 
672	 9.38939883892652E-02 
673	 9.40105044074536E-02 
674	 0.094203293310317 
675	 9.42273804971938E-02 
676	 9.41210723218078E-02 
677	 9.42000314831189E-02 
678	 9.43263189371338E-02 
679	 0.094465295318708 
680	 9.49044601256939E-02 
681	 9.54048443578439E-02 
682	 9.55355971847135E-02 
683	 9.58870701066508E-02 
684	 9.65843304232519E-02 
685	 9.74541318661452E-02 
686	 9.82810330754999E-02 
687	 9.88981328314538E-02 
688	 9.99647160730091E-02 
689	 0.101218123780496 
690	 0.102021339729745 
691	 0.102952202938826 
692	 0.104133931457389 
693	 0.105093350574843 
694	 0.106142909476531 
695	 0.107547697881897 
696	 0.108323177281658 
697	 0.108647466994078 
698	 0.109554061219306 
699	 0.110518338157354 
700	 0.111274844108937 
701	 0.111807342700677 
702	 0.112296649842521 
703	 0.112992325370593 
704	 0.113909662254509 
705	 0.114796593315978 
706	 0.114757620339049 
707	 0.11479544207598 
708	 0.115492234165585 
709	 0.115781155644817 
710	 0.115942686179126 
711	 0.116816297866179 
712	 0.117174267574472 
713	 0.11689428724036 
714	 0.117270180974632 
715	 0.117664948484883 
716	 0.117504624486664 
717	 0.117956814772826 
718	 0.118852846201494 
719	 0.118719775876125 
720	 0.11848503969844 
721	 0.118533615525841 
722	 0.118772208743104 
723	 0.119106837239652 
724	 0.119428006638579 
725	 0.119530049176411 
726	 0.119509387297365 
727	 0.119858117256284 
728	 0.120209876663762 
729	 0.120403562813107 
730	 0.120729495736245 
731	 0.120972601903338 
732	 0.12081810664772 
733	 0.120600836129711 
734	 0.120492764154982 
735	 0.120723822533486 
736	 0.121123666554013 
737	 0.121532060761858 
738	 0.121717249525114 
739	 0.121792914295036 
740	 0.12205474454521 
741	 0.12212504988006 
742	 0.122018795259583 
743	 0.1222812258018 
744	 0.12263305827777 
745	 0.12281304128249 
746	 0.122775015596479 
747	 0.122677299147053 
748	 0.12293392544804 
749	 0.123090617220825 
750	 0.123066238445525 
751	 0.12338795118455 
752	 0.123664371967445 
753	 0.123467610978313 
754	 0.123325759170665 
755	 0.123332473011756 
756	 0.123433350936075 
757	 0.123433054442642 
758	 0.123276584800711 
759	 0.123387573860077 
760	 0.123962173813106 
761	 0.124781085991937 
762	 0.12484253963897 
763	 0.124366775124413 
764	 0.124351044905135 
765	 0.124485927824686 
766	 0.124659867889821 
767	 0.125061934338057 
768	 0.125281019007258 
769	 0.124782610147568 
770	 0.124695615218122 
771	 0.125140046268828 
772	 0.125461247240213 
773	 0.125702843672551 
774	 0.125862421353695 
775	 0.125725601641437 
776	 0.125512009955916 
777	 0.125655698539358 
778	 0.125795030729517 
779	 0.125826274981546 
780	 0.125797547940552 
781	 0.125782702976005 
782	 0.125850944618466 
783	 0.126073241610753 
784	 0.126358391139115 
785	 0.126492829525155 
786	 0.126669778865206 
787	 0.126879847513082 
788	 0.12678772310808 
789	 0.126596703375265 
790	 0.126551322329291 
791	 0.127124347452897 
792	 0.127884052258032 
793	 0.127581446020242 
794	 0.127284073092603 
795	 0.127285518295651 
796	 0.126907376769323 
797	 0.126852172234096 
798	 0.127745432592896 
799	 0.127576583735461 
800	 0.126753004982567 
801	 0.127508734984263 
802	 0.128186179022688 
803	 0.128194625800837 
804	 0.128034768810491 
805	 0.127976137879996 
806	 0.128264633805153 
807	 0.128766114761623 
808	 0.129145165376233 
809	 0.128497516067225 
810	 0.128121927905651 
811	 0.128498594973258 
812	 0.128591606559399 
813	 0.12860356529399 
814	 0.128901569540789 
815	 0.129192049265749 
816	 0.129362204317423 
817	 0.129328335001878 
818	 0.129266178880227 
819	 0.129295315204368 
820	 0.129533804492927 
821	 0.129783016084684 
822	 0.129813302454399 
823	 0.130406177273673 
824	 0.131157664094648 
825	 0.130433091908488 
826	 0.130085959422617 
827	 0.130752542694267 
828	 0.131107997404634 
829	 0.130961212798936 
830	 0.130277202598557 
831	 0.130265701290144 
832	 0.130808399778179 
833	 0.130690608445023 
834	 0.130702663003878 
835	 0.131044993629903 
836	 0.130838686386609 
837	 0.130716801282935 
838	 0.131419705812069 
839	 0.131358176446995 
840	 0.130753047604803 
841	 0.131266317820417 
842	 0.131615550133779 
843	 0.131311836496386 
844	 0.130864830321123 
845	 0.130622272515458 
846	 0.13089930423511 
847	 0.131020059030227 
848	 0.131052753674512 
849	 0.131752799611006 
850	 0.131811848907207 
851	 0.130943805051296 
852	 0.130883508359044 
853	 0.131317181826664 
854	 0.131728304366203 
855	 0.131942976724611 
856	 0.131883939088702 
857	 0.131445847467703 
858	 0.131412110397999 
859	 0.131847917936578 
860	 0.131514789177526 
861	 0.13105242060973 
862	 0.131137370911159 
863	 0.131654449163539 
864	 0.132182560805176 
865	 0.131738602724386 
866	 0.131732050669588 
867	 0.132367568731467 
868	 0.132113647207164 
869	 0.132008991965565 
870	 0.13279868677413 
871	 0.132607528578339 
872	 0.132061625749381 
873	 0.132956167050494 
874	 0.133287188813345 
875	 0.132770661156614 
876	 0.132933802875302 
877	 0.13287646407919 
878	 0.132132647679976 
879	 0.132418179500379 
880	 0.13333691880772 
881	 0.133899200425995 
882	 0.133231703741336 
883	 0.132057197344312 
884	 0.133960357936737 
885	 0.135207789816422 
886	 0.133966746224979 
887	 0.133273116797112 
888	 0.133474457710779 
889	 0.134523130683236 
890	 0.134643441645686 
891	 0.133951910348326 
892	 0.13431235029956 
893	 0.134798340930967 
894	 0.135031163741354 
895	 0.135380977108587 
896	 0.135533025187169 
897	 0.135177131475603 
898	 0.135891613400409 
899	 0.137091445056275 
900	 0.136571644890567 
901	 0.135648639508218 
902	 0.134998549495888 
903	 0.135540754108882 
904	 0.135857582862719 
905	 0.135044032590967 
906	 0.135751474893871 
907	 0.136953017515574 
908	 0.136137309203035 
909	 0.136303534566566 
910	 0.137323655633536 
911	 0.135059416421592 
912	 0.134282619655357 
913	 0.137075319420819 
914	 0.137494235316509 
915	 0.136791315723663 
916	 0.137198534831028 
917	 0.136118195540413 
918	 0.134447480768842 
919	 0.135965054752963 
920	 0.137121346827947 
921	 0.136871263661636 
922	 0.136948767203435 
923	 0.136660140777833 
924	 0.135510218091297 
925	 0.136135948458123 
926	 0.137495060155391 
927	 0.136325256465539 
928	 0.134066434456745 
929	 0.132179878273198 
930	 0.134944809926015 
931	 0.139470573589762 
932	 0.142249925389069 
933	 0.137109686541217 
934	 0.130404766126523 
935	 0.133096249196991 
936	 0.135285320937404 
937	 0.135407382877225 
938	 0.135558429227891 
939	 0.137940948027035 
940	 0.141652714701055 
941	 0.139115609094133 
942	 0.137461801469566 
943	 0.141006536730563 
944	 0.137592158360279 
945	 0.133076333101902 
946	 0.139112241004389 
947	 0.143033698623584 
948	 0.141574238166601 
949	 0.134789041702174 
950	 0.131923852794651 
951	 0.136275592511138 
952	 0.140503720479626 
953	 0.142342385055768 
954	 0.140389935768365 
955	 0.134185889358214 
956	 0.129473576162495 
957	 0.136172746176794 
958	 0.140253082714133 
959	 0.138727508831336 
960	 0.135162376179488 
961	 0.134641489913374 
962	 0.138336154653499 
963	 0.136829283164208 
964	 0.136252167209998 
965	 0.142246546275936 
966	 0.139988711338172 
967	 0.134073378461411 
968	 0.138474984501428 
969	 0.141006458389704 
970	 0.139323253082373 
971	 0.13755981136449 
972	 0.137742778549688 
973	 0.140052446721698 
974	 0.137389554093649 
975	 0.134630966960184 
976	 0.137543670582673 
977	 0.139092652903419 
978	 0.139115799460409 
979	 0.140181422299193 
980	 0.14262177300192 
981	 0.145100781905813 
982	 0.142792999363249 
983	 0.139032718939256 
984	 0.13675148738121 
985	 0.140088640839458 
986	 0.144159635898362 
987	 0.143723522671951 
988	 0.143876775048293 
989	 0.144844635385451 
990	 0.145492760501358 
991	 0.142067335912933 
992	 0.13578486877867 
993	 0.134596104384369 
994	 0.137621982085483 
995	 0.143171987890288 
996	 0.14472691939121 
997	 0.143785993214713 
998	 0.142408283682035 
999	 0.139479974785256 
1000	 0.136284945533386 
1001	 0.134994133827976 
1002	 0.136703205717102 
1003	 0.140419197352105 
1004	 0.142168870276349 
1005	 0.144204778411944 
1006	 0.14658212646377 
1007	 0.145298576052642 
1008	 0.143200197587825 
1009	 0.142637091537877 
1010	 0.141738211129321 
1011	 0.142123557487558 
1012	 0.145873196483742 
1013	 0.142218317927808 
1014	 0.134173528333405 
1015	 0.133907602270715 
1016	 0.139424871570978 
1017	 0.14759950996211 
1018	 0.148930412871925 
1019	 0.148156509989813 
1020	 0.147144598458695 
1021	 0.13820387939246 
1022	 0.135667035306725 
1023	 0.151686372985027 
1024	 0.150445720707594 
1025	 0.140474292002696 
1026	 0.145634352410513 
1027	 0.152318446298219 
1028	 0.154903072957539 
1029	 0.145535604890924 
1030	 0.14532786826047 
1031	 0.156384622794269 
1032	 0.150442405380242 
1033	 0.142998358858655 
1034	 0.14410035638806 
1035	 0.150663367169069 
1036	 0.155035025288286 
1037	 0.150561340063393 
1038	 0.148620990397553 
1039	 0.148139449070424 
1040	 0.143710783282453 
1041	 0.146690470644901 
1042	 0.154041359883511 
1043	 0.14727079165787 
1044	 0.146584290013273 
1045	 0.15506743063488 
1046	 0.153842465457134 
1047	 0.148776480334425 
1048	 0.144712856852816 
1049	 0.146896108010707 
1050	 0.152774164440568 
1051	 0.157860701029859 
1052	 0.144414158848602 
1053	 0.132136759724211 
1054	 0.154535774813337 
1055	 0.155982101322464 
1056	 0.134252566427931 
1057	 0.113433475942221 
1058	 0.120620711412572 
1059	 0.150593149736573 
1060	 0.149227327614751 
1061	 0.154043806040059 
1062	 0.172627892760179 
1063	 0.151986508465138 
1064	 0.137537416924301 
1065	 0.159640507373594 
1066	 0.163270582876022 
1067	 0.145228700157714 
1068	 0.11494903710225 
1069	 0.131649250358103 
1070	 0.159588540607685 
1071	 0.130006184599889 
1072	 0.110463173945074 
1073	 0.113550330590411 
1074	 0.121532328904147 
1075	 0.139487042508662 
