Wavelength	SHSI00096.asd
325	 0.107150550892389 
326	 0.105807128537219 
327	 0.103909972582837 
328	 0.106165768145687 
329	 0.108698127090893 
330	 0.108863002397469 
331	 9.97413261685763E-02 
332	 9.49985661700998E-02 
333	 0.106550170965836 
334	 0.106607869271387 
335	 9.94846146056995E-02 
336	 0.107041929030781 
337	 0.11235746278164 
338	 0.111030867369889 
339	 0.107134720077889 
340	 0.105230410459012 
341	 0.108229119331279 
342	 0.106818497768643 
343	 0.104037348187661 
344	 0.108613810562001 
345	 0.109499907216073 
346	 0.106011647684227 
347	 0.107585859757952 
348	 0.109077987724684 
349	 0.107200608601977 
350	 0.105696168166763 
351	 0.105718549753555 
352	 0.108232938626037 
353	 0.110569026188382 
354	 0.111989153023706 
355	 0.113045980204923 
356	 0.113091085766624 
357	 0.11198552550762 
358	 0.111617164700973 
359	 0.111784822921154 
360	 0.111766127876525 
361	 0.11251230555619 
362	 0.11350192893934 
363	 0.112494325743455 
364	 0.110961375641839 
365	 0.109984075283329 
366	 0.110884034610372 
367	 0.112025811643597 
368	 0.111113240214143 
369	 0.111298802703772 
370	 0.112452903032158 
371	 0.111589552610558 
372	 0.111254117097562 
373	 0.112323505923936 
374	 0.110707911428769 
375	 0.108512303228829 
376	 0.10911394025065 
377	 0.108714362225942 
378	 0.107322668687774 
379	 0.108025885499806 
380	 0.108356000221799 
381	 0.107248731750987 
382	 0.106386755622734 
383	 0.105981396488571 
384	 0.106074542673188 
385	 0.105598450991478 
386	 0.104835259169551 
387	 0.105708142247754 
388	 0.105319690448038 
389	 0.103030590786526 
390	 0.103277429063301 
391	 0.104343327864913 
392	 0.103827541427175 
393	 0.103324861853275 
394	 0.103039173467769 
395	 0.102581866580973 
396	 0.102464101917187 
397	 0.102619427588677 
398	 0.10151565631545 
399	 0.100321622858538 
400	 0.100256826766866 
401	 0.100223639381386 
402	 0.100193262798073 
403	 0.100705501163789 
404	 0.101006555165507 
405	 0.100753120321662 
406	 9.99807549959969E-02 
407	 9.91336207962931E-02 
408	 9.87328318613625E-02 
409	 0.097951244938704 
410	 9.70488439881488E-02 
411	 9.72814043478408E-02 
412	 0.097500413018552 
413	 9.72259403165263E-02 
414	 9.72427721542582E-02 
415	 9.72124995092282E-02 
416	 9.66245823277578E-02 
417	 0.095989261408781 
418	 9.56306497221368E-02 
419	 9.61881214214909E-02 
420	 9.64576616522457E-02 
421	 9.58878969587781E-02 
422	 0.09564159350798 
423	 9.56116858060871E-02 
424	 9.54346390179452E-02 
425	 9.55567753897826E-02 
426	 9.57695173321309E-02 
427	 9.48786167849564E-02 
428	 9.43247305449037E-02 
429	 9.49301514128338E-02 
430	 9.52870698264217E-02 
431	 9.50205961718814E-02 
432	 9.38493287618382E-02 
433	 9.31494504387457E-02 
434	 9.31700884083779E-02 
435	 9.31663838039434E-02 
436	 0.093286368512983 
437	 9.35853900408361E-02 
438	 9.36492059727368E-02 
439	 9.35629534830937E-02 
440	 9.35982573214897E-02 
441	 9.36263111478457E-02 
442	 9.35941453646662E-02 
443	 9.33521847905714E-02 
444	 9.33933512378187E-02 
445	 9.40588574110084E-02 
446	 9.45185699895073E-02 
447	 9.47845294356516E-02 
448	 9.52480983344383E-02 
449	 9.55319016252914E-02 
450	 9.55614032533409E-02 
451	 9.55685712697615E-02 
452	 9.57841983441346E-02 
453	 9.63993798660278E-02 
454	 9.70056122845871E-02 
455	 9.73741573531905E-02 
456	 9.71217044275181E-02 
457	 0.097018399834793 
458	 9.73429085950066E-02 
459	 9.75756660152028E-02 
460	 0.097728014851524 
461	 9.78594450672646E-02 
462	 9.76229615174598E-02 
463	 9.73024061272322E-02 
464	 9.79413277151743E-02 
465	 9.88058658553222E-02 
466	 9.94390841603273E-02 
467	 9.96246472008152E-02 
468	 9.95642025054938E-02 
469	 9.95989585452477E-02 
470	 9.97117960922415E-02 
471	 9.99394187773455E-02 
472	 0.100373888688244 
473	 0.100730721641188 
474	 0.100860231460024 
475	 0.101180376628785 
476	 0.101529398086098 
477	 0.101527915041069 
478	 0.101547021866488 
479	 0.101645276980485 
480	 0.101559506328305 
481	 0.101519450552734 
482	 0.101713784086136 
483	 0.102023843450833 
484	 0.102360642182542 
485	 0.102583153387509 
486	 0.102723680060629 
487	 0.10277853678371 
488	 0.102694525354802 
489	 0.102653195920963 
490	 0.102822080556163 
491	 0.102775373199184 
492	 0.102746946030144 
493	 0.10367428190517 
494	 0.104175923637227 
495	 0.10384934281097 
496	 0.104256319271962 
497	 0.105066384524584 
498	 0.105666460457102 
499	 0.10626873100058 
500	 0.106881462821809 
501	 0.10741165685097 
502	 0.108008866565714 
503	 0.108722169511153 
504	 0.109159303661066 
505	 0.109625773582906 
506	 0.110700749117814 
507	 0.11183650493943 
508	 0.112797747647857 
509	 0.113328006213462 
510	 0.113926669631089 
511	 0.114964953027902 
512	 0.115873572845167 
513	 0.116638633743918 
514	 0.117392924433729 
515	 0.118497827654461 
516	 0.119976141875968 
517	 0.121172234669005 
518	 0.121983390169812 
519	 0.12239834619872 
520	 0.123264382716558 
521	 0.124459713046237 
522	 0.125136127620547 
523	 0.125895748040636 
524	 0.126988712290004 
525	 0.128113325858224 
526	 0.129191729255027 
527	 0.13015132255616 
528	 0.131118514801357 
529	 0.13212354590009 
530	 0.13316668355726 
531	 0.134246681188832 
532	 0.135363524601139 
533	 0.136469455157646 
534	 0.137550975382444 
535	 0.138607220151003 
536	 0.139551155766486 
537	 0.140470093680208 
538	 0.141887162007498 
539	 0.14324383471453 
540	 0.1440039096214 
541	 0.144888894579041 
542	 0.145902862231335 
543	 0.146628336230174 
544	 0.147549527554589 
545	 0.148806220685766 
546	 0.149885406511958 
547	 0.150876192096236 
548	 0.151956794028701 
549	 0.152739805173245 
550	 0.153337098675143 
551	 0.154431169836973 
552	 0.155614469588742 
553	 0.156606286240684 
554	 0.157392711898518 
555	 0.158091190982779 
556	 0.158939574077123 
557	 0.159637160038833 
558	 0.160165916480389 
559	 0.1609099787168 
560	 0.161607645547089 
561	 0.162016150639215 
562	 0.162341065068053 
563	 0.162733508294006 
564	 0.163527890152843 
565	 0.163990430865365 
566	 0.163954227453393 
567	 0.164488350419685 
568	 0.165099157642822 
569	 0.165044275519613 
570	 0.165049058627052 
571	 0.165253829657525 
572	 0.165494815631838 
573	 0.16564988094504 
574	 0.165669023777006 
575	 0.165838577419832 
576	 0.166065546467142 
577	 0.166105822694528 
578	 0.166149008441371 
579	 0.166225630848564 
580	 0.166172982699211 
581	 0.166222861444314 
582	 0.166561763881945 
583	 0.166814868904772 
584	 0.167001148714549 
585	 0.167399403677265 
586	 0.167629276076137 
587	 0.167577642133254 
588	 0.167592568170733 
589	 0.167663157899723 
590	 0.167729017336997 
591	 0.167828928486311 
592	 0.167962501108283 
593	 0.168092420474155 
594	 0.168295144200539 
595	 0.168613732606558 
596	 0.169047213133969 
597	 0.169371515706213 
598	 0.16921037346229 
599	 0.169026522961293 
600	 0.168965721733624 
601	 0.168915808843379 
602	 0.168982556326364 
603	 0.169225491380941 
604	 0.169246961095167 
605	 0.168921769274568 
606	 0.168086848370025 
607	 0.167397058903481 
608	 0.167085129244428 
609	 0.166629656341766 
610	 0.166132955095327 
611	 0.165776325823695 
612	 0.165141418630224 
613	 0.164301778616383 
614	 0.163858756941975 
615	 0.163368320947667 
616	 0.162613154370458 
617	 0.162109026281497 
618	 0.161833319622993 
619	 0.161624814160647 
620	 0.161334742425849 
621	 0.160932690701487 
622	 0.160535641720514 
623	 0.160288741365335 
624	 0.16031782644526 
625	 0.160580041031412 
626	 0.160774295615551 
627	 0.16014655084247 
628	 0.159685342825817 
629	 0.159749007549818 
630	 0.159763756310805 
631	 0.159808660729292 
632	 0.160035458970964 
633	 0.160033075205892 
634	 0.159847186555626 
635	 0.159962916019075 
636	 0.160120405197465 
637	 0.160158907507614 
638	 0.160070530223275 
639	 0.160037398917641 
640	 0.160389307096324 
641	 0.160677978059831 
642	 0.160789831350007 
643	 0.16092856035738 
644	 0.161101379956695 
645	 0.161277623331818 
646	 0.160962742528895 
647	 0.160418902060099 
648	 0.16066132878824 
649	 0.160433804311768 
650	 0.159429590410621 
651	 0.158983900033222 
652	 0.158644074620961 
653	 0.157736074867555 
654	 0.156526539038729 
655	 0.155137983724115 
656	 0.154141019787158 
657	 0.152523184455393 
658	 0.149926839228509 
659	 0.147696402638487 
660	 0.145770506697202 
661	 0.143853991300597 
662	 0.141582255156685 
663	 0.138945074385156 
664	 0.136390357615221 
665	 0.134123138327541 
666	 0.132283172331784 
667	 0.130521598632608 
668	 0.128846783253641 
669	 0.127424347453908 
670	 0.126243567528674 
671	 0.125267642338774 
672	 0.124297485752262 
673	 0.123522473681558 
674	 0.123165097245446 
675	 0.123118359973752 
676	 0.123323857212117 
677	 0.123679360821324 
678	 0.124281571334051 
679	 0.125166331715686 
680	 0.126181319434994 
681	 0.127430324624593 
682	 0.129101506938621 
683	 0.131011504465696 
684	 0.133218311396681 
685	 0.136197521453806 
686	 0.140026711094998 
687	 0.144670471503737 
688	 0.149130341138177 
689	 0.15324937016925 
690	 0.158164106337065 
691	 0.163115177588007 
692	 0.168121714121898 
693	 0.173822448995261 
694	 0.179728542033261 
695	 0.185054388124567 
696	 0.190435084058517 
697	 0.195802492200653 
698	 0.200912656468182 
699	 0.205932230137493 
700	 0.210826000581529 
701	 0.215490443436268 
702	 0.219897896508607 
703	 0.224072423385652 
704	 0.227962012239327 
705	 0.231557870642617 
706	 0.234608888832271 
707	 0.237563185181591 
708	 0.240697917373603 
709	 0.243666357098887 
710	 0.246491216626426 
711	 0.249334892168784 
712	 0.25186497579477 
713	 0.254041423605154 
714	 0.256289767586055 
715	 0.258293621197425 
716	 0.259874577676174 
717	 0.261844545524853 
718	 0.264287791164488 
719	 0.266480517776618 
720	 0.268007845499014 
721	 0.268948615447781 
722	 0.270651294450719 
723	 0.272631764400885 
724	 0.274149092548033 
725	 0.275256667914608 
726	 0.276048726776672 
727	 0.277064382316133 
728	 0.27826447543264 
729	 0.279542274678557 
730	 0.28025719036527 
731	 0.28077513113902 
732	 0.281693412157285 
733	 0.2822743559669 
734	 0.28255693047025 
735	 0.283133182025892 
736	 0.283877104876563 
737	 0.284692680552277 
738	 0.285685830778497 
739	 0.286700262173525 
740	 0.287475464790596 
741	 0.287755607949292 
742	 0.287727028383349 
743	 0.288509001073902 
744	 0.289363827651945 
745	 0.289665219480219 
746	 0.289951154063049 
747	 0.290334308144844 
748	 0.290843954829722 
749	 0.291497549504522 
750	 0.29221018656228 
751	 0.292561733270152 
752	 0.292776181101467 
753	 0.293134143601417 
754	 0.2938110542307 
755	 0.294587026782654 
756	 0.2947860983815 
757	 0.294596002401772 
758	 0.294305603013665 
759	 0.295806878181706 
760	 0.299313761580291 
761	 0.300701733595501 
762	 0.300767922699635 
763	 0.30056203198029 
764	 0.301059181691109 
765	 0.301319146851073 
766	 0.301147810628618 
767	 0.301257722254556 
768	 0.301411357480362 
769	 0.301269781651619 
770	 0.301406708129745 
771	 0.301848763802995 
772	 0.302127936552218 
773	 0.302538540954818 
774	 0.303236431365463 
775	 0.30380272830827 
776	 0.304266980945136 
777	 0.304834638345501 
778	 0.304996294381799 
779	 0.304843722411251 
780	 0.305382635125335 
781	 0.306109367105249 
782	 0.306578165180937 
783	 0.306706271996581 
784	 0.306770419655494 
785	 0.30740707854773 
786	 0.307918050068128 
787	 0.308138317910952 
788	 0.308464161804952 
789	 0.308858621662309 
790	 0.309250851399586 
791	 0.309404021994958 
792	 0.309433541161481 
793	 0.309764327178294 
794	 0.30982319465222 
795	 0.309624042189718 
796	 0.31033605266076 
797	 0.311025158215653 
798	 0.31075306308192 
799	 0.31080842376102 
800	 0.311239039168176 
801	 0.31145781620365 
802	 0.311692211546061 
803	 0.312028177267916 
804	 0.312499413606212 
805	 0.313021692908335 
806	 0.313512454886098 
807	 0.314143017126297 
808	 0.314809210464339 
809	 0.315141596148284 
810	 0.31530630317952 
811	 0.315467922120999 
812	 0.316068538563817 
813	 0.317081180434807 
814	 0.318369922817775 
815	 0.31905280534419 
816	 0.319204654736722 
817	 0.319962675701011 
818	 0.320719221033909 
819	 0.321249359632551 
820	 0.321811708879608 
821	 0.322455457476662 
822	 0.323181966851764 
823	 0.323052560462372 
824	 0.322474057969211 
825	 0.323152507900623 
826	 0.323963992489777 
827	 0.32450968804044 
828	 0.325344066067531 
829	 0.325870815930932 
830	 0.325371598802523 
831	 0.325644587872835 
832	 0.326504482597515 
833	 0.326190620119112 
834	 0.325985992453654 
835	 0.326300487183572 
836	 0.326129386801783 
837	 0.325964321323695 
838	 0.326396467098109 
839	 0.325794207338637 
840	 0.324730685341259 
841	 0.325891143725843 
842	 0.326657065697328 
843	 0.326045106854727 
844	 0.325427336485773 
845	 0.325156904550156 
846	 0.325467170544513 
847	 0.325485762259055 
848	 0.325150532603396 
849	 0.32483300940819 
850	 0.32474887321942 
851	 0.324978125375328 
852	 0.325313503561821 
853	 0.325406990470483 
854	 0.324941288971271 
855	 0.32437785692061 
856	 0.324008336746464 
857	 0.324394434232208 
858	 0.323965303159229 
859	 0.322657915516135 
860	 0.323070627971578 
861	 0.323996454201602 
862	 0.324153885451178 
863	 0.323980192895364 
864	 0.323803449197037 
865	 0.324217132777891 
866	 0.324852246617936 
867	 0.325498878490855 
868	 0.325900029366844 
869	 0.326103578920938 
870	 0.326250331086418 
871	 0.327125343462561 
872	 0.328508723288445 
873	 0.329736761783015 
874	 0.330857354336733 
875	 0.331881388658159 
876	 0.333004373174573 
877	 0.333778883149459 
878	 0.334062720062541 
879	 0.335350186390982 
880	 0.337333411283695 
881	 0.339183630563655 
882	 0.339575084813127 
883	 0.339041446085439 
884	 0.340824663085115 
885	 0.342683624296387 
886	 0.343499989705573 
887	 0.344970990265617 
888	 0.346344764167566 
889	 0.346467504504488 
890	 0.347964655368498 
891	 0.3502179431921 
892	 0.349054527125035 
893	 0.348746604156216 
894	 0.351021699527758 
895	 0.352677053926001 
896	 0.354119977873797 
897	 0.355957971461208 
898	 0.356028281355218 
899	 0.355016492292809 
900	 0.355746960664882 
901	 0.356565897934949 
902	 0.357163836673169 
903	 0.358631652680737 
904	 0.359703909499951 
905	 0.359534144547873 
906	 0.359992462197967 
907	 0.360840571342351 
908	 0.361125408836129 
909	 0.362143476903215 
910	 0.363606101613805 
911	 0.362931960041468 
912	 0.362872094849396 
913	 0.364632619157214 
914	 0.36463205164539 
915	 0.364229022453517 
916	 0.365429820293891 
917	 0.365599830266751 
918	 0.364948100676573 
919	 0.365637484738874 
920	 0.36536808809422 
921	 0.364003435525501 
922	 0.365191884688856 
923	 0.3657088084479 
924	 0.362872138260104 
925	 0.362407218522067 
926	 0.363434432406387 
927	 0.361754684904823 
928	 0.361530458567351 
929	 0.363160754696871 
930	 0.360883595974059 
931	 0.359004792210063 
932	 0.360919074192613 
933	 0.361918066602245 
934	 0.361836751018699 
935	 0.361692147309943 
936	 0.366343220397377 
937	 0.371996847646859 
938	 0.366300690839879 
939	 0.362050566141746 
940	 0.362535985657104 
941	 0.362609519371985 
942	 0.360397378751546 
943	 0.355659370729531 
944	 0.358415731710738 
945	 0.363795050826574 
946	 0.362135657341232 
947	 0.359243951798188 
948	 0.35690971929257 
949	 0.35666561572128 
950	 0.354714246355329 
951	 0.350779109886756 
952	 0.353127202138338 
953	 0.354902820164497 
954	 0.349948941721539 
955	 0.344031150870591 
956	 0.341861076156461 
957	 0.349767498680577 
958	 0.353156431791164 
959	 0.349588851180591 
960	 0.344222494821742 
961	 0.34372263937697 
962	 0.349483203333567 
963	 0.350069412008758 
964	 0.349424435606489 
965	 0.351769097495409 
966	 0.348657780654187 
967	 0.343793690561338 
968	 0.346935024620213 
969	 0.348275454906453 
970	 0.346044646770622 
971	 0.34397742453392 
972	 0.343838635810823 
973	 0.346419933238724 
974	 0.349833537787544 
975	 0.352666136562674 
976	 0.353596814786773 
977	 0.353914103754826 
978	 0.353427749713703 
979	 0.350885771684298 
980	 0.351784188931749 
981	 0.355805418415289 
982	 0.355091089933481 
983	 0.35530498218881 
984	 0.358383489790751 
985	 0.35590712522369 
986	 0.352662633325109 
987	 0.354136620569677 
988	 0.354015658434288 
989	 0.353062767391861 
990	 0.355044482346457 
991	 0.356446958390274 
992	 0.357278431528973 
993	 0.361970245305313 
994	 0.361986285607519 
995	 0.354732270841531 
996	 0.351976936015407 
997	 0.352120836409798 
998	 0.35276290528829 
999	 0.357457590509734 
1000	 0.362067650060615 
1001	 0.358618370810558 
1002	 0.357262421573016 
1003	 0.358728592649269 
1004	 0.355490814070088 
1005	 0.358368771334312 
1006	 0.368211032097154 
1007	 0.366637029619439 
1008	 0.359955197827752 
1009	 0.354734018342797 
1010	 0.355571047652889 
1011	 0.359179222738597 
1012	 0.360039083686089 
1013	 0.363582689202517 
1014	 0.367472945408044 
1015	 0.363912084240616 
1016	 0.358962685795817 
1017	 0.356468179706117 
1018	 0.362808977185573 
1019	 0.366544208492402 
1020	 0.362905247262278 
1021	 0.365170174490639 
1022	 0.368522197530133 
1023	 0.367308534853295 
1024	 0.365531211446175 
1025	 0.364020525014764 
1026	 0.362872385124682 
1027	 0.36495770811605 
1028	 0.36801228466542 
1029	 0.362592749709169 
1030	 0.363599845322871 
1031	 0.373026075937525 
1032	 0.374753434767375 
1033	 0.371398773043478 
1034	 0.366367544863414 
1035	 0.367019781889878 
1036	 0.372549832525093 
1037	 0.380229659017174 
1038	 0.38449784252916 
1039	 0.381532376544229 
1040	 0.367370053158732 
1041	 0.356900412078482 
1042	 0.356527123399241 
1043	 0.372646304025791 
1044	 0.379359044261672 
1045	 0.3708426524883 
1046	 0.363733110165612 
1047	 0.360520583034008 
1048	 0.36261969599935 
1049	 0.368068880400107 
1050	 0.37214611806514 
1051	 0.370218992713105 
1052	 0.359537313053202 
1053	 0.348189173313888 
1054	 0.348579984175825 
1055	 0.353306025343338 
1056	 0.357430964727491 
1057	 0.353712777338114 
1058	 0.356744813612876 
1059	 0.365096137759501 
1060	 0.354576508498019 
1061	 0.356471929505095 
1062	 0.375684077973102 
1063	 0.361925690087503 
1064	 0.345361131550413 
1065	 0.348586261733164 
1066	 0.347458012393136 
1067	 0.343822019851018 
1068	 0.341099117846302 
1069	 0.327088314252842 
1070	 0.319437591782504 
1071	 0.346646379862649 
1072	 0.344495667922746 
1073	 0.315020121394917 
1074	 0.304529527336686 
1075	 0.286146425928101 
