Wavelength	SHSI00201.asd
325	 0.122127022653066 
326	 0.107897030225646 
327	 9.05979863865774E-02 
328	 9.64778087776912E-02 
329	 0.100788125424204 
330	 9.55812044832684E-02 
331	 9.24522698821084E-02 
332	 9.27129473961652E-02 
333	 9.65314362906086E-02 
334	 9.98334560609147E-02 
335	 0.103017546869515 
336	 0.110516354800394 
337	 0.111336687994127 
338	 0.104142746584407 
339	 9.79573650761366E-02 
340	 0.097865777690212 
341	 0.106028357327015 
342	 0.106256676817742 
343	 0.102798552082192 
344	 0.108901938207335 
345	 0.111079969420425 
346	 0.107868077513351 
347	 0.107565615225358 
348	 0.108537721914948 
349	 0.109337644134291 
350	 0.108539850669004 
351	 0.108326379928048 
352	 0.112688158407085 
353	 0.112170132394033 
354	 0.107771534735482 
355	 0.112194538906767 
356	 0.116846365305017 
357	 0.116512109046207 
358	 0.115329794332923 
359	 0.114177052361501 
360	 0.11348704025927 
361	 0.114600978460585 
362	 0.116141950920922 
363	 0.112615575276908 
364	 0.109757818072731 
365	 0.110562479688309 
366	 0.112635851681704 
367	 0.11480669338072 
368	 0.115866561211946 
369	 0.116177338271412 
370	 0.116307670157567 
371	 0.117592539556449 
372	 0.120078944763061 
373	 0.123027545930533 
374	 0.122098623264916 
375	 0.118592527361015 
376	 0.115006520395118 
377	 0.113885434005619 
378	 0.1151733941995 
379	 0.116472213681641 
380	 0.116804464557468 
381	 0.116100663434902 
382	 0.118583168037398 
383	 0.120586778506163 
384	 0.1169559363234 
385	 0.115167291077608 
386	 0.115460134646552 
387	 0.112637340122777 
388	 0.110719689751867 
389	 0.111001184453993 
390	 0.109819079491826 
391	 0.108905090551942 
392	 0.110589827631466 
393	 0.111888043759969 
394	 0.111972112634528 
395	 0.110634503362707 
396	 0.109201005464562 
397	 0.108198680814995 
398	 0.106959438116352 
399	 0.105717943640143 
400	 0.104740897193221 
401	 0.105908930417259 
402	 0.10844934458377 
403	 0.109914233180246 
404	 0.110216379941726 
405	 0.109673804441046 
406	 0.110831967838899 
407	 0.111890585775303 
408	 0.110449928043672 
409	 0.108809134017585 
410	 0.107798713015044 
411	 0.108054031361266 
412	 0.108665078342513 
413	 0.109061291204344 
414	 0.10882170756682 
415	 0.108501213593027 
416	 0.108862695395069 
417	 0.108720962157447 
418	 0.108181005840668 
419	 0.108509228790991 
420	 0.108521185001525 
421	 0.107801881443365 
422	 0.108228342449164 
423	 0.109061933105564 
424	 0.108944161367431 
425	 0.108928856524021 
426	 0.109181223803527 
427	 0.109281778904671 
428	 0.109593986111558 
429	 0.110177146145289 
430	 0.109714912131574 
431	 0.108499721266538 
432	 0.107284940055468 
433	 0.106483501707685 
434	 0.106282240720087 
435	 0.106672333917044 
436	 0.107499300626871 
437	 0.108532772114051 
438	 0.108806367768361 
439	 0.108665420494482 
440	 0.109027024727111 
441	 0.109243214708698 
442	 0.109210075053664 
443	 0.109123028031148 
444	 0.109641859383454 
445	 0.111154269262172 
446	 0.111880879920299 
447	 0.111944224299704 
448	 0.112305392530536 
449	 0.11278133696521 
450	 0.113322821400098 
451	 0.113726014071088 
452	 0.114405868292825 
453	 0.115722414479264 
454	 0.116461008087828 
455	 0.116596500311578 
456	 0.116840262847057 
457	 0.116720999922623 
458	 0.116279425267409 
459	 0.116664837450384 
460	 0.117413101151472 
461	 0.117859347045396 
462	 0.118076760882938 
463	 0.118213156081342 
464	 0.118690279026343 
465	 0.119290968309916 
466	 0.119919279893635 
467	 0.120876142476366 
468	 0.121401148704703 
469	 0.120381595264539 
470	 0.120127214785245 
471	 0.120925673635323 
472	 0.121402864431671 
473	 0.121770950938001 
474	 0.122166939874582 
475	 0.122706652295763 
476	 0.123172833208232 
477	 0.123153089815933 
478	 0.123239424387221 
479	 0.123530790487623 
480	 0.123530142690932 
481	 0.123901850045761 
482	 0.125109658890176 
483	 0.12594414817224 
484	 0.126286797167206 
485	 0.126420808490017 
486	 0.126357158761445 
487	 0.126126922832024 
488	 0.125747801920886 
489	 0.125188927134518 
490	 0.124482639251607 
491	 0.125045637764763 
492	 0.126427797948345 
493	 0.126733856750874 
494	 0.126791687318931 
495	 0.127040586767168 
496	 0.127945120535104 
497	 0.129168162651211 
498	 0.130218220356007 
499	 0.1307289303925 
500	 0.130878062507399 
501	 0.131650386153688 
502	 0.132396866842304 
503	 0.132744519799968 
504	 0.133047463092799 
505	 0.13340923006832 
506	 0.133878966054943 
507	 0.134795784443438 
508	 0.136234563509341 
509	 0.138089391154142 
510	 0.139785408346208 
511	 0.140905450792355 
512	 0.142078184038411 
513	 0.143433049942633 
514	 0.145089760130022 
515	 0.146158537230979 
516	 0.146508548705478 
517	 0.147480379591358 
518	 0.148529747869695 
519	 0.148987488305403 
520	 0.14944282990083 
521	 0.150246549026784 
522	 0.15201587957207 
523	 0.153693907730067 
524	 0.154857632739427 
525	 0.156275390597016 
526	 0.157765408380232 
527	 0.158964751283223 
528	 0.159550549189076 
529	 0.159892109476057 
530	 0.161456147358425 
531	 0.163391932220595 
532	 0.165045173294014 
533	 0.166049128122182 
534	 0.166646774616499 
535	 0.16741301057397 
536	 0.168311872854782 
537	 0.169437361712464 
538	 0.171110158957261 
539	 0.172720144145857 
540	 0.173676820884489 
541	 0.174425822020439 
542	 0.175179163809383 
543	 0.176222193521031 
544	 0.177353529413474 
545	 0.178468359128533 
546	 0.179452829805741 
547	 0.180470752600701 
548	 0.181742825392868 
549	 0.182799509925039 
550	 0.18353066269804 
551	 0.183961560192724 
552	 0.184547209233268 
553	 0.185597731709469 
554	 0.187034928885177 
555	 0.188489889530019 
556	 0.18933557178922 
557	 0.190149858788548 
558	 0.191025104668434 
559	 0.191530894291519 
560	 0.191900108311891 
561	 0.192385095439775 
562	 0.193209157120075 
563	 0.194208211437102 
564	 0.19488981884919 
565	 0.195306687537968 
566	 0.195530857147181 
567	 0.195953136920659 
568	 0.196465981104444 
569	 0.196881849487161 
570	 0.19702484228036 
571	 0.196986972023946 
572	 0.197198125321364 
573	 0.197597145802965 
574	 0.198151064427884 
575	 0.198878967216225 
576	 0.199538842318542 
577	 0.199702812244607 
578	 0.199866176671695 
579	 0.200153915984515 
580	 0.200312068345414 
581	 0.200572708140723 
582	 0.201124864586626 
583	 0.20162068294171 
584	 0.202011868158353 
585	 0.202356627780143 
586	 0.202712859013876 
587	 0.203070894460207 
588	 0.20320198364345 
589	 0.203212755084823 
590	 0.203269747406126 
591	 0.203615945635541 
592	 0.204110664841196 
593	 0.204100088565925 
594	 0.204151999361886 
595	 0.204586547372433 
596	 0.205098880342825 
597	 0.205577777532862 
598	 0.205919927974178 
599	 0.206138152071951 
600	 0.206255260984082 
601	 0.206379358387123 
602	 0.206378627474674 
603	 0.206182874285077 
604	 0.206461545113844 
605	 0.207039362734124 
606	 0.207249191832136 
607	 0.207004421179661 
608	 0.206357327388536 
609	 0.20601329000565 
610	 0.2058869908545 
611	 0.20577420927058 
612	 0.205286110472202 
613	 0.204467825300981 
614	 0.20378578987547 
615	 0.20336282744113 
616	 0.203225382313536 
617	 0.202805352690954 
618	 0.202282936104888 
619	 0.2020707499972 
620	 0.202344332791187 
621	 0.20287452872814 
622	 0.202450411569545 
623	 0.20190288119029 
624	 0.201985893549439 
625	 0.201855600542543 
626	 0.201696762768075 
627	 0.202360419847197 
628	 0.203204033176564 
629	 0.203826497186862 
630	 0.203659945582561 
631	 0.203256919312363 
632	 0.203356962191566 
633	 0.202975698011655 
634	 0.20233837551737 
635	 0.202866194303446 
636	 0.203531082364007 
637	 0.203811207074622 
638	 0.204880800433175 
639	 0.206015168463802 
640	 0.205671468826357 
641	 0.205501201751958 
642	 0.205848208112616 
643	 0.205740780323085 
644	 0.205702561945455 
645	 0.206199476634517 
646	 0.206838819994427 
647	 0.207302215668998 
648	 0.207005413404711 
649	 0.206563456667429 
650	 0.20620474083171 
651	 0.205627764945042 
652	 0.204979001644805 
653	 0.204442045713697 
654	 0.203633977667578 
655	 0.202278570481296 
656	 0.200089111359353 
657	 0.197478339215558 
658	 0.194972367968073 
659	 0.193351828562983 
660	 0.192006973338485 
661	 0.189924156876282 
662	 0.187432041636093 
663	 0.184725606199828 
664	 0.18231404323564 
665	 0.179771600426607 
666	 0.176841394223345 
667	 0.175131780236648 
668	 0.174257253658617 
669	 0.17263200819264 
670	 0.170751189495395 
671	 0.168966378698228 
672	 0.168338675053453 
673	 0.168199601250929 
674	 0.167686308543965 
675	 0.167485514822885 
676	 0.167723324034799 
677	 0.16836289944883 
678	 0.16904256829449 
679	 0.16962942770119 
680	 0.170668483981639 
681	 0.17225112452387 
682	 0.174387397247563 
683	 0.177309030703765 
684	 0.180891667564175 
685	 0.184693506102808 
686	 0.188716324618318 
687	 0.192997970035349 
688	 0.19903944633305 
689	 0.205584838440716 
690	 0.210656280884026 
691	 0.215858029450514 
692	 0.221904577911136 
693	 0.229117667817665 
694	 0.23641489915231 
695	 0.242381152729231 
696	 0.248382434179334 
697	 0.254586835602273 
698	 0.261055349404558 
699	 0.266691348910042 
700	 0.271104119031887 
701	 0.276501372751607 
702	 0.281962117966967 
703	 0.2859546530205 
704	 0.289567219503699 
705	 0.293135162205129 
706	 0.296538915472336 
707	 0.30013454365219 
708	 0.304020918396623 
709	 0.307151253484623 
710	 0.309723596690594 
711	 0.312323575290768 
712	 0.315270765685213 
713	 0.318411762725997 
714	 0.320555558073486 
715	 0.322388541369813 
716	 0.324705848916927 
717	 0.327262895160123 
718	 0.330010054655161 
719	 0.332673886102409 
720	 0.333936944093563 
721	 0.333958733425999 
722	 0.335533072159259 
723	 0.33791530008923 
724	 0.34004455545608 
725	 0.341575914904394 
726	 0.342587088206673 
727	 0.344093942828359 
728	 0.345642202743042 
729	 0.347043497504265 
730	 0.348616201521499 
731	 0.350096068291949 
732	 0.351105830316374 
733	 0.351892584173986 
734	 0.352611806943602 
735	 0.353425178644978 
736	 0.354395290234767 
737	 0.355540396726127 
738	 0.356946797382376 
739	 0.358175509445838 
740	 0.358382694560448 
741	 0.35890876898053 
742	 0.359998747697095 
743	 0.360698451873385 
744	 0.36144182727547 
745	 0.362588361354268 
746	 0.363581590253374 
747	 0.36432533366601 
748	 0.364781378750694 
749	 0.36559703234043 
750	 0.36687730457927 
751	 0.367757010875883 
752	 0.36835885985391 
753	 0.36889378763941 
754	 0.369480150842977 
755	 0.370207413290867 
756	 0.371567555559785 
757	 0.370955289456642 
758	 0.367750462066773 
759	 0.368229588418455 
760	 0.373665468915895 
761	 0.379897317249811 
762	 0.382157228437216 
763	 0.381523308913183 
764	 0.384034807736568 
765	 0.385320748651529 
766	 0.38429604807475 
767	 0.383386078549197 
768	 0.382940600815426 
769	 0.38317730623947 
770	 0.383320333648385 
771	 0.383428872831561 
772	 0.384403881518282 
773	 0.38573481852556 
774	 0.386971427148441 
775	 0.38744628785417 
776	 0.38757585275468 
777	 0.388302535749108 
778	 0.388962276832732 
779	 0.389512231625579 
780	 0.390635403023995 
781	 0.391515420979659 
782	 0.391592875083308 
783	 0.392214218901404 
784	 0.39328293142887 
785	 0.394121434772255 
786	 0.394806069720544 
787	 0.395358670237065 
788	 0.395839527139845 
789	 0.396470802830263 
790	 0.397425728882346 
791	 0.398296308481631 
792	 0.399045985435575 
793	 0.399832741122861 
794	 0.400343016915758 
795	 0.40064716519517 
796	 0.401712736388865 
797	 0.402635803437676 
798	 0.40253595170878 
799	 0.40279313392865 
800	 0.403697581443217 
801	 0.405348537989463 
802	 0.406468418149741 
803	 0.406610957373026 
804	 0.406737872416343 
805	 0.40690869532224 
806	 0.407141201758693 
807	 0.408184902765441 
808	 0.409693007765096 
809	 0.410225985596187 
810	 0.410900994694555 
811	 0.411947552436137 
812	 0.411622552989754 
813	 0.411267957353606 
814	 0.41280868876965 
815	 0.414894540956696 
816	 0.417203429239335 
817	 0.420159013897398 
818	 0.421664200542999 
819	 0.421095845949222 
820	 0.420345700983137 
821	 0.420723283008924 
822	 0.423492623500136 
823	 0.425832375031899 
824	 0.426569619518723 
825	 0.424740158668297 
826	 0.423586125773066 
827	 0.424416800517018 
828	 0.425735266749872 
829	 0.426769320326805 
830	 0.42679464094216 
831	 0.42774538873156 
832	 0.42937570767409 
833	 0.429744969265579 
834	 0.429978554722584 
835	 0.430468679032332 
836	 0.430640878724074 
837	 0.430465706024316 
838	 0.430001187376003 
839	 0.430469628633956 
840	 0.431637686600281 
841	 0.432089876495408 
842	 0.432435761246357 
843	 0.432731992814437 
844	 0.431910826681022 
845	 0.431138439143279 
846	 0.431730513905933 
847	 0.431858264707131 
848	 0.431449270855799 
849	 0.431516202060249 
850	 0.431030608678284 
851	 0.430145987250063 
852	 0.431982791546465 
853	 0.434620277466157 
854	 0.43575046916747 
855	 0.436758071685174 
856	 0.437214618462898 
857	 0.43522542267206 
858	 0.434742513881161 
859	 0.436490858763304 
860	 0.436444770101205 
861	 0.435786431256524 
862	 0.435841534441381 
863	 0.43606468177205 
864	 0.436453977374176 
865	 0.436964161388638 
866	 0.439348090862984 
867	 0.442974474317862 
868	 0.442265247871534 
869	 0.44122432298237 
870	 0.443031775140581 
871	 0.443589882126596 
872	 0.443166099473295 
873	 0.44334013849849 
874	 0.445055308044328 
875	 0.447901587996885 
876	 0.448777311108367 
877	 0.449365502561318 
878	 0.450924223852319 
879	 0.452972772580746 
880	 0.45521833569586 
881	 0.457300644356332 
882	 0.45909010079685 
883	 0.460522030078999 
884	 0.461682584273568 
885	 0.462365806079238 
886	 0.462586788693959 
887	 0.463200242642737 
888	 0.463869759906867 
889	 0.464035749503681 
890	 0.464308540954306 
891	 0.464665099727769 
892	 0.46460609652036 
893	 0.464095260808593 
894	 0.463763774813879 
895	 0.467275656001449 
896	 0.471810920265062 
897	 0.473706181658074 
898	 0.476081803880256 
899	 0.479917458574109 
900	 0.486690641712088 
901	 0.487909931926959 
902	 0.482414708417059 
903	 0.478553102285415 
904	 0.476550876754512 
905	 0.476604223505423 
906	 0.480152752328439 
907	 0.485183517596531 
908	 0.487938695026173 
909	 0.48819781108114 
910	 0.486745163365729 
911	 0.487160640192224 
912	 0.487949938764358 
913	 0.488432380892663 
914	 0.48974739050174 
915	 0.492302009882049 
916	 0.496207314587692 
917	 0.494914059131169 
918	 0.489848121926872 
919	 0.488039641841361 
920	 0.489364208488687 
921	 0.492373628086509 
922	 0.48944292222799 
923	 0.485209984790925 
924	 0.483874757615383 
925	 0.481452334297679 
926	 0.478261845239267 
927	 0.47616596939547 
928	 0.477368586070851 
929	 0.482615633787011 
930	 0.490474301911082 
931	 0.495321388871819 
932	 0.493737647758388 
933	 0.505047294036357 
934	 0.517370323657368 
935	 0.509905694536374 
936	 0.503217234494668 
937	 0.499590905487131 
938	 0.489160798088888 
939	 0.485720875971576 
940	 0.490899957777984 
941	 0.493394052218557 
942	 0.493169251434545 
943	 0.490875323224751 
944	 0.490902067792724 
945	 0.491233475678514 
946	 0.487566788298019 
947	 0.490437962781346 
948	 0.499002926932971 
949	 0.502038612590899 
950	 0.501826667018387 
951	 0.499780542361083 
952	 0.498818423436112 
953	 0.497752573490684 
954	 0.495009941957677 
955	 0.486649281716499 
956	 0.480801638716299 
957	 0.492531431054612 
958	 0.500030299153644 
959	 0.499517592382605 
960	 0.499949915793267 
961	 0.500592396338245 
962	 0.500744944404363 
963	 0.497822071233978 
964	 0.495019113337943 
965	 0.495319276897414 
966	 0.494914421895739 
967	 0.493245037235067 
968	 0.490147237576119 
969	 0.491860383883698 
970	 0.497650841847365 
971	 0.49895820947043 
972	 0.49461943500992 
973	 0.48669377486825 
974	 0.491908088224704 
975	 0.500633647426257 
976	 0.500775305167461 
977	 0.50414843041054 
978	 0.508004151515504 
979	 0.50210296828138 
980	 0.498518572903456 
981	 0.500035154636457 
982	 0.501732308776616 
983	 0.502901126144264 
984	 0.502996312937242 
985	 0.501736205415671 
986	 0.501322027924663 
987	 0.503907063952783 
988	 0.5063761221328 
989	 0.506733203208113 
990	 0.502020718887842 
991	 0.504872227024808 
992	 0.51336657176894 
993	 0.507156971518921 
994	 0.497579363775401 
995	 0.491878959322344 
996	 0.494616520995535 
997	 0.500329005927021 
998	 0.50303638976908 
999	 0.502437040564791 
1000	 0.502465011486789 
1001	 0.510190545228145 
1002	 0.507240392914761 
1003	 0.497626236793245 
1004	 0.511346435070068 
1005	 0.518181699399727 
1006	 0.508878457727145 
1007	 0.504296074269558 
1008	 0.504581014231673 
1009	 0.508238155917678 
1010	 0.507131319325962 
1011	 0.506683404285892 
1012	 0.515273225070421 
1013	 0.515284267499549 
1014	 0.5075303240817 
1015	 0.502786170831468 
1016	 0.506343981679152 
1017	 0.51535224325936 
1018	 0.509571934464224 
1019	 0.506841567897953 
1020	 0.515528062183447 
1021	 0.522416888202593 
1022	 0.517492437509244 
1023	 0.496561371053398 
1024	 0.509342164570618 
1025	 0.532371429723119 
1026	 0.514510376075813 
1027	 0.500946102483826 
1028	 0.501066870709177 
1029	 0.507585801868098 
1030	 0.508905902781864 
1031	 0.504666762514689 
1032	 0.515935039739193 
1033	 0.527971434224859 
1034	 0.529863422146125 
1035	 0.520579896537692 
1036	 0.513346815444238 
1037	 0.520724648258525 
1038	 0.509953545800133 
1039	 0.497577768257597 
1040	 0.51980598523526 
1041	 0.522917290053823 
1042	 0.507244038032306 
1043	 0.511931569434425 
1044	 0.519207447372322 
1045	 0.522301019342985 
1046	 0.52024710325069 
1047	 0.50471159951425 
1048	 0.480803967713301 
1049	 0.509312924492493 
1050	 0.536607683372162 
1051	 0.509011662590228 
1052	 0.498446472048382 
1053	 0.505075982762724 
1054	 0.512294140443961 
1055	 0.519495831743687 
1056	 0.525111939229807 
1057	 0.526203565628189 
1058	 0.520533363368288 
1059	 0.510742581054968 
1060	 0.503501592689902 
1061	 0.518502696446241 
1062	 0.548812345096039 
1063	 0.505493351746491 
1064	 0.470925016870212 
1065	 0.498684227816358 
1066	 0.501909812369189 
1067	 0.480164900861495 
1068	 0.444655493369392 
1069	 0.434782170847093 
1070	 0.455610267286866 
1071	 0.500214264855553 
1072	 0.508763597217651 
1073	 0.488509111620166 
1074	 0.506481212893863 
1075	 0.499561617053897 
