Wavelength	SHSI00207.asd
325	 0.128920159096504 
326	 0.116808858839899 
327	 8.36618046416314E-02 
328	 9.75210119113882E-02 
329	 0.10827826260565 
330	 0.100189250414365 
331	 9.64393800465085E-02 
332	 9.94442866440287E-02 
333	 0.109154285180637 
334	 0.110791357889295 
335	 0.10613173160794 
336	 0.105867786506802 
337	 0.10510268055027 
338	 0.102695230635813 
339	 9.89860960902895E-02 
340	 0.097968664833541 
341	 0.102200283261199 
342	 0.105164865371075 
343	 0.1065173740172 
344	 0.107698452614899 
345	 0.109328460582037 
346	 0.110426262366835 
347	 0.10562003564005 
348	 0.104336623897907 
349	 0.111204024300587 
350	 0.110190301566066 
351	 0.105419523920972 
352	 0.106392027402687 
353	 0.107553401873623 
354	 0.108353199186714 
355	 0.111905174682476 
356	 0.114092717004468 
357	 0.112817772471016 
358	 0.113028326379186 
359	 0.113361885310436 
360	 0.110832391558216 
361	 0.110434440927102 
362	 0.112089534217224 
363	 0.111313588883693 
364	 0.110546530057193 
365	 0.111230676901316 
366	 0.113871079712707 
367	 0.116401867402231 
368	 0.115989048160157 
369	 0.11665658252062 
370	 0.118358531902315 
371	 0.117162711272966 
372	 0.117860426820754 
373	 0.121935057781268 
374	 0.120928310392853 
375	 0.116514592797172 
376	 0.112311149310826 
377	 0.111664690820468 
378	 0.114298340297412 
379	 0.116702760750096 
380	 0.116636092882293 
381	 0.113776260717945 
382	 0.115400844217539 
383	 0.117875513949602 
384	 0.115576691583612 
385	 0.114268058710079 
386	 0.114436569770114 
387	 0.113361950067042 
388	 0.111592530412007 
389	 0.109900449134159 
390	 0.111445939196979 
391	 0.113393771890115 
392	 0.1121854531042 
393	 0.111902253089083 
394	 0.112601942668341 
395	 0.112063863993166 
396	 0.110739902095586 
397	 0.108961147707332 
398	 0.107248387752931 
399	 0.105658426399805 
400	 0.104170277919843 
401	 0.104271580836857 
402	 0.106050327996526 
403	 0.109637326589603 
404	 0.111374749774401 
405	 0.110160532120245 
406	 0.109827653672989 
407	 0.110184363098331 
408	 0.110517040383981 
409	 0.109880887087177 
410	 0.108610754019093 
411	 0.108266323303062 
412	 0.108107061532375 
413	 0.107760313266981 
414	 0.106974713004945 
415	 0.106853802096638 
416	 0.108815360962418 
417	 0.109097739113119 
418	 0.107853439298364 
419	 0.10860157029329 
420	 0.108994094359786 
421	 0.108058473177432 
422	 0.108356902715494 
423	 0.109186765335693 
424	 0.109134702839416 
425	 0.10887465250254 
426	 0.108741876633506 
427	 0.109370437417603 
428	 0.109937587733323 
429	 0.109804529437366 
430	 0.108623949267175 
431	 0.107278186990019 
432	 0.10725295074548 
433	 0.106793422772942 
434	 0.105903372455313 
435	 0.106150101230819 
436	 0.107182283741245 
437	 0.108593896825859 
438	 0.109259408504773 
439	 0.109201677060821 
440	 0.108772531311368 
441	 0.108618241532788 
442	 0.108913163757869 
443	 0.10916400372227 
444	 0.109895524874751 
445	 0.111379678569894 
446	 0.111555984894906 
447	 0.11099401117008 
448	 0.111738883505305 
449	 0.11243141604303 
450	 0.112728900650752 
451	 0.113084469462385 
452	 0.113884589838767 
453	 0.115417228802712 
454	 0.116382594709309 
455	 0.116555844794317 
456	 0.116091809962961 
457	 0.115796290529573 
458	 0.116018874191188 
459	 0.116262251056946 
460	 0.11662556106776 
461	 0.117254532610023 
462	 0.117315011930475 
463	 0.117133852196201 
464	 0.118404613748639 
465	 0.119265076399741 
466	 0.118982089983259 
467	 0.119864407444254 
468	 0.120899507599713 
469	 0.1202819620362 
470	 0.11948288601496 
471	 0.119169632443514 
472	 0.120091908052456 
473	 0.12128511767718 
474	 0.122050603252158 
475	 0.122293696846288 
476	 0.122188503052603 
477	 0.122056605855689 
478	 0.122061127235159 
479	 0.122357989453545 
480	 0.123227106418972 
481	 0.124148808451092 
482	 0.124686980987184 
483	 0.124915494439021 
484	 0.125025220547047 
485	 0.125507151843984 
486	 0.125513844863125 
487	 0.124920160649818 
488	 0.124793192047452 
489	 0.124748274550346 
490	 0.124377012097973 
491	 0.124889039802174 
492	 0.125895980874315 
493	 0.125677825833749 
494	 0.125813066309245 
495	 0.126821214490215 
496	 0.127372999416189 
497	 0.127862468204392 
498	 0.128954935070355 
499	 0.129704720424068 
500	 0.130066790216477 
501	 0.13073089636298 
502	 0.131420137931438 
503	 0.131953390394041 
504	 0.132283500364927 
505	 0.132608787996085 
506	 0.13322473615493 
507	 0.134219124528643 
508	 0.135595811479476 
509	 0.137273743155431 
510	 0.138779779124617 
511	 0.139780274675622 
512	 0.140921400551043 
513	 0.142187928049697 
514	 0.143236800181709 
515	 0.144393454120324 
516	 0.145711166012335 
517	 0.146911025934123 
518	 0.147714204516324 
519	 0.147898623105421 
520	 0.148350122000435 
521	 0.14926922697156 
522	 0.150596183624765 
523	 0.152072706530205 
524	 0.153590183910191 
525	 0.155412658015496 
526	 0.157055833045517 
527	 0.157810876427361 
528	 0.158480823386822 
529	 0.159322038481928 
530	 0.160332205578791 
531	 0.161654113710792 
532	 0.163286293342643 
533	 0.164294728819342 
534	 0.164989790424907 
535	 0.166276159338095 
536	 0.167403470331461 
537	 0.168294156904396 
538	 0.169673877892082 
539	 0.171107874990919 
540	 0.172135672091019 
541	 0.172789747695408 
542	 0.173331146890091 
543	 0.174434640686132 
544	 0.175478024630504 
545	 0.176258808887439 
546	 0.177193189669263 
547	 0.178339160552043 
548	 0.179715464818923 
549	 0.180644549841703 
550	 0.181132477006941 
551	 0.181840832639983 
552	 0.182554920319176 
553	 0.183204981767165 
554	 0.184326153191478 
555	 0.185660798590762 
556	 0.186610281874021 
557	 0.187623992279881 
558	 0.188668246061599 
559	 0.189011623699388 
560	 0.189261282634002 
561	 0.189986813122737 
562	 0.190712314615438 
563	 0.191425525571195 
564	 0.192359138055997 
565	 0.193123240026787 
566	 0.193574618077829 
567	 0.193982254668563 
568	 0.19438919305368 
569	 0.194816602197776 
570	 0.19484550931799 
571	 0.194599317031221 
572	 0.194799094944372 
573	 0.195206889195768 
574	 0.195681810745971 
575	 0.196317605366796 
576	 0.196838391169461 
577	 0.19670847536112 
578	 0.196938771910444 
579	 0.197692336810682 
580	 0.198100504080693 
581	 0.198512127548113 
582	 0.199230920187855 
583	 0.199821014235502 
584	 0.200085180992766 
585	 0.19959870659904 
586	 0.199728724054084 
587	 0.200840251768596 
588	 0.201266447694255 
589	 0.201210244310156 
590	 0.20114871541502 
591	 0.200813068430515 
592	 0.200480288436135 
593	 0.20109286574411 
594	 0.201795136516203 
595	 0.202077324091372 
596	 0.202187752456161 
597	 0.202471500397318 
598	 0.203536651964434 
599	 0.203882029043063 
600	 0.203383351813399 
601	 0.203761726698351 
602	 0.204149176350408 
603	 0.203807738552898 
604	 0.204063757361049 
605	 0.204745989105291 
606	 0.204895052606509 
607	 0.204635021564996 
608	 0.204069864041476 
609	 0.203770658314535 
610	 0.203397134148618 
611	 0.202465044073443 
612	 0.202093927312823 
613	 0.202215994164727 
614	 0.201644704797459 
615	 0.201036386928205 
616	 0.200759050346361 
617	 0.200340316532572 
618	 0.199887030930406 
619	 0.199645517275975 
620	 0.199843093110286 
621	 0.200296010092063 
622	 0.199901130718318 
623	 0.199503147339249 
624	 0.199852373418359 
625	 0.199996611740154 
626	 0.199949947042183 
627	 0.200163843087523 
628	 0.200709097042138 
629	 0.20150341499177 
630	 0.201954126559477 
631	 0.201846293687931 
632	 0.201018033569746 
633	 0.200475348809531 
634	 0.200578627477429 
635	 0.201565673476428 
636	 0.202286245641186 
637	 0.202160855046743 
638	 0.202666093524487 
639	 0.203548457096956 
640	 0.204030372484407 
641	 0.204286157656922 
642	 0.204289263016822 
643	 0.203668190412102 
644	 0.203649823303162 
645	 0.205152728581075 
646	 0.205380727968507 
647	 0.204533570222596 
648	 0.204604371213817 
649	 0.204771286968365 
650	 0.20465831974676 
651	 0.203839416541809 
652	 0.202872901621087 
653	 0.202444095731746 
654	 0.201562639858764 
655	 0.199990549875177 
656	 0.198092159432113 
657	 0.195876488019479 
658	 0.193571317434645 
659	 0.191836559046526 
660	 0.190319528499175 
661	 0.188430614675264 
662	 0.186089687688827 
663	 0.183432855442277 
664	 0.181230006846682 
665	 0.178968188943821 
666	 0.176267901242728 
667	 0.174251589328756 
668	 0.172725994088244 
669	 0.170674888885055 
670	 0.168787040516302 
671	 0.167469736910798 
672	 0.167561476200066 
673	 0.167628087427525 
674	 0.16603261727567 
675	 0.165749430314682 
676	 0.166882422374226 
677	 0.167604740519233 
678	 0.16829696025601 
679	 0.169143004458161 
680	 0.170131088720193 
681	 0.171514911946235 
682	 0.173657048321587 
683	 0.176516597247952 
684	 0.179884713956778 
685	 0.183166823826756 
686	 0.187128823795532 
687	 0.192359813072659 
688	 0.197926567481677 
689	 0.203154735823465 
690	 0.208193494799861 
691	 0.213918658097982 
692	 0.220616471505482 
693	 0.227607480762409 
694	 0.234387753065297 
695	 0.240205445440788 
696	 0.245838198242219 
697	 0.251482759226459 
698	 0.257414524370901 
699	 0.263130232401537 
700	 0.268327208018575 
701	 0.273589263206293 
702	 0.278411852802533 
703	 0.282094517721836 
704	 0.285840145140133 
705	 0.289821514613385 
706	 0.293294083343083 
707	 0.296536438926599 
708	 0.299699712909071 
709	 0.302607403111984 
710	 0.305313865279408 
711	 0.307922470932986 
712	 0.310507580337002 
713	 0.31311954658761 
714	 0.315888838942299 
715	 0.3184957476391 
716	 0.32078227553945 
717	 0.323033289262966 
718	 0.325396816249396 
719	 0.327863156942945 
720	 0.329542903557638 
721	 0.330381316017665 
722	 0.331845824218944 
723	 0.33376279220717 
724	 0.335751827272961 
725	 0.337205351261837 
726	 0.338206599775821 
727	 0.339972295680645 
728	 0.341380784644853 
729	 0.342060668582352 
730	 0.343634513753498 
731	 0.345307639868498 
732	 0.345771886356319 
733	 0.346518917257813 
734	 0.347778753125703 
735	 0.349097984492024 
736	 0.350110995118276 
737	 0.350624351039293 
738	 0.351660537875364 
739	 0.352970303774912 
740	 0.35380103509666 
741	 0.3546723352639 
742	 0.355610210748192 
743	 0.356087070508081 
744	 0.356489949293002 
745	 0.357162060432268 
746	 0.357913528113258 
747	 0.35872388974182 
748	 0.359645999261162 
749	 0.360450235441866 
750	 0.361197893833137 
751	 0.362770525915969 
752	 0.364223490623813 
753	 0.364542785920458 
754	 0.3648726547744 
755	 0.365466375205743 
756	 0.366633957578703 
757	 0.365946718136913 
758	 0.362801239376886 
759	 0.362870689696724 
760	 0.36754852141919 
761	 0.374053099931006 
762	 0.377020057841897 
763	 0.376857369609544 
764	 0.378982910840752 
765	 0.380248585517824 
766	 0.379762673989058 
767	 0.378571378272688 
768	 0.377748165419398 
769	 0.378452438506161 
770	 0.378763627274781 
771	 0.37861035585797 
772	 0.379513536741693 
773	 0.380604360271524 
774	 0.381327706460873 
775	 0.382249678102338 
776	 0.38325885701841 
777	 0.384079037594365 
778	 0.384452137829615 
779	 0.384604038931299 
780	 0.385883993529647 
781	 0.386871073474385 
782	 0.386578613367404 
783	 0.387311512369262 
784	 0.388761859106466 
785	 0.389486777398255 
786	 0.389936488025655 
787	 0.390343151176909 
788	 0.391162829527999 
789	 0.392217446221068 
790	 0.393284043196951 
791	 0.394177114626767 
792	 0.394840420937759 
793	 0.395234720914415 
794	 0.395719276337997 
795	 0.396418023125921 
796	 0.397162238261774 
797	 0.397701718817287 
798	 0.397858524163363 
799	 0.398600817917332 
800	 0.399911913338347 
801	 0.401277258181059 
802	 0.40212456425569 
803	 0.402397886815936 
804	 0.403538924450324 
805	 0.404357480214743 
806	 0.403574664808243 
807	 0.40347331798869 
808	 0.404279840076327 
809	 0.405140016293823 
810	 0.406308737760594 
811	 0.407634300732403 
812	 0.407828160242203 
813	 0.407627767065093 
814	 0.408185193927086 
815	 0.410550416975832 
816	 0.414113842749588 
817	 0.416228977407552 
818	 0.417150801356666 
819	 0.417061371852081 
820	 0.416231913562951 
821	 0.415995319829217 
822	 0.417812174109557 
823	 0.420504564297516 
824	 0.422502408793005 
825	 0.420554850739387 
826	 0.419333550386946 
827	 0.420674648392133 
828	 0.422555147182576 
829	 0.423854266531308 
830	 0.423508296458472 
831	 0.424074863513872 
832	 0.425643641349585 
833	 0.426841706015931 
834	 0.427282673017789 
835	 0.426967192638837 
836	 0.427106560267414 
837	 0.427725182690666 
838	 0.428672479045119 
839	 0.42854827844836 
840	 0.427655620451635 
841	 0.427565924674761 
842	 0.428634815831076 
843	 0.430497382983131 
844	 0.42999325656493 
845	 0.428609518709538 
846	 0.428316266190074 
847	 0.428580131775374 
848	 0.429051589577426 
849	 0.429050349952444 
850	 0.428363750459371 
851	 0.427488492838738 
852	 0.429553544577095 
853	 0.43279318573216 
854	 0.434927585501124 
855	 0.435151932155074 
856	 0.433930780512003 
857	 0.432728526446781 
858	 0.432559545544118 
859	 0.433537846946727 
860	 0.43384444468175 
861	 0.433667821225728 
862	 0.433355370231579 
863	 0.433698694836227 
864	 0.434696375964497 
865	 0.435901540593149 
866	 0.437454060836817 
867	 0.43918952654244 
868	 0.440504532213465 
869	 0.441528996220575 
870	 0.442274812097765 
871	 0.441167802231372 
872	 0.439638304953216 
873	 0.440746000323165 
874	 0.44236030111021 
875	 0.444056609743978 
876	 0.447036046651503 
877	 0.448903497691319 
878	 0.448516914774402 
879	 0.451182051156173 
880	 0.454888983508587 
881	 0.455223417139935 
882	 0.456095242269679 
883	 0.457912074653648 
884	 0.458240379575723 
885	 0.458947336742708 
886	 0.460910650580605 
887	 0.462626025684639 
888	 0.463215118618952 
889	 0.461847841016216 
890	 0.460700970120158 
891	 0.460682585278786 
892	 0.46276922723036 
893	 0.464261715832613 
894	 0.464295271838994 
895	 0.466634010486615 
896	 0.469705644680712 
897	 0.471356388264418 
898	 0.474336744889388 
899	 0.478165544908848 
900	 0.480650011846978 
901	 0.480041116020977 
902	 0.477032224342922 
903	 0.47691188734705 
904	 0.478087102006362 
905	 0.479202843066524 
906	 0.480718501693026 
907	 0.48249713817078 
908	 0.484351364960929 
909	 0.483182282381732 
910	 0.480110420832151 
911	 0.482793046444806 
912	 0.486353873988343 
913	 0.487910693312818 
914	 0.488875718078378 
915	 0.489792483613044 
916	 0.491155287684865 
917	 0.491609814466412 
918	 0.491176845070572 
919	 0.490426149134822 
920	 0.491317529562873 
921	 0.493250464912287 
922	 0.489508398692876 
923	 0.485002155393802 
924	 0.484106096783214 
925	 0.482928325807959 
926	 0.480197502673832 
927	 0.4743063587855 
928	 0.472954451009594 
929	 0.478597134903774 
930	 0.486742971026405 
931	 0.493440821516403 
932	 0.49572679551323 
933	 0.505721121343407 
934	 0.512553429137424 
935	 0.499590455075798 
936	 0.500422620695737 
937	 0.51146748573305 
938	 0.501902851403276 
939	 0.491916832964616 
940	 0.488645272182279 
941	 0.494661283033441 
942	 0.499200860527679 
943	 0.495182171255368 
944	 0.494623517679765 
945	 0.496678182623875 
946	 0.497341650107713 
947	 0.499155842956966 
948	 0.501257241350558 
949	 0.500027543455556 
950	 0.494949055138806 
951	 0.487428052444617 
952	 0.485251688598126 
953	 0.489030793148487 
954	 0.497441155658146 
955	 0.498037069167426 
956	 0.494455449659223 
957	 0.496764311430695 
958	 0.504824298574593 
959	 0.513235110761048 
960	 0.504342002772367 
961	 0.497866778642871 
962	 0.501809245427153 
963	 0.501866209906428 
964	 0.498992904695241 
965	 0.495397599360987 
966	 0.495697825376649 
967	 0.496525610149141 
968	 0.489353925384555 
969	 0.487256666291386 
970	 0.491181493340705 
971	 0.49026019233917 
972	 0.490588055177618 
973	 0.494656770889788 
974	 0.494998890998073 
975	 0.49735461331157 
976	 0.507699586386919 
977	 0.506013680771667 
978	 0.495894859307989 
979	 0.492689982225988 
980	 0.493141240065327 
981	 0.495641775204627 
982	 0.496123893178026 
983	 0.498749379005863 
984	 0.504079571739825 
985	 0.501337586220229 
986	 0.498224349145801 
987	 0.50329040388758 
988	 0.503557990947541 
989	 0.500449581697541 
990	 0.501211471897149 
991	 0.506670688400614 
992	 0.513467204910695 
993	 0.508861877073905 
994	 0.50117454739368 
995	 0.496143056951239 
996	 0.49988044130576 
997	 0.501352610259306 
998	 0.491231125438851 
999	 0.495902581667907 
1000	 0.508846209417038 
1001	 0.511675564004973 
1002	 0.509052675342204 
1003	 0.505084358147396 
1004	 0.510131894587655 
1005	 0.512830682097754 
1006	 0.50930874045714 
1007	 0.505014866263078 
1008	 0.505761464309803 
1009	 0.513767913025942 
1010	 0.510469186665653 
1011	 0.504704747638691 
1012	 0.511876552905107 
1013	 0.514972010354683 
1014	 0.51318616151713 
1015	 0.513515276080202 
1016	 0.512254783992547 
1017	 0.50888350047628 
1018	 0.503874455581433 
1019	 0.507657247621072 
1020	 0.522590067210573 
1021	 0.527625406993558 
1022	 0.517822873164672 
1023	 0.494653376907059 
1024	 0.501340202757622 
1025	 0.522168028809492 
1026	 0.519513124745387 
1027	 0.510627675715667 
1028	 0.502099874550942 
1029	 0.500719092164756 
1030	 0.504903382081846 
1031	 0.512805980472538 
1032	 0.518364078735789 
1033	 0.522348358306758 
1034	 0.523756864550776 
1035	 0.511990169921497 
1036	 0.502700796751644 
1037	 0.513161578072416 
1038	 0.528655838539675 
1039	 0.53409939203946 
1040	 0.510621836272786 
1041	 0.499773945039548 
1042	 0.507314462984963 
1043	 0.519579102468245 
1044	 0.529059470869613 
1045	 0.529345717799177 
1046	 0.511619054531671 
1047	 0.498527846924467 
1048	 0.502438963550161 
1049	 0.500558587030551 
1050	 0.503248453878723 
1051	 0.519959322615284 
1052	 0.530550775987818 
1053	 0.533045032636382 
1054	 0.528600594505617 
1055	 0.51808239916229 
1056	 0.507649313301489 
1057	 0.512697662309935 
1058	 0.514573302127899 
1059	 0.508411654187798 
1060	 0.495727638401265 
1061	 0.504368109031117 
1062	 0.533002198168487 
1063	 0.49736846003866 
1064	 0.467371025576564 
1065	 0.488882848900941 
1066	 0.485378031631637 
1067	 0.478931878695984 
1068	 0.499116222099602 
1069	 0.496078308339085 
1070	 0.478167565141726 
1071	 0.472576690402835 
1072	 0.474196390140069 
1073	 0.48594611613067 
1074	 0.523316453232968 
1075	 0.521897958011295 
