Wavelength	SHSI00135.asd
325	 5.46614960104159E-02 
326	 5.86515432706763E-02 
327	 6.66089216966354E-02 
328	 6.19632242934885E-02 
329	 5.84199611403701E-02 
330	 6.02029513872406E-02 
331	 6.21568754770865E-02 
332	 6.33771069196647E-02 
333	 6.33965168755011E-02 
334	 6.21338068490817E-02 
335	 6.04338619393808E-02 
336	 6.02612845554882E-02 
337	 5.95208878754897E-02 
338	 5.73389264063675E-02 
339	 0.052247337525136 
340	 4.97960344813923E-02 
341	 5.39736596861733E-02 
342	 5.74554018810766E-02 
343	 5.82463572590512E-02 
344	 0.054962018162202 
345	 5.32754844822438E-02 
346	 5.39003373315842E-02 
347	 0.053232444237994 
348	 5.02489371273659E-02 
349	 4.53881934691216E-02 
350	 0.048564793647352 
351	 5.41440319186847E-02 
352	 5.14214080925133E-02 
353	 0.052195411846602 
354	 5.65531551266677E-02 
355	 5.40592449852179E-02 
356	 5.18670831316121E-02 
357	 5.38614468376893E-02 
358	 5.36345728366186E-02 
359	 5.26779667483808E-02 
360	 5.43666822652238E-02 
361	 5.48184531056061E-02 
362	 5.33246804979755E-02 
363	 5.04333647170003E-02 
364	 4.95973431034711E-02 
365	 5.20935349844767E-02 
366	 5.33644117528026E-02 
367	 5.29608654231891E-02 
368	 5.09689302022099E-02 
369	 5.16607003793454E-02 
370	 0.054209362896189 
371	 5.23550756018508E-02 
372	 5.02866772622011E-02 
373	 0.050224485168011 
374	 0.050841979063466 
375	 5.13658018648049E-02 
376	 5.09577130603026E-02 
377	 4.97553286014937E-02 
378	 0.04827415672916 
379	 4.76457864959032E-02 
380	 4.88449403700754E-02 
381	 5.15141179056174E-02 
382	 5.03945166344194E-02 
383	 4.81478458265086E-02 
384	 4.88572146361391E-02 
385	 4.93718085873352E-02 
386	 4.90990571416958E-02 
387	 4.85368021123562E-02 
388	 4.81157948249143E-02 
389	 4.81706977659699E-02 
390	 4.92873888576216E-02 
391	 5.01096327558006E-02 
392	 4.91596713970724E-02 
393	 4.87369164967061E-02 
394	 4.88777567648607E-02 
395	 4.80204457807961E-02 
396	 0.047853685208536 
397	 4.87490133623501E-02 
398	 0.048571022344228 
399	 4.80083859948217E-02 
400	 4.79488238280875E-02 
401	 4.88288982943234E-02 
402	 4.99571025697274E-02 
403	 4.95005049633739E-02 
404	 0.049021902427191 
405	 4.91603883669319E-02 
406	 4.96262540176659E-02 
407	 4.99975962831889E-02 
408	 4.98042973289482E-02 
409	 0.049358817071253 
410	 4.88612507057719E-02 
411	 4.85031074399365E-02 
412	 4.87566954881939E-02 
413	 4.95555524710962E-02 
414	 4.88832371509686E-02 
415	 4.82831268841582E-02 
416	 4.99479147947106E-02 
417	 5.04015409160585E-02 
418	 4.94993314689765E-02 
419	 4.94032696561537E-02 
420	 0.049677934264956 
421	 4.99250841192653E-02 
422	 4.88800269818208E-02 
423	 4.77435396416062E-02 
424	 0.0484249194255 
425	 4.89481359559456E-02 
426	 4.89595910041381E-02 
427	 4.91169876793203E-02 
428	 4.94510004742647E-02 
429	 4.99212020124662E-02 
430	 5.01180814236637E-02 
431	 4.99321382456149E-02 
432	 4.92682954326489E-02 
433	 4.90372800431539E-02 
434	 4.93596759248654E-02 
435	 4.96066688770079E-02 
436	 4.98708680530214E-02 
437	 5.01294551701016E-02 
438	 4.94590270109811E-02 
439	 4.87076007133455E-02 
440	 4.97157036880596E-02 
441	 5.00107326123849E-02 
442	 4.92838923006693E-02 
443	 4.96318458628539E-02 
444	 5.01367427554749E-02 
445	 5.00515158487508E-02 
446	 5.03213304623475E-02 
447	 0.05075900800803 
448	 5.06372894892864E-02 
449	 0.050373120361932 
450	 0.050171274424099 
451	 0.050336275162293 
452	 5.03722326133022E-02 
453	 0.049828863256179 
454	 4.98741267693946E-02 
455	 5.04774387313552E-02 
456	 5.09637966572162E-02 
457	 5.10879572664465E-02 
458	 5.07427093291821E-02 
459	 5.01067671769959E-02 
460	 4.98886322265913E-02 
461	 5.08491662174926E-02 
462	 5.14939465937982E-02 
463	 5.14893186600476E-02 
464	 5.09563228394104E-02 
465	 5.07723830745195E-02 
466	 5.12975007480011E-02 
467	 5.13391860019664E-02 
468	 5.11088698385273E-02 
469	 5.11184771336704E-02 
470	 5.12375126178962E-02 
471	 5.14335674783592E-02 
472	 0.05169484188044 
473	 5.18586000152158E-02 
474	 5.18223012000763E-02 
475	 5.16629766410983E-02 
476	 0.051524066097771 
477	 0.051590035075761 
478	 5.21423714929125E-02 
479	 5.29342439143375E-02 
480	 5.26389579384956E-02 
481	 5.23427682033641E-02 
482	 5.28691931039174E-02 
483	 5.27581375508239E-02 
484	 5.22664993534367E-02 
485	 5.26089104221399E-02 
486	 5.27949278690752E-02 
487	 5.26181243736057E-02 
488	 0.052998681423924 
489	 5.32799645463079E-02 
490	 5.27948085687009E-02 
491	 5.27338176754757E-02 
492	 5.31515165763308E-02 
493	 5.36161390664179E-02 
494	 5.36831801616836E-02 
495	 5.32408056238543E-02 
496	 0.053032827891882 
497	 5.31513607318063E-02 
498	 5.36068807755675E-02 
499	 5.37447848073944E-02 
500	 5.35547591096772E-02 
501	 5.36278558581963E-02 
502	 5.38447634129515E-02 
503	 5.40931045384135E-02 
504	 5.40289012841195E-02 
505	 0.053978314294739 
506	 5.45439522329747E-02 
507	 5.53157022754997E-02 
508	 0.055934695123225 
509	 5.55279552214183E-02 
510	 0.05514148224795 
511	 5.55826569187473E-02 
512	 5.59153330352638E-02 
513	 5.59954290650367E-02 
514	 5.58478448253852E-02 
515	 5.57202336472002E-02 
516	 5.57938507612388E-02 
517	 5.64087130902804E-02 
518	 5.69196449010041E-02 
519	 5.66514579954644E-02 
520	 5.68173523342453E-02 
521	 5.73075695594025E-02 
522	 5.70420423569607E-02 
523	 5.71452191493706E-02 
524	 5.79959073176578E-02 
525	 5.85086455720844E-02 
526	 5.85800065899447E-02 
527	 5.82277441983847E-02 
528	 5.83171759211166E-02 
529	 5.88982497894302E-02 
530	 5.92288771304943E-02 
531	 5.95269413884551E-02 
532	 5.99329121762753E-02 
533	 6.03706182643145E-02 
534	 6.07043166782983E-02 
535	 6.07019283211263E-02 
536	 0.060603884372838 
537	 6.05536232406662E-02 
538	 6.07988350984261E-02 
539	 6.09384503624854E-02 
540	 6.06320493751114E-02 
541	 0.061131250841141 
542	 6.20269861248712E-02 
543	 6.15362562836358E-02 
544	 6.12800602970157E-02 
545	 6.17734770606725E-02 
546	 6.16287120071101E-02 
547	 6.14579374740962E-02 
548	 6.22056670273139E-02 
549	 0.062487482354079 
550	 6.22715850308333E-02 
551	 6.26997995636411E-02 
552	 6.31563183770889E-02 
553	 0.063265064064906 
554	 6.33541272540905E-02 
555	 6.33781082417245E-02 
556	 6.31449452078258E-02 
557	 6.31498656032959E-02 
558	 0.063486372344233 
559	 6.37783793433626E-02 
560	 6.38780599046915E-02 
561	 0.063689898083753 
562	 6.35650615681274E-02 
563	 6.36143530551136E-02 
564	 6.39161029362397E-02 
565	 6.43085696202698E-02 
566	 6.45839569428464E-02 
567	 6.39977410342916E-02 
568	 6.34676826989393E-02 
569	 6.42254867502332E-02 
570	 6.46656317242024E-02 
571	 6.45372625768195E-02 
572	 0.06449222238949 
573	 6.43998760565378E-02 
574	 6.42458624275838E-02 
575	 0.064456457576988 
576	 6.48798508576363E-02 
577	 6.51501735629181E-02 
578	 6.52037169657812E-02 
579	 0.065105208845435 
580	 6.53510402764784E-02 
581	 6.53872037456197E-02 
582	 6.47897226812665E-02 
583	 6.47619862746516E-02 
584	 6.52699042861753E-02 
585	 6.56805605884594E-02 
586	 6.58545424399768E-02 
587	 6.58246292980511E-02 
588	 6.65090185420211E-02 
589	 6.70167493650492E-02 
590	 6.60907099249046E-02 
591	 6.56182301484761E-02 
592	 6.58044654627349E-02 
593	 6.55027772058883E-02 
594	 6.57927419094853E-02 
595	 0.06707151415849 
596	 0.067281370483558 
597	 0.0666519713431 
598	 6.60226349893087E-02 
599	 6.61277765531419E-02 
600	 6.69258667606246E-02 
601	 0.066882697351308 
602	 6.68795074936257E-02 
603	 6.76751374166205E-02 
604	 6.81673640276099E-02 
605	 6.82132158379782E-02 
606	 6.79598601474529E-02 
607	 6.76850188989627E-02 
608	 6.75596334095493E-02 
609	 6.76427734443892E-02 
610	 0.06784034250213 
611	 6.80223232657066E-02 
612	 6.81228121649764E-02 
613	 6.81574373153522E-02 
614	 6.82514655677852E-02 
615	 6.83720813092609E-02 
616	 6.85237167692021E-02 
617	 6.89781039855074E-02 
618	 6.92582810625876E-02 
619	 6.84318217241603E-02 
620	 0.068364242634053 
621	 6.92821476642367E-02 
622	 6.95531904701835E-02 
623	 6.93976133537958E-02 
624	 6.90692226610829E-02 
625	 6.84791515268792E-02 
626	 6.81481132056209E-02 
627	 6.94531040314148E-02 
628	 7.05148221726493E-02 
629	 7.05789017259688E-02 
630	 7.03051938440871E-02 
631	 7.02772217872139E-02 
632	 0.071117326541752 
633	 0.071445108791678 
634	 7.10984908700556E-02 
635	 0.070691378490487 
636	 7.04901789421924E-02 
637	 7.06478284211299E-02 
638	 0.070889547250004 
639	 7.09093653187023E-02 
640	 7.01827957680417E-02 
641	 7.02242244072231E-02 
642	 7.12266043550185E-02 
643	 0.071895756409267 
644	 7.17564408323236E-02 
645	 7.05746427529015E-02 
646	 7.06091670745211E-02 
647	 7.15434320223092E-02 
648	 7.12435751021355E-02 
649	 7.12286213490186E-02 
650	 7.18589432092675E-02 
651	 0.071782615763105 
652	 7.13655865742561E-02 
653	 7.11731251943072E-02 
654	 7.16149486809647E-02 
655	 7.24086631637929E-02 
656	 7.21062297898891E-02 
657	 7.16481028525786E-02 
658	 7.15771022558052E-02 
659	 7.11904799454269E-02 
660	 7.08227469905782E-02 
661	 7.11437581137583E-02 
662	 7.11637963511275E-02 
663	 0.070802858569467 
664	 7.10377056798814E-02 
665	 7.12735327671517E-02 
666	 0.071018622541795 
667	 0.070891431404776 
668	 7.07770327428344E-02 
669	 7.00423286856573E-02 
670	 6.96223732064212E-02 
671	 6.99026925693597E-02 
672	 0.070864429381486 
673	 7.15571993337077E-02 
674	 7.09642336989214E-02 
675	 7.11464191880231E-02 
676	 7.21245889651161E-02 
677	 7.24707408399715E-02 
678	 7.25837814162387E-02 
679	 7.26754264600761E-02 
680	 7.27221327785193E-02 
681	 7.30223646336709E-02 
682	 7.40284488752502E-02 
683	 7.49536752134049E-02 
684	 7.56936829428181E-02 
685	 0.076902602499187 
686	 7.82546414947202E-02 
687	 7.94306300994972E-02 
688	 8.05514186820499E-02 
689	 8.16146753358842E-02 
690	 8.28795524991884E-02 
691	 8.39277088252735E-02 
692	 8.47487915502514E-02 
693	 8.56826750711196E-02 
694	 8.71617819109077E-02 
695	 8.94519525999926E-02 
696	 9.07869589891673E-02 
697	 9.15040453326586E-02 
698	 9.36140677705532E-02 
699	 9.55015427761534E-02 
700	 9.65351619260356E-02 
701	 9.81464957699978E-02 
702	 9.99254569805514E-02 
703	 0.101128152493181 
704	 0.102444367906281 
705	 0.103942228604482 
706	 0.105284601178907 
707	 0.106185503103686 
708	 0.10656325717311 
709	 0.107336196841683 
710	 0.108642945692729 
711	 0.110528037673135 
712	 0.111913017472993 
713	 0.112485131095518 
714	 0.112479461135096 
715	 0.11336407300311 
716	 0.116520000209256 
717	 0.118994076867588 
718	 0.120310311626067 
719	 0.12131408723902 
720	 0.122057653297544 
721	 0.122584345983687 
722	 0.122433933142173 
723	 0.122737820292167 
724	 0.124785502925939 
725	 0.126332426913457 
726	 0.127040900384558 
727	 0.128132824480571 
728	 0.129249120086747 
729	 0.130187905893018 
730	 0.130801661849795 
731	 0.131041307625568 
732	 0.130888072258684 
733	 0.13087776595506 
734	 0.13116684906368 
735	 0.131738629619931 
736	 0.132470288505337 
737	 0.133211796763619 
738	 0.133727271298034 
739	 0.133988212341379 
740	 0.133959179595735 
741	 0.134415203779359 
742	 0.13550135530934 
743	 0.13672586074245 
744	 0.137642553737805 
745	 0.137960706461429 
746	 0.138698563417739 
747	 0.139607397042626 
748	 0.139590745809345 
749	 0.139863786759883 
750	 0.140809312655722 
751	 0.141865503940774 
752	 0.142885947618288 
753	 0.143746495052786 
754	 0.144118745307058 
755	 0.1442940976378 
756	 0.145248053946596 
757	 0.14627545638495 
758	 0.147251443218407 
759	 0.149181993711514 
760	 0.153424870179169 
761	 0.158366580268991 
762	 0.160919096979219 
763	 0.160597935970601 
764	 0.158328227625404 
765	 0.156843120360306 
766	 0.156774608274349 
767	 0.15560163739409 
768	 0.154634110455223 
769	 0.155612474414034 
770	 0.156375111095661 
771	 0.156769329490938 
772	 0.158344190709582 
773	 0.159516798402267 
774	 0.159328352341505 
775	 0.159232868395659 
776	 0.159599926913048 
777	 0.160670881368694 
778	 0.161840957712502 
779	 0.162886678438099 
780	 0.1639012332339 
781	 0.164708637827931 
782	 0.165248837686188 
783	 0.166451960129183 
784	 0.16785285160812 
785	 0.168103087108735 
786	 0.168559845070326 
787	 0.169656032168006 
788	 0.17106350782606 
789	 0.172371275753803 
790	 0.173187729989635 
791	 0.173682251765253 
792	 0.173910529866825 
793	 0.173740723803769 
794	 0.174544569588995 
795	 0.176590263235809 
796	 0.178548847043174 
797	 0.179336645507053 
798	 0.178157955583628 
799	 0.178179801437283 
800	 0.179641834097489 
801	 0.181339570230073 
802	 0.182817183982265 
803	 0.183798663820919 
804	 0.184568669565607 
805	 0.18548348593064 
806	 0.18685051449326 
807	 0.187369066524027 
808	 0.187509581627935 
809	 0.189373133272935 
810	 0.191456238708724 
811	 0.192967858403757 
812	 0.193307728011394 
813	 0.193969869251946 
814	 0.196953008942032 
815	 0.199389047539339 
816	 0.200586092106409 
817	 0.201187796145023 
818	 0.201828755946376 
819	 0.202892408821516 
820	 0.204360711816179 
821	 0.205889696928896 
822	 0.207018283043017 
823	 0.206839245061676 
824	 0.205821290401229 
825	 0.205619225474483 
826	 0.206482634419012 
827	 0.208457678902524 
828	 0.21070884524554 
829	 0.212264549758314 
830	 0.212148739774649 
831	 0.212871272789114 
832	 0.214465167594933 
833	 0.215383649992437 
834	 0.215839108138075 
835	 0.215989417521378 
836	 0.216439572677643 
837	 0.216757959215518 
838	 0.21646548512714 
839	 0.217867748729449 
840	 0.220384486673452 
841	 0.221040599131706 
842	 0.221332788054735 
843	 0.22185318430708 
844	 0.222178434872163 
845	 0.22303485849105 
846	 0.225152383398982 
847	 0.226081771686498 
848	 0.226033669395243 
849	 0.227209339509248 
850	 0.228330774933985 
851	 0.228896833639468 
852	 0.228911563203981 
853	 0.229427637960784 
854	 0.231436940879308 
855	 0.232666320603361 
856	 0.233090680534709 
857	 0.233708298815804 
858	 0.235456037473777 
859	 0.238078694839264 
860	 0.238427325186603 
861	 0.238135201554439 
862	 0.238884132659723 
863	 0.239646996038659 
864	 0.240175339295492 
865	 0.240095382798962 
866	 0.241594289986835 
867	 0.244603247943347 
868	 0.245028935611836 
869	 0.245403465710329 
870	 0.247770824265666 
871	 0.24977708426907 
872	 0.251203233914157 
873	 0.252363649812085 
874	 0.252947002266004 
875	 0.253113988151976 
876	 0.253657652369813 
877	 0.254906199822279 
878	 0.256914115809769 
879	 0.258249994234027 
880	 0.25946302921929 
881	 0.261813856927054 
882	 0.262812913873921 
883	 0.26266643014959 
884	 0.264549131438665 
885	 0.266794267006934 
886	 0.268301764678044 
887	 0.268147631064491 
888	 0.268463253371199 
889	 0.27210143043353 
890	 0.273851061665467 
891	 0.274079955329031 
892	 0.278278157170419 
893	 0.281380973903631 
894	 0.281514080873281 
895	 0.283256577063043 
896	 0.285581508912535 
897	 0.286800160677214 
898	 0.287529036978776 
899	 0.288481443617636 
900	 0.291166434936045 
901	 0.293622668119601 
902	 0.294872375399239 
903	 0.29389400213567 
904	 0.29343735982639 
905	 0.295545148325537 
906	 0.297852502718446 
907	 0.29972938552792 
908	 0.300627991667354 
909	 0.303000925566756 
910	 0.306115882792618 
911	 0.304225123136442 
912	 0.303481628968013 
913	 0.306676227897212 
914	 0.306184821025332 
915	 0.305235485058646 
916	 0.308360630977758 
917	 0.307440370965262 
918	 0.304599554534124 
919	 0.310496016281534 
920	 0.314072656375486 
921	 0.312416803412864 
922	 0.311336162349612 
923	 0.312364090906205 
924	 0.316412091257544 
925	 0.318675388532137 
926	 0.320211718088029 
927	 0.325627709039094 
928	 0.329717772560747 
929	 0.330128594637274 
930	 0.325327552731355 
931	 0.32668586842507 
932	 0.342024850620314 
933	 0.348214348873361 
934	 0.346667985863618 
935	 0.346058223040464 
936	 0.345716833166743 
937	 0.34677322941716 
938	 0.352230897335247 
939	 0.349853434201427 
940	 0.340295584794093 
941	 0.345210134941359 
942	 0.348391138915553 
943	 0.339651764219119 
944	 0.340061419990851 
945	 0.345551810189702 
946	 0.345456453176365 
947	 0.339550854414385 
948	 0.334809811696924 
949	 0.355158244204336 
950	 0.364074535650404 
951	 0.351077423445491 
952	 0.345123185093835 
953	 0.343884173281156 
954	 0.343617854914 
955	 0.3431570796952 
956	 0.345153584619005 
957	 0.355597977530506 
958	 0.352690516984921 
959	 0.339196912576324 
960	 0.3430595265948 
961	 0.346654055376007 
962	 0.343111768176182 
963	 0.343599666606056 
964	 0.34462594518424 
965	 0.342486557708359 
966	 0.344626750926519 
967	 0.346617415886773 
968	 0.337175253596944 
969	 0.336589398677726 
970	 0.344726567504886 
971	 0.338835229056442 
972	 0.335685635105615 
973	 0.342728990040954 
974	 0.343382697967902 
975	 0.341706900346093 
976	 0.343634015891344 
977	 0.343451619191294 
978	 0.34125900529562 
979	 0.339297387543117 
980	 0.338910336456636 
981	 0.341125777475508 
982	 0.348161434728105 
983	 0.351209784088194 
984	 0.347224946699017 
985	 0.347496936381565 
986	 0.34727473546404 
987	 0.341391481547976 
988	 0.343552623372197 
989	 0.350246100674955 
990	 0.349892366337996 
991	 0.349424867715209 
992	 0.350683447116098 
993	 0.353219640145355 
994	 0.356374902362949 
995	 0.359080116482284 
996	 0.35981589807594 
997	 0.355013028427192 
998	 0.343234271720655 
999	 0.346067753500397 
1000	 0.35573005845191 
1001	 0.352661005050195 
1002	 0.358616966080748 
1003	 0.370465454356533 
1004	 0.359802579224725 
1005	 0.350887210031474 
1006	 0.354212799221518 
1007	 0.36672394995646 
1008	 0.374515343603132 
1009	 0.36762352196455 
1010	 0.363373852989817 
1011	 0.364638037801882 
1012	 0.371183171829371 
1013	 0.374461567802374 
1014	 0.37202243938548 
1015	 0.36275733956891 
1016	 0.358682162970999 
1017	 0.363599269976865 
1018	 0.375801274111901 
1019	 0.378805510461275 
1020	 0.367253562512379 
1021	 0.37340810704555 
1022	 0.385301681476154 
1023	 0.388610470449837 
1024	 0.380045338936194 
1025	 0.368342389368378 
1026	 0.369356476607159 
1027	 0.380038768325832 
1028	 0.393627186308145 
1029	 0.393925160794497 
1030	 0.389097644825704 
1031	 0.385443298826251 
1032	 0.398080716305766 
1033	 0.404248744546812 
1034	 0.390655372269282 
1035	 0.374245496636015 
1036	 0.365367421312673 
1037	 0.372960152624734 
1038	 0.378180841716636 
1039	 0.379304080422658 
1040	 0.380066337494346 
1041	 0.381395787338584 
1042	 0.382811039671303 
1043	 0.384923749076407 
1044	 0.368689715034065 
1045	 0.339928652283122 
1046	 0.354444398293112 
1047	 0.376573494221272 
1048	 0.383483371071817 
1049	 0.376679806082778 
1050	 0.369268107673799 
1051	 0.371761933235646 
1052	 0.362366322126958 
1053	 0.350785725767167 
1054	 0.35887576808465 
1055	 0.385222595278177 
1056	 0.416939732727008 
1057	 0.425373001031858 
1058	 0.396648741516325 
1059	 0.349471262625412 
1060	 0.353244557205636 
1061	 0.366909421542341 
1062	 0.37657962765178 
1063	 0.404458356537937 
1064	 0.405882384348016 
1065	 0.36241406367988 
1066	 0.359844999707092 
1067	 0.376284049188228 
1068	 0.369782720334331 
1069	 0.311887547614064 
1070	 0.268232622550766 
1071	 0.37006458000495 
1072	 0.36897041613162 
1073	 0.27667809234741 
1074	 0.304871504382565 
1075	 0.32684918013905 
