Wavelength	SHSI00067.asd
325	 8.42562727145796E-02 
326	 0.084795190445889 
327	 8.86581148805153E-02 
328	 9.06207046543678E-02 
329	 9.10491804590487E-02 
330	 8.98739961166465E-02 
331	 0.08507300846269 
332	 8.34863177868005E-02 
333	 9.08310005133818E-02 
334	 9.13401349095355E-02 
335	 8.77649946897035E-02 
336	 9.34201026889842E-02 
337	 9.69241385842868E-02 
338	 9.51347298163974E-02 
339	 8.97525341650593E-02 
340	 8.67817512894865E-02 
341	 0.09044354085717 
342	 9.21873413245247E-02 
343	 9.18060606075844E-02 
344	 9.17476202200057E-02 
345	 9.00029837297491E-02 
346	 8.77202006378764E-02 
347	 9.10272854904248E-02 
348	 9.34856211494683E-02 
349	 9.13186229682855E-02 
350	 9.16195922559165E-02 
351	 9.38044673582716E-02 
352	 9.56513621062649E-02 
353	 9.60898642114383E-02 
354	 9.55197254795019E-02 
355	 9.67071255730685E-02 
356	 9.74058554187139E-02 
357	 9.65122623446158E-02 
358	 9.66813696097714E-02 
359	 9.75315339393682E-02 
360	 9.79966902764644E-02 
361	 9.85952272133411E-02 
362	 0.099114578905379 
363	 9.86189913177528E-02 
364	 9.77570725741641E-02 
365	 9.71399403627733E-02 
366	 0.098279802426993 
367	 9.92841091104854E-02 
368	 9.74872214938838E-02 
369	 9.84126189956441E-02 
370	 0.1012419185042 
371	 9.87838255443034E-02 
372	 9.70536651510854E-02 
373	 9.87421234706472E-02 
374	 9.82784000079154E-02 
375	 9.67718833598921E-02 
376	 9.65281100933517E-02 
377	 9.54448802313786E-02 
378	 9.40304475967156E-02 
379	 9.54305477659376E-02 
380	 9.65949969640711E-02 
381	 9.59600530254338E-02 
382	 9.43903994850849E-02 
383	 9.30138408545607E-02 
384	 9.31414474576008E-02 
385	 9.27329170128551E-02 
386	 9.15807505132407E-02 
387	 9.06251385484096E-02 
388	 8.98394854885334E-02 
389	 8.93571332136147E-02 
390	 8.98099301429679E-02 
391	 9.06887222918191E-02 
392	 9.13555370510921E-02 
393	 0.091715934456482 
394	 9.15097392314578E-02 
395	 9.01821540545196E-02 
396	 8.88240964552706E-02 
397	 8.78936577960548E-02 
398	 8.68514147137626E-02 
399	 8.58837136225563E-02 
400	 8.51856668202381E-02 
401	 8.50327342742214E-02 
402	 8.54459644844597E-02 
403	 8.65950272001399E-02 
404	 8.71268728350956E-02 
405	 8.65949529742336E-02 
406	 8.61770054651322E-02 
407	 8.57332639814977E-02 
408	 0.084963902644582 
409	 0.084091044010812 
410	 8.33896076856178E-02 
411	 8.34132767706015E-02 
412	 8.35935623685649E-02 
413	 8.36674729041026E-02 
414	 8.40041834071718E-02 
415	 8.40883867730199E-02 
416	 8.32495105988185E-02 
417	 8.26277074667326E-02 
418	 8.25010056512842E-02 
419	 8.27707178341128E-02 
420	 8.31893602125444E-02 
421	 8.34883971066713E-02 
422	 0.082972262963729 
423	 0.082153844874552 
424	 8.18535508770543E-02 
425	 8.21044244096141E-02 
426	 8.26195138847011E-02 
427	 8.23058160199315E-02 
428	 8.20192163618493E-02 
429	 8.22309220851451E-02 
430	 8.19523024350804E-02 
431	 8.13945126821313E-02 
432	 8.11278758488132E-02 
433	 8.07281691438481E-02 
434	 8.03031539101124E-02 
435	 8.05694703868088E-02 
436	 8.09216293292803E-02 
437	 8.09525901367688E-02 
438	 8.08688729397201E-02 
439	 8.08333649509134E-02 
440	 0.081090690489329 
441	 8.14391013381485E-02 
442	 8.16521670769837E-02 
443	 8.10414193581445E-02 
444	 8.06940828966457E-02 
445	 8.14216157878024E-02 
446	 8.19046185122342E-02 
447	 8.20794782035933E-02 
448	 8.23452197818771E-02 
449	 8.24340213112651E-02 
450	 8.23894091248182E-02 
451	 8.28168997768836E-02 
452	 8.32740344574705E-02 
453	 8.33200148321378E-02 
454	 8.36001157988937E-02 
455	 8.40456177578067E-02 
456	 8.41213089001616E-02 
457	 8.41726409451119E-02 
458	 8.43002359462326E-02 
459	 8.42288585135242E-02 
460	 8.41624099498893E-02 
461	 8.43542995191734E-02 
462	 8.43264063968405E-02 
463	 8.42490259324295E-02 
464	 8.50058330909656E-02 
465	 8.56763785822835E-02 
466	 8.58027428701979E-02 
467	 8.58779112169764E-02 
468	 8.60009014854013E-02 
469	 0.086238240762771 
470	 8.61390981154141E-02 
471	 8.58403465490583E-02 
472	 8.62277227264904E-02 
473	 8.66738484510119E-02 
474	 8.68211737840553E-02 
475	 8.72944999073317E-02 
476	 8.78308023502263E-02 
477	 8.78256922492761E-02 
478	 8.80845338137125E-02 
479	 8.85731299312316E-02 
480	 8.81532685756085E-02 
481	 8.75812718491621E-02 
482	 0.087533848964848 
483	 8.82258936970837E-02 
484	 8.91088246683642E-02 
485	 8.87877914740346E-02 
486	 8.85018756014691E-02 
487	 8.85872852102108E-02 
488	 8.82250451441478E-02 
489	 8.79935302883045E-02 
490	 8.84683546371155E-02 
491	 8.85382053894068E-02 
492	 8.83705840018252E-02 
493	 8.90694839797447E-02 
494	 8.95630974185872E-02 
495	 8.95299093259902E-02 
496	 9.01137462500764E-02 
497	 9.07527702249687E-02 
498	 9.06014481954181E-02 
499	 9.09323812019858E-02 
500	 0.091795149517471 
501	 9.22493015699379E-02 
502	 9.25727937702295E-02 
503	 9.29447578788358E-02 
504	 9.33976419969969E-02 
505	 9.39923902178665E-02 
506	 9.48085895589217E-02 
507	 9.57107589587457E-02 
508	 9.65907560031306E-02 
509	 9.72446660388216E-02 
510	 9.78093587407355E-02 
511	 9.84139130992986E-02 
512	 9.91377311757048E-02 
513	 0.100005224402181 
514	 0.101078309623727 
515	 0.101899916632327 
516	 0.10239942615282 
517	 0.103276211879094 
518	 0.104140907971368 
519	 0.104536605272739 
520	 0.104899818715024 
521	 0.10546069289826 
522	 0.106628052039026 
523	 0.107529524130539 
524	 0.107886344376749 
525	 0.10873083719392 
526	 0.109878951871354 
527	 0.110913145262613 
528	 0.111663151078345 
529	 0.112182199638346 
530	 0.112833489265334 
531	 0.113739580926267 
532	 0.114927175977865 
533	 0.115797822517584 
534	 0.116442781753281 
535	 0.117232591753519 
536	 0.117948947054526 
537	 0.118632488199919 
538	 0.119738632833543 
539	 0.12082664200896 
540	 0.121462193125921 
541	 0.122039948196721 
542	 0.122640191449354 
543	 0.123223329852433 
544	 0.123976782092579 
545	 0.124946588111227 
546	 0.125881678751123 
547	 0.126676205340811 
548	 0.127228993315123 
549	 0.127977936141995 
550	 0.128942758508974 
551	 0.129800014623365 
552	 0.130521873931524 
553	 0.13111015460895 
554	 0.131780565497623 
555	 0.13251689234342 
556	 0.133244759118594 
557	 0.133763954645772 
558	 0.134092180971168 
559	 0.134641402530221 
560	 0.135260386739821 
561	 0.135789843974238 
562	 0.136246431022106 
563	 0.136652937640808 
564	 0.137091078407678 
565	 0.137378494389711 
566	 0.137489471112121 
567	 0.137754196508762 
568	 0.138071884349541 
569	 0.138274842075036 
570	 0.138476437690607 
571	 0.138646423640825 
572	 0.138619938065954 
573	 0.138486240385849 
574	 0.138338126935287 
575	 0.138390249178547 
576	 0.138625012600573 
577	 0.138972566184042 
578	 0.13901733802134 
579	 0.138792953913199 
580	 0.139111262160224 
581	 0.139487801471281 
582	 0.13949509783276 
583	 0.139655673325146 
584	 0.139916629960888 
585	 0.139921434391244 
586	 0.139799703542547 
587	 0.139650708081135 
588	 0.139770387323957 
589	 0.139933265696735 
590	 0.139808894175525 
591	 0.139793956451702 
592	 0.139946745115409 
593	 0.140123430801952 
594	 0.140311417792085 
595	 0.140500722841288 
596	 0.140737223714072 
597	 0.1409229226431 
598	 0.14088587923199 
599	 0.140789391041143 
600	 0.140702938268129 
601	 0.140655296750227 
602	 0.140675047698324 
603	 0.140768160129574 
604	 0.140745441701728 
605	 0.140553181439352 
606	 0.140146541868084 
607	 0.139729721171261 
608	 0.139371808337292 
609	 0.138887288427818 
610	 0.138371823356066 
611	 0.137960164495726 
612	 0.137208566320657 
613	 0.136296079565872 
614	 0.136157150705977 
615	 0.136114911736364 
616	 0.135734339188192 
617	 0.13515899998465 
618	 0.134447705295777 
619	 0.133620156100561 
620	 0.133314611944155 
621	 0.133526108234218 
622	 0.133289946490734 
623	 0.133024655842678 
624	 0.133118713958497 
625	 0.133194345756391 
626	 0.133130953023091 
627	 0.132787798711686 
628	 0.132532839602945 
629	 0.132507655041632 
630	 0.132472510706014 
631	 0.132523445411837 
632	 0.13279642893888 
633	 0.132847662769531 
634	 0.132677525854768 
635	 0.132692252006353 
636	 0.132590273768504 
637	 0.132281956815256 
638	 0.132508907399857 
639	 0.133004530320121 
640	 0.133152832474203 
641	 0.132938533605484 
642	 0.132567347101615 
643	 0.132973834287753 
644	 0.133512304883172 
645	 0.133591974554878 
646	 0.133567526999208 
647	 0.133452946132575 
648	 0.13315904523392 
649	 0.132697181241915 
650	 0.132081649397932 
651	 0.131294708924279 
652	 0.130552217909214 
653	 0.130084669639276 
654	 0.128989834089182 
655	 0.127431786845873 
656	 0.127187882953067 
657	 0.126150656789073 
658	 0.123406175543866 
659	 0.121452556224963 
660	 0.120014274987966 
661	 0.118239136518542 
662	 0.116152224231968 
663	 0.113867777044172 
664	 0.11186985246506 
665	 0.110188329946652 
666	 0.108801838955332 
667	 0.10730074161636 
668	 0.105772663900979 
669	 0.104584090693751 
670	 0.103697378850696 
671	 0.103085906612286 
672	 0.102611193559134 
673	 0.102270504036487 
674	 0.102073582169984 
675	 0.102067730693398 
676	 0.102260337171402 
677	 0.102672133479789 
678	 0.103054151040335 
679	 0.103368285196308 
680	 0.104388461035716 
681	 0.105770781419814 
682	 0.106816815367164 
683	 0.10823933945702 
684	 0.11017880836013 
685	 0.112373451218163 
686	 0.115225525822781 
687	 0.119005686855737 
688	 0.122577506747943 
689	 0.125767885406539 
690	 0.129519314387292 
691	 0.133352165871528 
692	 0.137331256203078 
693	 0.142013556787654 
694	 0.146700501301053 
695	 0.150483039330503 
696	 0.154742790203978 
697	 0.15932011660735 
698	 0.163284486936031 
699	 0.166995318342279 
700	 0.170524921308942 
701	 0.173805846580679 
702	 0.176950472805179 
703	 0.180138884942283 
704	 0.183119352942672 
705	 0.185760881214751 
706	 0.187652208065497 
707	 0.189535697077861 
708	 0.191859558850641 
709	 0.193990014363718 
710	 0.195900270335973 
711	 0.197737950479006 
712	 0.199257302029186 
713	 0.200520754135573 
714	 0.202202006014776 
715	 0.203700403413478 
716	 0.20453649868704 
717	 0.205817791246888 
718	 0.207441838663224 
719	 0.207999848149563 
720	 0.208576853837965 
721	 0.209494514561676 
722	 0.210312464747786 
723	 0.211221163558059 
724	 0.212386075590538 
725	 0.213172753680055 
726	 0.213523714954351 
727	 0.213909323771826 
728	 0.214643172184675 
729	 0.215757155603218 
730	 0.216191746457153 
731	 0.216363315767822 
732	 0.217007008434237 
733	 0.217399060692329 
734	 0.217494917632627 
735	 0.217623355182823 
736	 0.217879022211372 
737	 0.218297800252604 
738	 0.218577990452076 
739	 0.218894777019203 
740	 0.219687467413966 
741	 0.220099403401837 
742	 0.220063263028985 
743	 0.220493383615847 
744	 0.221110797859991 
745	 0.221618802399814 
746	 0.221599570711877 
747	 0.221329788904536 
748	 0.221613544568943 
749	 0.222107069255689 
750	 0.222631536147885 
751	 0.222928411376248 
752	 0.222938996980944 
753	 0.222674443749413 
754	 0.223142626818565 
755	 0.224037660577922 
756	 0.223945723292098 
757	 0.223351050533771 
758	 0.22263307216799 
759	 0.223540925310768 
760	 0.226536216043294 
761	 0.228876336820453 
762	 0.228903908626477 
763	 0.227655349662463 
764	 0.22782188632756 
765	 0.228156614528472 
766	 0.228188836339457 
767	 0.227971106282618 
768	 0.227655228481661 
769	 0.227380900935608 
770	 0.227285194236687 
771	 0.227396495309485 
772	 0.22762007913481 
773	 0.227959550164828 
774	 0.228382324945144 
775	 0.228634470607531 
776	 0.22881769483883 
777	 0.229212406810459 
778	 0.229274195426495 
779	 0.229055740415909 
780	 0.229476096025791 
781	 0.230016970785645 
782	 0.230215377973826 
783	 0.229898437035431 
784	 0.229498872697402 
785	 0.229994589100354 
786	 0.23042858350083 
787	 0.230547233765197 
788	 0.230785528447217 
789	 0.231075964401833 
790	 0.231298287440983 
791	 0.230862145245578 
792	 0.230296604212347 
793	 0.231194286523467 
794	 0.231667119497041 
795	 0.231296825046904 
796	 0.231745586434686 
797	 0.232176837437163 
798	 0.231714952905155 
799	 0.231431673710909 
800	 0.231524554882032 
801	 0.23189172138868 
802	 0.232495237146636 
803	 0.233161649286993 
804	 0.233244526067301 
805	 0.233133765016062 
806	 0.23329692320377 
807	 0.233429046671975 
808	 0.233576609028648 
809	 0.23406650631612 
810	 0.234355394619447 
811	 0.23425836352078 
812	 0.234246030551227 
813	 0.234542154175543 
814	 0.235369034847702 
815	 0.236238289340711 
816	 0.236805470310423 
817	 0.236541365414574 
818	 0.236445346447855 
819	 0.236934013310079 
820	 0.237510309034784 
821	 0.237998435597252 
822	 0.238232667374004 
823	 0.238324850093208 
824	 0.238386997832014 
825	 0.23867365052578 
826	 0.238819564179503 
827	 0.238757821276476 
828	 0.239081551216986 
829	 0.23939800542959 
830	 0.239188434074273 
831	 0.239442891854187 
832	 0.240065135806126 
833	 0.240181494748339 
834	 0.240129402578056 
835	 0.23999291450839 
836	 0.239463284287814 
837	 0.238830584828601 
838	 0.238451540287096 
839	 0.238694241289486 
840	 0.239275482012089 
841	 0.239175707994477 
842	 0.239101462222496 
843	 0.239272554073105 
844	 0.239132021720972 
845	 0.23907602186327 
846	 0.239528475565006 
847	 0.238774538599874 
848	 0.237410233878703 
849	 0.238158624351502 
850	 0.239139489506615 
851	 0.23947291642609 
852	 0.238813864712926 
853	 0.238386952008878 
854	 0.239396669190554 
855	 0.239025488166258 
856	 0.23768263744212 
857	 0.237750507141625 
858	 0.238084891073263 
859	 0.238268812319481 
860	 0.238126554858219 
861	 0.237916960436148 
862	 0.237882653529338 
863	 0.237605565072679 
864	 0.237326457767459 
865	 0.237741743290199 
866	 0.238478544721727 
867	 0.239180001771899 
868	 0.23896407876582 
869	 0.238632731326286 
870	 0.238940119650713 
871	 0.240276639695164 
872	 0.241823200985393 
873	 0.241944131309684 
874	 0.241600698445967 
875	 0.241361129474035 
876	 0.24221096627642 
877	 0.243139326431846 
878	 0.243500320718088 
879	 0.244490049496787 
880	 0.245643828405692 
881	 0.245972455707244 
882	 0.246031472008309 
883	 0.246064712335496 
884	 0.246231492101892 
885	 0.247035887766322 
886	 0.248515360376689 
887	 0.248796475661357 
888	 0.248862278198947 
889	 0.250251922814485 
890	 0.250683998463161 
891	 0.250086989168936 
892	 0.249807491391183 
893	 0.250466132783345 
894	 0.252151082181826 
895	 0.253098469332316 
896	 0.253028537502345 
897	 0.251946460301344 
898	 0.252258216781061 
899	 0.253734107997348 
900	 0.254245474598006 
901	 0.255340292839176 
902	 0.257031613868487 
903	 0.257472553846492 
904	 0.256952937432291 
905	 0.25588599270499 
906	 0.255289942079272 
907	 0.255382623660721 
908	 0.256188759292848 
909	 0.257142084279063 
910	 0.257700379735477 
911	 0.256811054389414 
912	 0.255816581661398 
913	 0.25568775505228 
914	 0.256865104280721 
915	 0.258260598666173 
916	 0.258511380593407 
917	 0.25680439460101 
918	 0.254368488636045 
919	 0.25468527468845 
920	 0.255642104837622 
921	 0.256522928677705 
922	 0.257951223479446 
923	 0.258430921473996 
924	 0.256777370216326 
925	 0.256034145747805 
926	 0.255569665820949 
927	 0.252650437493874 
928	 0.252407041741616 
929	 0.25552135693934 
930	 0.254893593313045 
931	 0.254678370029289 
932	 0.257711558222297 
933	 0.257520999033673 
934	 0.255297355938463 
935	 0.25443192734259 
936	 0.255527720643714 
937	 0.257731264588117 
938	 0.258383774154767 
939	 0.258894942649415 
940	 0.25935720668739 
941	 0.258363395462303 
942	 0.257196791372482 
943	 0.256542266501114 
944	 0.253214439920328 
945	 0.250566353843427 
946	 0.254244538723441 
947	 0.255836829272466 
948	 0.254266448763222 
949	 0.253178786095496 
950	 0.253583631464218 
951	 0.255277778851021 
952	 0.254755505312704 
953	 0.251647914943783 
954	 0.246411124410492 
955	 0.244916730649655 
956	 0.246948729751757 
957	 0.250072666065279 
958	 0.253796806540339 
959	 0.255588225383301 
960	 0.248076889677238 
961	 0.243387984272413 
962	 0.246638054616726 
963	 0.250922442800757 
964	 0.252192685826111 
965	 0.24775875321611 
966	 0.248019966360498 
967	 0.252027170783244 
968	 0.25461442352208 
969	 0.255524477559001 
970	 0.254499585187652 
971	 0.251342891829775 
972	 0.249440315728517 
973	 0.25082584912929 
974	 0.255379607070273 
975	 0.258099077257864 
976	 0.253978601148732 
977	 0.253176424986534 
978	 0.254353563543199 
979	 0.250096276525615 
980	 0.24829496560978 
981	 0.250861831619551 
982	 0.256399011371965 
983	 0.257539010301863 
984	 0.25189002286402 
985	 0.251340084749531 
986	 0.253592016444567 
987	 0.254837832117294 
988	 0.253910876092433 
989	 0.25203246479033 
990	 0.252136714872344 
991	 0.254428792635269 
992	 0.258170335012269 
993	 0.260931273167743 
994	 0.259684589847202 
995	 0.254074848231631 
996	 0.25130363288952 
997	 0.251793110327767 
998	 0.254896284654656 
999	 0.257320364541529 
1000	 0.25954444097681 
1001	 0.263503881956689 
1002	 0.262608457830636 
1003	 0.257614526024968 
1004	 0.255866704601451 
1005	 0.25738361830774 
1006	 0.260283889674979 
1007	 0.254745660660112 
1008	 0.248159037308842 
1009	 0.246592761386785 
1010	 0.245564047291536 
1011	 0.247401234421748 
1012	 0.255420499441192 
1013	 0.26078419382591 
1014	 0.261929111103331 
1015	 0.260566477719635 
1016	 0.258073940722973 
1017	 0.255981091980237 
1018	 0.256439947968025 
1019	 0.260645220939275 
1020	 0.267482319530683 
1021	 0.26870631800563 
1022	 0.264037589284955 
1023	 0.255354191988027 
1024	 0.258608396976762 
1025	 0.267411522539059 
1026	 0.267071711620328 
1027	 0.261450667646195 
1028	 0.2556946225479 
1029	 0.262220410161353 
1030	 0.266069029083185 
1031	 0.262983591942511 
1032	 0.260157257553506 
1033	 0.257613696626897 
1034	 0.2560003419275 
1035	 0.259856645540908 
1036	 0.260438072855658 
1037	 0.249930148408654 
1038	 0.253496152876154 
1039	 0.261734410487296 
1040	 0.251326474064144 
1041	 0.247180763682172 
1042	 0.253997500824356 
1043	 0.268247296756442 
1044	 0.265768698792576 
1045	 0.246401960042063 
1046	 0.250558094310063 
1047	 0.254359052100383 
1048	 0.246100577045391 
1049	 0.251763350201923 
1050	 0.258535019011746 
1051	 0.252546735367426 
1052	 0.238417046916514 
1053	 0.229903395376941 
1054	 0.244762924097991 
1055	 0.246712456274173 
1056	 0.235703875186113 
1057	 0.230866423532062 
1058	 0.23167275721438 
1059	 0.240773603724283 
1060	 0.265771109911632 
1061	 0.285784635847578 
1062	 0.28527799325039 
1063	 0.243311171458002 
1064	 0.214540495264647 
1065	 0.236953873549827 
1066	 0.257230175197927 
1067	 0.264145458741349 
1068	 0.255195799196817 
1069	 0.247973592746741 
1070	 0.248825281077847 
1071	 0.260283472341442 
1072	 0.25348580257077 
1073	 0.236949213265957 
1074	 0.249811287289895 
1075	 0.250497199242935 
