Wavelength	SHSI00126.asd
325	 3.59085486767761E-02 
326	 3.54230836044696E-02 
327	 4.38671483795524E-02 
328	 4.83414385638738E-02 
329	 4.35951230526987E-02 
330	 3.22639855437091E-02 
331	 3.73561558862192E-02 
332	 4.70179037698933E-02 
333	 4.85244925842861E-02 
334	 4.59950141295403E-02 
335	 0.041823002233131 
336	 3.87993085208552E-02 
337	 4.15055187427867E-02 
338	 4.84086666061612E-02 
339	 4.58198142579244E-02 
340	 0.042752059441351 
341	 4.65329323440686E-02 
342	 0.048403981563516 
343	 0.047277681974438 
344	 4.35039404524177E-02 
345	 4.19944901908505E-02 
346	 4.28712829685924E-02 
347	 4.06676845960028E-02 
348	 3.85869773302378E-02 
349	 0.038796782747975 
350	 4.02326256155804E-02 
351	 4.10314581944773E-02 
352	 3.84570122719257E-02 
353	 3.91969815305242E-02 
354	 4.29959438806824E-02 
355	 4.28649752949706E-02 
356	 4.16929197616514E-02 
357	 4.13636428255455E-02 
358	 4.18703418726049E-02 
359	 4.15304359700246E-02 
360	 3.78111961091064E-02 
361	 0.036463546814192 
362	 3.75910328734046E-02 
363	 3.61433740839981E-02 
364	 3.64835269125899E-02 
365	 4.00364413679369E-02 
366	 4.02328099073212E-02 
367	 3.87025929592449E-02 
368	 3.84540128930998E-02 
369	 3.95550017087305E-02 
370	 4.12688805624528E-02 
371	 4.10455529379762E-02 
372	 4.02970047660568E-02 
373	 3.99688617085596E-02 
374	 4.12988857098261E-02 
375	 4.17103121664012E-02 
376	 3.76622203629145E-02 
377	 3.66573642963704E-02 
378	 3.88812880430092E-02 
379	 3.84969260439197E-02 
380	 3.76852069258391E-02 
381	 3.73625603322426E-02 
382	 3.61773704715623E-02 
383	 3.52550444832032E-02 
384	 3.61649382620023E-02 
385	 3.66825480374579E-02 
386	 3.65032659282864E-02 
387	 3.67136458443627E-02 
388	 3.58798199553991E-02 
389	 3.42116562699413E-02 
390	 3.71006355815302E-02 
391	 4.00009505957328E-02 
392	 3.75115295816344E-02 
393	 3.64456489664675E-02 
394	 3.72256589556344E-02 
395	 3.65032185632804E-02 
396	 0.036173487518849 
397	 3.69275558079885E-02 
398	 3.81910907447011E-02 
399	 3.85605097122083E-02 
400	 3.68524271092583E-02 
401	 3.62253468151347E-02 
402	 3.66323646922823E-02 
403	 3.64485959794387E-02 
404	 0.036119677707209 
405	 3.58542638912137E-02 
406	 3.58311618471332E-02 
407	 3.60879673222916E-02 
408	 3.66354368089003E-02 
409	 3.72313305964447E-02 
410	 3.74057151145924E-02 
411	 3.58627207999888E-02 
412	 3.53047993526859E-02 
413	 3.66061796263577E-02 
414	 3.63115201442634E-02 
415	 3.56040926027326E-02 
416	 3.64178421098247E-02 
417	 3.68900207385775E-02 
418	 3.67135819037322E-02 
419	 3.62847775504048E-02 
420	 0.036097090709176 
421	 3.62905948569879E-02 
422	 3.55963224512157E-02 
423	 3.49163788528682E-02 
424	 3.57373437171604E-02 
425	 3.64033727009006E-02 
426	 3.65103348292179E-02 
427	 3.62056809200517E-02 
428	 0.036292111629348 
429	 3.71608913315512E-02 
430	 3.75166177457781E-02 
431	 3.72565170124819E-02 
432	 3.65048503974243E-02 
433	 3.62845873078505E-02 
434	 3.66306812481782E-02 
435	 3.64942531766305E-02 
436	 3.61822610261006E-02 
437	 3.59148153163231E-02 
438	 3.55883788238945E-02 
439	 0.0355125048571 
440	 3.63034886190988E-02 
441	 3.67830271239696E-02 
442	 3.66746652080939E-02 
443	 0.036527643636433 
444	 3.65441002798992E-02 
445	 3.68308246498238E-02 
446	 3.68118565474735E-02 
447	 3.65974841518339E-02 
448	 3.66332944610223E-02 
449	 3.68440083485223E-02 
450	 3.70618079140165E-02 
451	 3.65554595194851E-02 
452	 3.60334156495351E-02 
453	 3.62096629730939E-02 
454	 3.63530832680378E-02 
455	 3.64678669512414E-02 
456	 3.70683344689311E-02 
457	 3.71814435351071E-02 
458	 3.65805125254867E-02 
459	 3.65683100210775E-02 
460	 0.036679048350446 
461	 3.62546163996612E-02 
462	 3.65304347271001E-02 
463	 3.73041851252901E-02 
464	 3.70705505545543E-02 
465	 3.69319172918087E-02 
466	 3.73050823372482E-02 
467	 3.68854506165291E-02 
468	 3.62387980768224E-02 
469	 3.63829852821738E-02 
470	 3.67977398712309E-02 
471	 3.73214146159822E-02 
472	 0.038007291642744 
473	 3.81202398968257E-02 
474	 3.73167045476887E-02 
475	 0.036875858977658 
476	 3.67890753040981E-02 
477	 3.66447266221178E-02 
478	 3.71841611445262E-02 
479	 3.81810099034318E-02 
480	 3.79661207021588E-02 
481	 3.72876304818795E-02 
482	 3.68780445391897E-02 
483	 3.74849088928432E-02 
484	 3.86298485326427E-02 
485	 3.89614411283075E-02 
486	 3.85118243796873E-02 
487	 3.75377274066334E-02 
488	 3.74569947170625E-02 
489	 3.78500761383193E-02 
490	 3.81605587875539E-02 
491	 0.038432756338395 
492	 3.87003189005192E-02 
493	 0.039216997917359 
494	 3.91086819833783E-02 
495	 3.82131605105552E-02 
496	 3.81084138584993E-02 
497	 3.83180360548683E-02 
498	 3.80280643284088E-02 
499	 3.76875107192163E-02 
500	 3.75673755489069E-02 
501	 3.81984354151974E-02 
502	 3.88740927707503E-02 
503	 3.91478325913741E-02 
504	 3.93229742017651E-02 
505	 3.93585898381682E-02 
506	 3.90781878794612E-02 
507	 3.94956271968453E-02 
508	 4.04615004707156E-02 
509	 4.01738900365952E-02 
510	 3.96130027328445E-02 
511	 3.96105859655378E-02 
512	 3.99506018260604E-02 
513	 4.03388576942309E-02 
514	 4.01664418819129E-02 
515	 3.99178947871175E-02 
516	 3.98909366046719E-02 
517	 4.07023591482991E-02 
518	 4.12640096506163E-02 
519	 4.04465485749379E-02 
520	 4.04805381704949E-02 
521	 0.041308023743173 
522	 4.14895820056785E-02 
523	 4.15123130298929E-02 
524	 4.16385626105355E-02 
525	 4.22619480872494E-02 
526	 4.27595812606203E-02 
527	 4.22036881268812E-02 
528	 4.17281139404813E-02 
529	 4.17679133800671E-02 
530	 0.042716446125291 
531	 4.33162730663799E-02 
532	 4.28582464776057E-02 
533	 0.043078098198989 
534	 4.37219191681939E-02 
535	 4.38031985524594E-02 
536	 0.043682192447576 
537	 4.35390459885346E-02 
538	 4.37468807931087E-02 
539	 4.38750660013724E-02 
540	 4.35496097646098E-02 
541	 4.40691797565492E-02 
542	 4.49916888160408E-02 
543	 4.44238676863089E-02 
544	 4.40968891627418E-02 
545	 4.45835533748834E-02 
546	 0.04456476374019 
547	 4.44181169395615E-02 
548	 4.47837520404855E-02 
549	 4.47767346531883E-02 
550	 4.45030820411936E-02 
551	 4.51010701453649E-02 
552	 4.56571417910438E-02 
553	 4.56005213267263E-02 
554	 4.53188195259228E-02 
555	 4.51447984031874E-02 
556	 4.56109997557118E-02 
557	 4.57687715596854E-02 
558	 0.045530075922549 
559	 4.60672230087569E-02 
560	 4.65480157983724E-02 
561	 4.61936262053513E-02 
562	 4.56404075841718E-02 
563	 4.52636172155149E-02 
564	 0.045648171238855 
565	 4.63060224753921E-02 
566	 4.68404261844779E-02 
567	 4.62665588651432E-02 
568	 4.56377357900589E-02 
569	 4.63931800033554E-02 
570	 0.046584240505123 
571	 4.60739426615639E-02 
572	 4.61250533500627E-02 
573	 4.63392080834757E-02 
574	 4.64626228986195E-02 
575	 4.64340300640956E-02 
576	 4.63593922738121E-02 
577	 4.64623055077481E-02 
578	 0.046468171930286 
579	 4.64208073879154E-02 
580	 4.69789569505363E-02 
581	 4.71673290193393E-02 
582	 4.62546603246504E-02 
583	 4.65710726019322E-02 
584	 4.76928795065799E-02 
585	 4.74132168780875E-02 
586	 4.70279119251682E-02 
587	 4.70922046577618E-02 
588	 4.78765813792074E-02 
589	 4.83775589354256E-02 
590	 4.72683450121471E-02 
591	 4.69521106474912E-02 
592	 4.74656060133918E-02 
593	 4.67329118384801E-02 
594	 4.64357194507599E-02 
595	 4.74055500877084E-02 
596	 4.79333556778722E-02 
597	 4.79470648921199E-02 
598	 4.77276038312859E-02 
599	 4.76848514924181E-02 
600	 4.79289323716534E-02 
601	 4.81562929357956E-02 
602	 4.84779212187263E-02 
603	 4.89624390507575E-02 
604	 4.91930358019788E-02 
605	 4.91116373557089E-02 
606	 4.87496933150466E-02 
607	 4.84033257696777E-02 
608	 4.82760444361201E-02 
609	 4.85781702687431E-02 
610	 4.90848879010055E-02 
611	 4.94849510847448E-02 
612	 4.92333295425428E-02 
613	 4.85310328359589E-02 
614	 4.84560161355027E-02 
615	 4.87963913165954E-02 
616	 4.93420211431193E-02 
617	 4.94816564351711E-02 
618	 4.92996550207202E-02 
619	 4.90835753445764E-02 
620	 4.92482406301291E-02 
621	 4.98095638276454E-02 
622	 5.03020150181616E-02 
623	 5.01512159037566E-02 
624	 4.89914663328355E-02 
625	 4.88617569959538E-02 
626	 4.97452457726744E-02 
627	 5.05557508568787E-02 
628	 0.051189412838546 
629	 5.14617002803285E-02 
630	 5.10718654444399E-02 
631	 5.06488656066818E-02 
632	 5.09785673452934E-02 
633	 0.051178296092478 
634	 0.051248907440169 
635	 5.20205897876328E-02 
636	 5.22993165128985E-02 
637	 5.15325227527347E-02 
638	 0.051462832811001 
639	 0.051726916167907 
640	 5.12223320823604E-02 
641	 5.10980650457956E-02 
642	 0.051546617370897 
643	 5.18840546760202E-02 
644	 5.17341341620789E-02 
645	 5.08985873353542E-02 
646	 5.11557737641862E-02 
647	 5.21378741266422E-02 
648	 5.19869897257942E-02 
649	 5.13833828096876E-02 
650	 5.08365638547217E-02 
651	 5.17683963360198E-02 
652	 5.27189402401997E-02 
653	 5.18523821994473E-02 
654	 5.13513304821077E-02 
655	 5.14699404128997E-02 
656	 5.11169540303483E-02 
657	 5.09402239027642E-02 
658	 5.12612401957478E-02 
659	 0.051514908346955 
660	 5.16743143939686E-02 
661	 5.18558013265352E-02 
662	 5.12926088017503E-02 
663	 0.050296392460367 
664	 5.11353757875009E-02 
665	 5.19250610647004E-02 
666	 5.11246117704366E-02 
667	 5.06133848941408E-02 
668	 5.04458225517516E-02 
669	 4.97838430321904E-02 
670	 0.049796516446953 
671	 5.06693710245091E-02 
672	 5.07960871131855E-02 
673	 5.08639901516047E-02 
674	 5.17793576802996E-02 
675	 5.25289554952874E-02 
676	 5.26767988798943E-02 
677	 5.14114402360258E-02 
678	 5.13112902453805E-02 
679	 0.053372602564195 
680	 5.36569978681488E-02 
681	 5.30201870547224E-02 
682	 5.35796171423869E-02 
683	 5.41443646108382E-02 
684	 5.45751793762466E-02 
685	 5.55964272681309E-02 
686	 5.66357184508841E-02 
687	 5.72305195341096E-02 
688	 5.87134181764189E-02 
689	 6.03094306510544E-02 
690	 6.00582372571509E-02 
691	 6.05383969800198E-02 
692	 6.21530636388977E-02 
693	 6.23682203646693E-02 
694	 6.26657751329558E-02 
695	 6.46142163576446E-02 
696	 6.59115317929929E-02 
697	 6.66394331100723E-02 
698	 6.84051133948662E-02 
699	 6.99248602503623E-02 
700	 7.07377632721235E-02 
701	 7.22901752251935E-02 
702	 7.39414013554777E-02 
703	 7.46358180821269E-02 
704	 7.56907062394317E-02 
705	 7.70556883444661E-02 
706	 7.73513544138973E-02 
707	 7.75758961315128E-02 
708	 7.83900784189372E-02 
709	 0.079509834169598 
710	 8.06991173043636E-02 
711	 8.16135043013226E-02 
712	 8.25040375858282E-02 
713	 8.32970587758243E-02 
714	 8.31855939637668E-02 
715	 8.37491333985087E-02 
716	 8.64562555297594E-02 
717	 8.79500531607498E-02 
718	 8.80149548395702E-02 
719	 8.87704761588635E-02 
720	 8.95343615938457E-02 
721	 9.00218895511577E-02 
722	 8.98759626852667E-02 
723	 9.01912113133839E-02 
724	 9.22115869390172E-02 
725	 9.33376866058429E-02 
726	 9.33310068327735E-02 
727	 9.38563939655132E-02 
728	 9.46404370555783E-02 
729	 9.54738871065597E-02 
730	 9.55760656878672E-02 
731	 9.57330071799385E-02 
732	 0.097102313503879 
733	 9.75820768293312E-02 
734	 9.71637499964678E-02 
735	 9.72464369623842E-02 
736	 9.81024837004395E-02 
737	 9.96956783339508E-02 
738	 0.100102708021057 
739	 9.97234199898338E-02 
740	 9.97648693982968E-02 
741	 0.100478170053728 
742	 0.101695024400807 
743	 0.102241176187728 
744	 0.102452197214131 
745	 0.10271431685328 
746	 0.103844300361118 
747	 0.105153831350656 
748	 0.104547143777399 
749	 0.104591245443679 
750	 0.105940411751018 
751	 0.106629957402322 
752	 0.107099064566636 
753	 0.107916980325507 
754	 0.107900162630624 
755	 0.107499037904335 
756	 0.108651829395669 
757	 0.109773589579183 
758	 0.110304376885776 
759	 0.111315480365378 
760	 0.113859204325155 
761	 0.117558766974695 
762	 0.119447830763296 
763	 0.118963458551172 
764	 0.11678972052002 
765	 0.116117241979504 
766	 0.117346938102436 
767	 0.116856325122455 
768	 0.116019602316115 
769	 0.116626543440519 
770	 0.117242220857809 
771	 0.117688884155144 
772	 0.118598955961019 
773	 0.119364852324729 
774	 0.119647424381724 
775	 0.12029276925086 
776	 0.121093525826829 
777	 0.121429881649948 
778	 0.122274409917257 
779	 0.123564442169182 
780	 0.123790496776244 
781	 0.123904714709124 
782	 0.124698663341789 
783	 0.12586689094055 
784	 0.126977290286439 
785	 0.12722086677607 
786	 0.127498753255481 
787	 0.128084675682757 
788	 0.128659863211859 
789	 0.129148794638813 
790	 0.129538203279687 
791	 0.130739263646864 
792	 0.131838754572118 
793	 0.129926489856018 
794	 0.129985428768626 
795	 0.133054235142237 
796	 0.134444048379489 
797	 0.134570700322567 
798	 0.13425574504135 
799	 0.135131459801898 
800	 0.1367016275407 
801	 0.136480241916258 
802	 0.136876102801918 
803	 0.138560637967096 
804	 0.139805847595162 
805	 0.140492940818415 
806	 0.140682113559345 
807	 0.141185839569798 
808	 0.142225078348432 
809	 0.14399572009281 
810	 0.144923638094938 
811	 0.144536737575781 
812	 0.145090593646555 
813	 0.145792938337811 
814	 0.145391093534428 
815	 0.147439575523294 
816	 0.151220424436552 
817	 0.151602569725037 
818	 0.15125308636205 
819	 0.151516552634465 
820	 0.152788122287432 
821	 0.154187022181449 
822	 0.154625668351169 
823	 0.155081068079571 
824	 0.155463893437972 
825	 0.15490929588144 
826	 0.154420034641519 
827	 0.154706385724414 
828	 0.157223056740958 
829	 0.159633872616452 
830	 0.159045529765382 
831	 0.159382776017889 
832	 0.1611412077745 
833	 0.16341166111196 
834	 0.164132784553214 
835	 0.16282927072051 
836	 0.162496507330001 
837	 0.163341237221947 
838	 0.165217818604421 
839	 0.166609006042714 
840	 0.167359510049531 
841	 0.168233282564632 
842	 0.168664399243668 
843	 0.168499804099058 
844	 0.167966951207074 
845	 0.168469034733415 
846	 0.17136147302998 
847	 0.172727618620411 
848	 0.172327646920331 
849	 0.171942726946904 
850	 0.172313664832566 
851	 0.173628947350774 
852	 0.174240390765243 
853	 0.174715493936171 
854	 0.175760482584963 
855	 0.176343396450646 
856	 0.176647097784603 
857	 0.177572931281427 
858	 0.178935808104459 
859	 0.180378114508361 
860	 0.180419210855442 
861	 0.180313528628857 
862	 0.181317575630041 
863	 0.182849394464503 
864	 0.18429722244796 
865	 0.184418957913308 
866	 0.185372770099494 
867	 0.187351811027585 
868	 0.187565988745438 
869	 0.18761522962827 
870	 0.188829449018092 
871	 0.18992513421983 
872	 0.191005731026733 
873	 0.192706146227276 
874	 0.193390229564115 
875	 0.193079914466647 
876	 0.193978935950443 
877	 0.195389421167228 
878	 0.196798443141346 
879	 0.198699331430405 
880	 0.200494705915159 
881	 0.201187175579776 
882	 0.201714557558632 
883	 0.202328299848202 
884	 0.202830708651873 
885	 0.203748206891556 
886	 0.205167010207486 
887	 0.205432517537727 
888	 0.205434748501679 
889	 0.20658461454669 
890	 0.207659312904083 
891	 0.208871263238768 
892	 0.211855246374712 
893	 0.214472581551486 
894	 0.215578920220626 
895	 0.215375791958951 
896	 0.215048237583304 
897	 0.21600094072077 
898	 0.217197965950112 
899	 0.218488988237715 
900	 0.220075240578749 
901	 0.222429743209808 
902	 0.224504600799112 
903	 0.221019271359274 
904	 0.218531270917756 
905	 0.221894525174937 
906	 0.224516044684812 
907	 0.22643417906983 
908	 0.229578111015422 
909	 0.230340484335488 
910	 0.228176529931794 
911	 0.2248791356303 
912	 0.224583496538096 
913	 0.229058242491244 
914	 0.232241006082072 
915	 0.234281609311665 
916	 0.236147718244206 
917	 0.230800509168007 
918	 0.224017902548733 
919	 0.235689376712494 
920	 0.242178967073368 
921	 0.237164290806874 
922	 0.23345858138813 
923	 0.233984098547328 
924	 0.240091384274765 
925	 0.239578190674896 
926	 0.235133541418249 
927	 0.237989203587359 
928	 0.242563372338621 
929	 0.245766354202338 
930	 0.2414346650042 
931	 0.240742251173281 
932	 0.252300494745866 
933	 0.262236698691937 
934	 0.262747602987402 
935	 0.247670366908977 
936	 0.247403859584835 
937	 0.259828383169595 
938	 0.257874970582265 
939	 0.251811158980407 
940	 0.24595050933905 
941	 0.24474858673014 
942	 0.24903203149689 
943	 0.257465177905642 
944	 0.253649193381014 
945	 0.249338183750501 
946	 0.266396789216375 
947	 0.264607671985174 
948	 0.246419030447384 
949	 0.25656157240631 
950	 0.260478896540622 
951	 0.247728809788318 
952	 0.240872960538524 
953	 0.238602393956738 
954	 0.238876511090323 
955	 0.242994168500676 
956	 0.251840782915054 
957	 0.267848177486338 
958	 0.267491843307964 
959	 0.252813632718682 
960	 0.251337197692045 
961	 0.251486945592426 
962	 0.249186133031494 
963	 0.252953896270199 
964	 0.25803521259299 
965	 0.259483244708736 
966	 0.261124841772279 
967	 0.259801411814646 
968	 0.246991932605837 
969	 0.25028249647533 
970	 0.267078847573658 
971	 0.259155384249621 
972	 0.250494077043234 
973	 0.253518761995436 
974	 0.254306680921257 
975	 0.255736587837276 
976	 0.261629375684939 
977	 0.260584744136879 
978	 0.256536050452886 
979	 0.262570162290736 
980	 0.266146143627012 
981	 0.265080063602184 
982	 0.264916340906787 
983	 0.267161224908868 
984	 0.271130054398266 
985	 0.266997641672812 
986	 0.261744793980944 
987	 0.263392684270372 
988	 0.267746206116157 
989	 0.272034897484398 
990	 0.272573404959894 
991	 0.272304362560726 
992	 0.27189722403973 
993	 0.270082972337325 
994	 0.27075600966009 
995	 0.274056178786071 
996	 0.267934657557939 
997	 0.260702733371939 
998	 0.26179606646673 
999	 0.278690378474374 
1000	 0.295237867922121 
1001	 0.283727512083622 
1002	 0.278656742006189 
1003	 0.282310925703752 
1004	 0.269075290102106 
1005	 0.263268082276034 
1006	 0.272597892013809 
1007	 0.282005800654977 
1008	 0.287315722004454 
1009	 0.285744971950588 
1010	 0.282111150599892 
1011	 0.28152959199091 
1012	 0.289112113746748 
1013	 0.296251647140928 
1014	 0.297220807412716 
1015	 0.282093637155837 
1016	 0.279189314749139 
1017	 0.291803371738963 
1018	 0.294591947561975 
1019	 0.293151596459967 
1020	 0.290842378824518 
1021	 0.288860240447545 
1022	 0.290462616454751 
1023	 0.297524518991705 
1024	 0.30114188475393 
1025	 0.294248025715643 
1026	 0.268942806568164 
1027	 0.274298000471077 
1028	 0.30185118867696 
1029	 0.287755086437949 
1030	 0.276838885222931 
1031	 0.282163452047393 
1032	 0.288006801502587 
1033	 0.302382368594058 
1034	 0.322240075700365 
1035	 0.30725262084806 
1036	 0.291615923842625 
1037	 0.310996527031104 
1038	 0.301414367488293 
1039	 0.275490461617735 
1040	 0.271696642361968 
1041	 0.286545002544585 
1042	 0.307778373026698 
1043	 0.31396243213599 
1044	 0.290721754586386 
1045	 0.248108014076365 
1046	 0.257854219952689 
1047	 0.270616058245507 
1048	 0.263103804824418 
1049	 0.288014446822457 
1050	 0.309192264630063 
1051	 0.292909928793743 
1052	 0.270726986317481 
1053	 0.259357603079343 
1054	 0.277871644520688 
1055	 0.301360243520896 
1056	 0.317328105431671 
1057	 0.30924358317315 
1058	 0.295034209530467 
1059	 0.287400414343703 
1060	 0.305051735568168 
1061	 0.299413495699259 
1062	 0.262529081134111 
1063	 0.294863748967795 
1064	 0.300964786696637 
1065	 0.230600717038866 
1066	 0.236277236184195 
1067	 0.271901207517603 
1068	 0.262963459542234 
1069	 0.256044235231813 
1070	 0.260841344162961 
1071	 0.280500438784006 
1072	 0.256922723832682 
1073	 0.205805074397753 
1074	 0.23933230607973 
1075	 0.266234875218692 
