Wavelength	SHSI00092.asd
325	 0.103439597081443 
326	 0.101482113174646 
327	 0.10256938307423 
328	 0.107664166160042 
329	 0.110879148338422 
330	 0.109585775622385 
331	 0.101107034302474 
332	 9.68383667322838E-02 
333	 0.106440132898089 
334	 0.106427417144641 
335	 0.099853844067121 
336	 0.10339609600671 
337	 0.107777343614793 
338	 0.109759692218232 
339	 0.10762651907086 
340	 0.106664912126543 
341	 0.110545945379216 
342	 0.109269622024953 
343	 0.105781523234475 
344	 0.108547149806081 
345	 0.109215205855615 
346	 0.107151720095251 
347	 0.108892429245998 
348	 0.110562368066744 
349	 0.109563402790489 
350	 0.107430700777004 
351	 0.106478584101177 
352	 0.109931641590853 
353	 0.111859880030227 
354	 0.111648196558934 
355	 0.113269612966133 
356	 0.113948181503691 
357	 0.112321985302436 
358	 0.111522915370011 
359	 0.111683445895427 
360	 0.112320579213215 
361	 0.113996215770259 
362	 0.115624539247885 
363	 0.113299479897899 
364	 0.112071295354206 
365	 0.114025407102217 
366	 0.113740736456339 
367	 0.11254541442359 
368	 0.112902131095131 
369	 0.113710364461846 
370	 0.11420458503141 
371	 0.112612243013149 
372	 0.111547589555951 
373	 0.11223299614134 
374	 0.112397900200967 
375	 0.111900348730156 
376	 0.110924739957307 
377	 0.108632649798224 
378	 0.106382414391583 
379	 0.109047586177143 
380	 0.110872605797922 
381	 0.109290670048664 
382	 0.108397739925972 
383	 0.108241364853659 
384	 0.108348505461848 
385	 0.108156188566154 
386	 0.107731071699888 
387	 0.108140675120431 
388	 0.106751461211477 
389	 0.103328064431521 
390	 0.103556233324316 
391	 0.10553237657459 
392	 0.106454844717469 
393	 0.10570951088094 
394	 0.104095171409393 
395	 0.104361854958492 
396	 0.104957525462567 
397	 0.105052385132657 
398	 0.10414155719835 
399	 0.103030704461927 
400	 0.102527615189882 
401	 0.101882416284492 
402	 0.101526734389098 
403	 0.103194650289871 
404	 0.103378270086883 
405	 0.101234328317935 
406	 0.101334818579613 
407	 0.102089403614116 
408	 0.101084595329801 
409	 0.10019759881885 
410	 9.97601238557804E-02 
411	 9.94753745375306E-02 
412	 0.099270110074086 
413	 9.91249203135794E-02 
414	 9.92973757856833E-02 
415	 9.93893209005532E-02 
416	 0.098885992755668 
417	 0.09827591524576 
418	 9.78162676591473E-02 
419	 9.78600971005703E-02 
420	 9.80686909848131E-02 
421	 0.098184115704842 
422	 9.78351515559654E-02 
423	 9.74355957621363E-02 
424	 9.76395547641205E-02 
425	 9.76522428487828E-02 
426	 0.097382668024389 
427	 9.72849686705463E-02 
428	 9.71816894991299E-02 
429	 9.69712204544084E-02 
430	 9.68189734706685E-02 
431	 9.66008791000028E-02 
432	 9.60668854304455E-02 
433	 9.58983489326226E-02 
434	 9.60459786933483E-02 
435	 9.55763354717602E-02 
436	 9.53157743939234E-02 
437	 9.57349225999611E-02 
438	 9.57941773456413E-02 
439	 9.57108488860023E-02 
440	 9.62054481413661E-02 
441	 9.63143984166508E-02 
442	 9.58994837228223E-02 
443	 9.56072392104165E-02 
444	 9.56893142218135E-02 
445	 9.62767087226216E-02 
446	 9.66946263319199E-02 
447	 9.69493895896309E-02 
448	 0.097372974013905 
449	 9.75886442271469E-02 
450	 0.097564464021013 
451	 0.097738969092027 
452	 9.81389316965453E-02 
453	 9.87451030207384E-02 
454	 9.92074703698652E-02 
455	 9.94531857505975E-02 
456	 0.099527955749958 
457	 0.099517389634796 
458	 9.95151974777914E-02 
459	 9.97367262881545E-02 
460	 9.99952737008203E-02 
461	 0.100051191729612 
462	 9.99796130324069E-02 
463	 9.99641352573164E-02 
464	 0.100499906414622 
465	 0.101070103885769 
466	 0.101365325789164 
467	 0.101301729060261 
468	 0.101282662561335 
469	 0.101897706484525 
470	 0.102318908918271 
471	 0.102467984570398 
472	 0.102944532033728 
473	 0.103205703044158 
474	 0.10301507365446 
475	 0.103464080934221 
476	 0.104069246987434 
477	 0.10370484971448 
478	 0.103755546169291 
479	 0.10439233555559 
480	 0.10459259839226 
481	 0.104463062156531 
482	 0.104180627190823 
483	 0.104553628742184 
484	 0.105260746521682 
485	 0.105194377696479 
486	 0.10503905433179 
487	 0.105035795534353 
488	 0.105116640088746 
489	 0.105201990457589 
490	 0.105215743396916 
491	 0.105184828145939 
492	 0.105296733992169 
493	 0.106088588501167 
494	 0.106606195148873 
495	 0.106557061196568 
496	 0.107019548963873 
497	 0.107610337554256 
498	 0.107712145768377 
499	 0.108206412848244 
500	 0.109134236676681 
501	 0.109875479259923 
502	 0.110566377318268 
503	 0.111265947665024 
504	 0.111825768984678 
505	 0.112441936246743 
506	 0.113460436080467 
507	 0.114499389017854 
508	 0.115408958486455 
509	 0.116067614681568 
510	 0.11677249775478 
511	 0.117749281781095 
512	 0.118704844855616 
513	 0.119655823291844 
514	 0.120769989358046 
515	 0.121823161471576 
516	 0.12276540889517 
517	 0.123856327007348 
518	 0.124804767137129 
519	 0.125308842436984 
520	 0.126093295979478 
521	 0.127194687164058 
522	 0.128319983859669 
523	 0.129345018649131 
524	 0.130249579470157 
525	 0.131327548703401 
526	 0.132540096249334 
527	 0.133772871911982 
528	 0.135038562546146 
529	 0.136228192077992 
530	 0.137033589107509 
531	 0.13787029346957 
532	 0.139011879815784 
533	 0.140167846014533 
534	 0.141313690673319 
535	 0.142495497648024 
536	 0.143598902190356 
537	 0.144645149320503 
538	 0.145897643694929 
539	 0.147148432205554 
540	 0.148185338655858 
541	 0.149159600957319 
542	 0.150104745100221 
543	 0.151038989038912 
544	 0.151950977111551 
545	 0.152883233794769 
546	 0.154074639233591 
547	 0.155291119046998 
548	 0.156203803587838 
549	 0.156981442123173 
550	 0.157755465992251 
551	 0.158831280006646 
552	 0.159817517176867 
553	 0.160502992692117 
554	 0.161364810888421 
555	 0.162333769378937 
556	 0.163174421977153 
557	 0.163831931542292 
558	 0.164357319327824 
559	 0.16511152089652 
560	 0.165834897648917 
561	 0.166300221596861 
562	 0.166984583519134 
563	 0.167754212304941 
564	 0.168025273646042 
565	 0.16826879588819 
566	 0.168675981058952 
567	 0.169152527045214 
568	 0.169567211816492 
569	 0.169766171512184 
570	 0.169667236569857 
571	 0.169421873789175 
572	 0.16955856501753 
573	 0.169793272999436 
574	 0.169953339720874 
575	 0.170136056887857 
576	 0.170299060460121 
577	 0.17035734557518 
578	 0.170305928981751 
579	 0.170235325422302 
580	 0.170518098358918 
581	 0.170827629253673 
582	 0.170871519650873 
583	 0.170852175189524 
584	 0.170869039342244 
585	 0.171063191828929 
586	 0.171353940635584 
587	 0.171661084778191 
588	 0.171734188844158 
589	 0.171706339225959 
590	 0.171782806930671 
591	 0.171743672865386 
592	 0.171698906172207 
593	 0.172162662566215 
594	 0.172556403855358 
595	 0.172570940664774 
596	 0.172694076443932 
597	 0.172872497429333 
598	 0.172891623595183 
599	 0.173022987055384 
600	 0.173265868437615 
601	 0.173253965445046 
602	 0.173166750985841 
603	 0.173154920557285 
604	 0.172890028055204 
605	 0.172422080560038 
606	 0.172022162474259 
607	 0.171498969747302 
608	 0.170871052563893 
609	 0.170708994106492 
610	 0.170460397785957 
611	 0.169388514480062 
612	 0.168721093337514 
613	 0.168517818352282 
614	 0.167900207526831 
615	 0.167226468496012 
616	 0.166723711707251 
617	 0.16643788208187 
618	 0.16605216217093 
619	 0.164953887463051 
620	 0.164498970369283 
621	 0.164814272908995 
622	 0.16453136427762 
623	 0.164085281872666 
624	 0.163914011496518 
625	 0.16392495851679 
626	 0.163995127794201 
627	 0.1638773027351 
628	 0.163543506653127 
629	 0.163113234802552 
630	 0.163348408372978 
631	 0.163778092372286 
632	 0.16374215544171 
633	 0.163699725056439 
634	 0.163729837858701 
635	 0.163707667355542 
636	 0.163850946850032 
637	 0.16420917806642 
638	 0.164087998576033 
639	 0.163774549250756 
640	 0.163943905097156 
641	 0.164061960479005 
642	 0.164035827895441 
643	 0.164181507652506 
644	 0.164400106647707 
645	 0.164578137306647 
646	 0.164512661384591 
647	 0.164237403068628 
648	 0.164017328054987 
649	 0.163413231078287 
650	 0.162442980795857 
651	 0.162206689881283 
652	 0.161987213998284 
653	 0.160830593856216 
654	 0.159662261981047 
655	 0.158536572347127 
656	 0.157161645557138 
657	 0.155176676643937 
658	 0.152616553007287 
659	 0.150551781321991 
660	 0.148747761528192 
661	 0.146686925042945 
662	 0.144345503328825 
663	 0.141768637410517 
664	 0.139183248303601 
665	 0.136851750283803 
666	 0.13497986816002 
667	 0.133388509354826 
668	 0.131915880425002 
669	 0.13023916888384 
670	 0.128793423847397 
671	 0.127744869401457 
672	 0.127005393315252 
673	 0.126485254151561 
674	 0.126084090338689 
675	 0.125910099414945 
676	 0.12598867158854 
677	 0.126311936382642 
678	 0.126876412755678 
679	 0.127684411694639 
680	 0.128764410122952 
681	 0.130092800985809 
682	 0.131620753618921 
683	 0.133504068644616 
684	 0.135847588000639 
685	 0.138915596363526 
686	 0.142764995748243 
687	 0.147363850490931 
688	 0.152022707146225 
689	 0.156496423142037 
690	 0.16164303990722 
691	 0.166762390879112 
692	 0.171902368980694 
693	 0.177764292738855 
694	 0.183840340455584 
695	 0.189312461986348 
696	 0.194761952310423 
697	 0.200269456147804 
698	 0.206079828655846 
699	 0.211601668103816 
700	 0.216462986251133 
701	 0.22111249389182 
702	 0.225605453220716 
703	 0.229981888964417 
704	 0.234277325686895 
705	 0.238378310897813 
706	 0.24163439965436 
707	 0.244728645652391 
708	 0.248063926418463 
709	 0.25096566096517 
710	 0.253670027199057 
711	 0.256799779991392 
712	 0.259669874638001 
713	 0.262081487468109 
714	 0.264239573752029 
715	 0.266362302792602 
716	 0.268763075061425 
717	 0.27131934696886 
718	 0.273828221914233 
719	 0.275406702263913 
720	 0.276675086637412 
721	 0.277951801739224 
722	 0.279559277766388 
723	 0.281407879718718 
724	 0.283254810282502 
725	 0.284591414095702 
726	 0.285414014018419 
727	 0.286419859117092 
728	 0.287800286463444 
729	 0.289475217323185 
730	 0.290071003934499 
731	 0.290369646700127 
732	 0.291637590459632 
733	 0.292380960657801 
734	 0.292546122742741 
735	 0.293017660856418 
736	 0.293624090742843 
737	 0.29425718045718 
738	 0.295109318689676 
739	 0.296056722276236 
740	 0.296853578195455 
741	 0.297402550542033 
742	 0.297746298842811 
743	 0.298197399586064 
744	 0.298801021775785 
745	 0.299569027271686 
746	 0.300261114198945 
747	 0.300768399801252 
748	 0.300939961715007 
749	 0.301202708113688 
750	 0.301723509644425 
751	 0.302359176081993 
752	 0.30307552734101 
753	 0.303826639057636 
754	 0.304225240519104 
755	 0.304343781340739 
756	 0.304655373367593 
757	 0.304680196092029 
758	 0.304433302287918 
759	 0.305998912304706 
760	 0.309639101608209 
761	 0.311168579864622 
762	 0.311627296399874 
763	 0.311718641873532 
764	 0.311603473192921 
765	 0.311435672640586 
766	 0.311313693733477 
767	 0.311278702213932 
768	 0.311195429808633 
769	 0.310881985770152 
770	 0.310964376956841 
771	 0.311538715248728 
772	 0.312395273305278 
773	 0.31296788387507 
774	 0.31296008219794 
775	 0.313409466619848 
776	 0.314113169170132 
777	 0.314433213552204 
778	 0.31478367569014 
779	 0.315262496028941 
780	 0.315797980552039 
781	 0.316189477962455 
782	 0.316317058069648 
783	 0.316691914805477 
784	 0.317098065215995 
785	 0.316860282305322 
786	 0.316819148294578 
787	 0.317259562917317 
788	 0.318033014806235 
789	 0.318737083235406 
790	 0.319012868304813 
791	 0.319285789993412 
792	 0.319597544281506 
793	 0.319900504710635 
794	 0.319797930536655 
795	 0.319405230022274 
796	 0.320086071891074 
797	 0.320808931048805 
798	 0.320529180882214 
799	 0.3206475764414 
800	 0.321258707331663 
801	 0.321917051428009 
802	 0.322262061962246 
803	 0.322176227596053 
804	 0.322055606621175 
805	 0.322150911443781 
806	 0.322675887716734 
807	 0.323239604141073 
808	 0.323817788162617 
809	 0.324619436446977 
810	 0.325395060505372 
811	 0.326059009342923 
812	 0.326839934678283 
813	 0.327703103064077 
814	 0.328557823694529 
815	 0.329378415012282 
816	 0.330080488720842 
817	 0.330472651837901 
818	 0.331036265097789 
819	 0.331816493554083 
820	 0.331789534279799 
821	 0.331538785953778 
822	 0.331824186899826 
823	 0.332550454962159 
824	 0.333361380275772 
825	 0.333347645335647 
826	 0.333490497193561 
827	 0.33418545784737 
828	 0.335052925091314 
829	 0.335658464956322 
830	 0.335535378188082 
831	 0.335373589134381 
832	 0.33545093328645 
833	 0.336027854545868 
834	 0.336656620129123 
835	 0.336984391953587 
836	 0.336338897323062 
837	 0.335587541859875 
838	 0.335735577333736 
839	 0.335921108737695 
840	 0.335980608776674 
841	 0.336048010159723 
842	 0.335792619062288 
843	 0.335229307987203 
844	 0.335273534582093 
845	 0.335560376090533 
846	 0.335578806158153 
847	 0.335076622179045 
848	 0.334386382276435 
849	 0.334666406327377 
850	 0.334789588040511 
851	 0.334365064286288 
852	 0.333976886093519 
853	 0.334006352692763 
854	 0.334707835839467 
855	 0.334343851005528 
856	 0.333333433190873 
857	 0.333635417224374 
858	 0.333757507666636 
859	 0.333398058148893 
860	 0.333706731897207 
861	 0.333940441852217 
862	 0.333386099912825 
863	 0.332910922526393 
864	 0.332702699011134 
865	 0.332761366689535 
866	 0.333013127300815 
867	 0.333619984169184 
868	 0.335644171318851 
869	 0.336814056112392 
870	 0.335583547615208 
871	 0.335934802513775 
872	 0.337663839417701 
873	 0.339143482765109 
874	 0.340310273927682 
875	 0.341090344845547 
876	 0.341599304374745 
877	 0.34231589538649 
878	 0.34353428688317 
879	 0.344599685722979 
880	 0.345872341745704 
881	 0.3480852857491 
882	 0.349069287719035 
883	 0.348936958213763 
884	 0.350205484292017 
885	 0.351895535604346 
886	 0.353392232012673 
887	 0.354389416080828 
888	 0.35538154193041 
889	 0.357057515439826 
890	 0.357865769710262 
891	 0.35776046889202 
892	 0.357497691952264 
893	 0.358862594968434 
894	 0.36224921608651 
895	 0.363992431744235 
896	 0.364554656100305 
897	 0.364892662230522 
898	 0.365591585339864 
899	 0.366589017731361 
900	 0.367387540070045 
901	 0.366989895157471 
902	 0.365932062373697 
903	 0.368131988257559 
904	 0.370004796570464 
905	 0.369002246168528 
906	 0.369474067511126 
907	 0.370854512070954 
908	 0.370994947364477 
909	 0.371444505744592 
910	 0.372436898392402 
911	 0.373195706793314 
912	 0.373904979011532 
913	 0.374537285654986 
914	 0.374169982932351 
915	 0.374114510482353 
916	 0.375874763632685 
917	 0.37441709853211 
918	 0.371172276490344 
919	 0.372644267970525 
920	 0.374637494810289 
921	 0.375571757051 
922	 0.375747384827099 
923	 0.374834742620348 
924	 0.372733504550548 
925	 0.37186248534632 
926	 0.371878006431573 
927	 0.37098567748305 
928	 0.370612694109249 
929	 0.371276667624661 
930	 0.372939281622868 
931	 0.374198793842074 
932	 0.373655325181084 
933	 0.371760759681855 
934	 0.368916208969967 
935	 0.366011765012125 
936	 0.372382133001209 
937	 0.38260334164516 
938	 0.377746631201364 
939	 0.37315468719919 
940	 0.372889914200086 
941	 0.371122909035675 
942	 0.370751914175397 
943	 0.37295274267359 
944	 0.367606027320061 
945	 0.360841908913931 
946	 0.364128818633495 
947	 0.366578504986638 
948	 0.366120672003904 
949	 0.365062820422351 
950	 0.365517210169425 
951	 0.367059022773783 
952	 0.361911841824098 
953	 0.356412651047295 
954	 0.356370291357336 
955	 0.357753728573034 
956	 0.358472384055613 
957	 0.356053188550837 
958	 0.355602217465163 
959	 0.357022167665535 
960	 0.354853404133696 
961	 0.355434695893317 
962	 0.360421601241764 
963	 0.362274519150592 
964	 0.360880346090853 
965	 0.357074124390041 
966	 0.354451277258642 
967	 0.353844919841565 
968	 0.355571057142379 
969	 0.35584036096008 
970	 0.354656264772219 
971	 0.356797252514093 
972	 0.357127626076871 
973	 0.354475116858959 
974	 0.360973158035404 
975	 0.367041725963622 
976	 0.36157323123562 
977	 0.360656219953587 
978	 0.364709242440127 
979	 0.368103687783937 
980	 0.367776950317749 
981	 0.364179913590368 
982	 0.363210138946898 
983	 0.363448117959809 
984	 0.363898542726545 
985	 0.363791768513108 
986	 0.36237537983029 
987	 0.359361463365955 
988	 0.35982732987398 
989	 0.362736954188416 
990	 0.363970289523368 
991	 0.365465807634588 
992	 0.367547799218895 
993	 0.369876749466471 
994	 0.370465857144397 
995	 0.368811884008706 
996	 0.368317660097736 
997	 0.367962190567592 
998	 0.366518428172804 
999	 0.364343699509864 
1000	 0.363188134861512 
1001	 0.365965511184945 
1002	 0.366927246950735 
1003	 0.364978822749777 
1004	 0.360609857687164 
1005	 0.364305339390677 
1006	 0.375654794111193 
1007	 0.368966703281816 
1008	 0.360757971658122 
1009	 0.364149019626496 
1010	 0.366730562892903 
1011	 0.368619202553232 
1012	 0.372013186558226 
1013	 0.375702984000208 
1014	 0.376908623994762 
1015	 0.36977883784832 
1016	 0.362144659089315 
1017	 0.359580883951522 
1018	 0.372215843358829 
1019	 0.3780006196745 
1020	 0.368460118130379 
1021	 0.373024655056317 
1022	 0.378981428377589 
1023	 0.372510324437667 
1024	 0.371623333918466 
1025	 0.374351745460516 
1026	 0.372572892080485 
1027	 0.371821975601525 
1028	 0.372151595005838 
1029	 0.369441892891618 
1030	 0.36921254156065 
1031	 0.372178616613661 
1032	 0.372403144405597 
1033	 0.370585608102813 
1034	 0.368213176253912 
1035	 0.370198760254519 
1036	 0.37573452685116 
1037	 0.382750194125497 
1038	 0.389223577330245 
1039	 0.390042847024005 
1040	 0.377868925315655 
1041	 0.363924852635457 
1042	 0.357515158494515 
1043	 0.377078938506594 
1044	 0.381108915844656 
1045	 0.364820577200585 
1046	 0.37613613931042 
1047	 0.375850905312541 
1048	 0.349241536283116 
1049	 0.358890489965886 
1050	 0.384067447067661 
1051	 0.39744898389841 
1052	 0.371274998594769 
1053	 0.341305357259659 
1054	 0.367000198547981 
1055	 0.368758673759127 
1056	 0.351005575025743 
1057	 0.36718371634328 
1058	 0.367374945423089 
1059	 0.348941565055427 
1060	 0.359888205770769 
1061	 0.379850285415693 
1062	 0.394614415957286 
1063	 0.38891240336694 
1064	 0.366949922321069 
1065	 0.338405928708433 
1066	 0.334343216327266 
1067	 0.348451261158708 
1068	 0.368147589515957 
1069	 0.3626629393669 
1070	 0.343489949573041 
1071	 0.339204231902854 
1072	 0.339614249929844 
1073	 0.338612248638786 
1074	 0.325753504777731 
1075	 0.316217079838646 
