Wavelength	SHSI00024.asd
325	 5.30633615749463E-02 
326	 6.14141520730204E-02 
327	 6.23189424065759E-02 
328	 0.055949617480532 
329	 5.08752038284196E-02 
330	 5.00642643916003E-02 
331	 0.050285397861264 
332	 0.052755208568377 
333	 5.83547837080723E-02 
334	 5.82976888001382E-02 
335	 5.45391986383455E-02 
336	 5.52448170789259E-02 
337	 5.42073486885692E-02 
338	 5.10865356820873E-02 
339	 5.35481613374088E-02 
340	 0.054814636700211 
341	 0.04985323540775 
342	 4.86715201841502E-02 
343	 5.08463461801785E-02 
344	 5.26573120787108E-02 
345	 0.054493228158748 
346	 5.55476861636955E-02 
347	 5.27088244396724E-02 
348	 5.17204040800488E-02 
349	 5.54989021782269E-02 
350	 5.44059244345222E-02 
351	 5.09555215574235E-02 
352	 5.11450344554934E-02 
353	 4.96029492447871E-02 
354	 4.70425765974127E-02 
355	 5.07044105640907E-02 
356	 5.44423668452728E-02 
357	 0.054503552208534 
358	 5.28032029236319E-02 
359	 5.11587917998953E-02 
360	 5.18780998884681E-02 
361	 5.21430568893743E-02 
362	 5.17240101723261E-02 
363	 5.26712652854805E-02 
364	 0.051865678629354 
365	 4.86845635907515E-02 
366	 5.06458412634573E-02 
367	 0.053967401035098 
368	 5.27501201475877E-02 
369	 5.26573365624019E-02 
370	 5.40462838012037E-02 
371	 5.37475088338738E-02 
372	 5.30173120622204E-02 
373	 5.25887307419246E-02 
374	 5.27632510010223E-02 
375	 5.27955291437658E-02 
376	 5.16476200020667E-02 
377	 5.12696378123583E-02 
378	 5.17705103467499E-02 
379	 0.051846601873874 
380	 5.19120903046173E-02 
381	 5.19310301604906E-02 
382	 0.050290628751971 
383	 0.049040985313455 
384	 5.09516042831541E-02 
385	 5.14482001421129E-02 
386	 5.02282886418861E-02 
387	 5.00757095743195E-02 
388	 5.01479568753412E-02 
389	 5.01138568589092E-02 
390	 5.04608900906064E-02 
391	 4.99639980998414E-02 
392	 4.72802025609123E-02 
393	 4.75515075443783E-02 
394	 4.97226127184713E-02 
395	 4.74997212866581E-02 
396	 4.58146034494381E-02 
397	 4.65288850667972E-02 
398	 4.75517197269524E-02 
399	 4.75950357241248E-02 
400	 4.57322182480267E-02 
401	 4.52517332122088E-02 
402	 4.60784453036392E-02 
403	 4.65155801194054E-02 
404	 0.046882528986332 
405	 4.71473312199562E-02 
406	 4.64316958875701E-02 
407	 4.58462703858661E-02 
408	 4.67915979250763E-02 
409	 4.63403014548242E-02 
410	 4.47862515327756E-02 
411	 4.48226821550027E-02 
412	 4.54264614156733E-02 
413	 4.59740812334507E-02 
414	 4.59109208438817E-02 
415	 4.53540260746769E-02 
416	 4.45417211011482E-02 
417	 4.43256082288417E-02 
418	 4.45730477341747E-02 
419	 4.41385516067408E-02 
420	 4.37536759465168E-02 
421	 4.37808969342329E-02 
422	 4.37558782500016E-02 
423	 4.38295713340581E-02 
424	 4.42935245624465E-02 
425	 0.044730798188193 
426	 4.49360476597749E-02 
427	 4.46640061443211E-02 
428	 4.42571333023503E-02 
429	 4.39607654427329E-02 
430	 4.37286803691527E-02 
431	 4.34699446267276E-02 
432	 4.30195713538317E-02 
433	 4.29525619835282E-02 
434	 4.32237384140495E-02 
435	 0.04306530398649 
436	 0.042969201803368 
437	 4.32136365356638E-02 
438	 4.31336534001473E-02 
439	 4.29631883208374E-02 
440	 4.33458655986678E-02 
441	 4.32855144759297E-02 
442	 4.27248620993772E-02 
443	 4.27125579416301E-02 
444	 4.30255344838917E-02 
445	 4.34097708001506E-02 
446	 4.34672638233363E-02 
447	 4.33500173362666E-02 
448	 4.35631693109318E-02 
449	 4.38148532068394E-02 
450	 4.39651187341762E-02 
451	 4.37280092337072E-02 
452	 4.38479695587347E-02 
453	 4.49764209273716E-02 
454	 4.51430329497582E-02 
455	 4.45425826157971E-02 
456	 4.48483138909525E-02 
457	 4.51589578827278E-02 
458	 4.51277031502829E-02 
459	 4.48200183622326E-02 
460	 4.47372043215087E-02 
461	 4.54279841841459E-02 
462	 4.54226937338053E-02 
463	 4.48376604638357E-02 
464	 4.51314582611492E-02 
465	 4.54735657366541E-02 
466	 4.54879389012904E-02 
467	 0.045684224558574 
468	 4.59063454709736E-02 
469	 4.58534460283407E-02 
470	 4.58685299868435E-02 
471	 4.60724070258847E-02 
472	 4.66606371501575E-02 
473	 4.66350465671153E-02 
474	 0.045607688613469 
475	 4.59723460152874E-02 
476	 0.047075443684157 
477	 0.047223708935897 
478	 4.70642018772926E-02 
479	 4.68268899547389E-02 
480	 0.046719430095966 
481	 0.046841451512899 
482	 4.72224054673764E-02 
483	 4.73090220418136E-02 
484	 4.71979913534384E-02 
485	 4.73743378543571E-02 
486	 4.74821314393502E-02 
487	 4.74392654223966E-02 
488	 4.75079281481875E-02 
489	 4.75689538718518E-02 
490	 4.74986977761745E-02 
491	 4.75875126777826E-02 
492	 0.047806173763889 
493	 4.78695937172991E-02 
494	 4.82088256738108E-02 
495	 4.88941424226995E-02 
496	 4.92151158484609E-02 
497	 4.91642043323663E-02 
498	 0.048825248208702 
499	 4.93263025703145E-02 
500	 5.04385846623812E-02 
501	 5.03452874562756E-02 
502	 5.01681500646309E-02 
503	 5.06026313427999E-02 
504	 5.14416519076405E-02 
505	 5.21735243560161E-02 
506	 5.19958718402105E-02 
507	 5.20462132584286E-02 
508	 5.25302385009115E-02 
509	 5.27653318325198E-02 
510	 5.31853640870793E-02 
511	 5.40943213242347E-02 
512	 5.47643892084509E-02 
513	 5.52218553075148E-02 
514	 5.58427681645548E-02 
515	 5.64200897618541E-02 
516	 5.68155824799199E-02 
517	 5.66313324722869E-02 
518	 5.66561219525312E-02 
519	 5.77041375156089E-02 
520	 5.83850938411863E-02 
521	 5.86598672253508E-02 
522	 5.92145520758003E-02 
523	 6.00452025339296E-02 
524	 6.11077230379779E-02 
525	 6.20161509148315E-02 
526	 0.062691542004777 
527	 6.30845914236736E-02 
528	 6.36266146148928E-02 
529	 6.43437690212982E-02 
530	 6.48728201124323E-02 
531	 6.54076459214199E-02 
532	 0.06608777384182 
533	 6.68849705396974E-02 
534	 0.067732771458126 
535	 6.85528843222063E-02 
536	 6.90313542179966E-02 
537	 6.92574917637993E-02 
538	 7.01470377692601E-02 
539	 7.11101796373707E-02 
540	 7.15612159711771E-02 
541	 7.22845673152635E-02 
542	 7.31417298759084E-02 
543	 7.33047232022105E-02 
544	 7.37897867727558E-02 
545	 7.48823175542997E-02 
546	 7.54987454488502E-02 
547	 7.58393375223984E-02 
548	 7.62910004480178E-02 
549	 7.70067380420948E-02 
550	 7.78811070281892E-02 
551	 7.84160326847099E-02 
552	 7.87967937922605E-02 
553	 7.91640425004832E-02 
554	 7.96432367104197E-02 
555	 8.01939181195985E-02 
556	 8.06992369182834E-02 
557	 8.12627601935874E-02 
558	 8.18518846312432E-02 
559	 8.21944156760264E-02 
560	 8.25004698888859E-02 
561	 8.29681635052116E-02 
562	 8.34703776006119E-02 
563	 8.38763487654073E-02 
564	 0.083936480304907 
565	 8.38088462917096E-02 
566	 0.083665535409054 
567	 8.40603473463367E-02 
568	 0.084534019979114 
569	 8.44419217600973E-02 
570	 8.43155440743502E-02 
571	 8.43022607697447E-02 
572	 8.43676454709076E-02 
573	 8.46915489651849E-02 
574	 8.52880041876679E-02 
575	 8.53853339413515E-02 
576	 8.50895536242092E-02 
577	 8.47740924931216E-02 
578	 8.47675393000071E-02 
579	 8.50621066222094E-02 
580	 8.49956915392602E-02 
581	 0.08493348743382 
582	 8.51952411492007E-02 
583	 8.53850952728258E-02 
584	 8.53920474181451E-02 
585	 8.50611248512469E-02 
586	 0.085041095959606 
587	 8.54877263571806E-02 
588	 8.55146937721775E-02 
589	 8.52344091327142E-02 
590	 0.084920797794322 
591	 0.085187880409328 
592	 8.58849123386837E-02 
593	 8.60430100898041E-02 
594	 8.60493493093524E-02 
595	 8.61027837158103E-02 
596	 0.085937026407955 
597	 8.57194744335807E-02 
598	 8.57717504284996E-02 
599	 8.59792462497654E-02 
600	 8.62439288680997E-02 
601	 8.63232804376709E-02 
602	 8.62887869229541E-02 
603	 8.62281938148654E-02 
604	 8.63555089171394E-02 
605	 8.64654087743448E-02 
606	 8.58998999280492E-02 
607	 0.085441974361029 
608	 8.53976776714506E-02 
609	 8.55017462341613E-02 
610	 8.54797684435095E-02 
611	 8.50275798201015E-02 
612	 8.44925194924159E-02 
613	 8.40717520455638E-02 
614	 8.41137139663939E-02 
615	 8.39456676516217E-02 
616	 8.32563115485175E-02 
617	 8.31992154357693E-02 
618	 8.33023465377819E-02 
619	 0.082430701717942 
620	 8.21049519834472E-02 
621	 8.25373389572323E-02 
622	 8.26232605605532E-02 
623	 8.22820936496627E-02 
624	 8.15573901514345E-02 
625	 8.16792274165932E-02 
626	 8.23013123397899E-02 
627	 8.18037842151798E-02 
628	 8.17459748837725E-02 
629	 8.25103714508267E-02 
630	 8.25450180400306E-02 
631	 8.20508963748848E-02 
632	 8.14624953713578E-02 
633	 8.15211185480072E-02 
634	 8.21456262616659E-02 
635	 8.24304652276869E-02 
636	 8.24873736455861E-02 
637	 8.23921708429063E-02 
638	 8.22828822138209E-02 
639	 8.23318249917666E-02 
640	 8.28231526708129E-02 
641	 8.29254126987175E-02 
642	 8.25822076738628E-02 
643	 8.28506704543316E-02 
644	 8.30408707941478E-02 
645	 0.082568609238781 
646	 8.24350905660723E-02 
647	 8.25756228834059E-02 
648	 8.22551635626399E-02 
649	 8.22364701391542E-02 
650	 8.26210144707245E-02 
651	 8.23084533999284E-02 
652	 8.14396643691056E-02 
653	 8.02988741132152E-02 
654	 0.079964438346168 
655	 8.01496297687424E-02 
656	 7.88538894844441E-02 
657	 7.74276805684834E-02 
658	 0.07665919521109 
659	 7.55512952677136E-02 
660	 7.41964363287082E-02 
661	 7.29152236544697E-02 
662	 7.17606049748203E-02 
663	 7.06894679200149E-02 
664	 6.94094586080774E-02 
665	 6.80574915542388E-02 
666	 6.67965029441492E-02 
667	 0.066190031905629 
668	 6.57452540806714E-02 
669	 6.39181036204462E-02 
670	 6.25710213013316E-02 
671	 0.062343019443875 
672	 6.25059440796808E-02 
673	 6.26656275187879E-02 
674	 6.24496125228626E-02 
675	 6.22709753492271E-02 
676	 0.062199905970047 
677	 6.20626566835839E-02 
678	 6.23339207286703E-02 
679	 6.31765222976627E-02 
680	 6.37722401581814E-02 
681	 6.41606786957748E-02 
682	 6.45377292269108E-02 
683	 6.57653275950805E-02 
684	 6.77520702352304E-02 
685	 6.90662709547555E-02 
686	 7.07507846521597E-02 
687	 0.073680063258677 
688	 7.65371681969787E-02 
689	 7.90813040566988E-02 
690	 8.19688252758999E-02 
691	 8.52317856364352E-02 
692	 0.088818276826215 
693	 9.18801393763185E-02 
694	 9.51786436058194E-02 
695	 9.92898496579945E-02 
696	 0.10244545232679 
697	 0.104926836534212 
698	 0.108587412721772 
699	 0.111964987055896 
700	 0.114463846155947 
701	 0.117435011983171 
702	 0.120483177928237 
703	 0.122898002549833 
704	 0.125432739594665 
705	 0.128069135830837 
706	 0.129877701478495 
707	 0.131982125729963 
708	 0.134916963332701 
709	 0.136691144373522 
710	 0.137852126431981 
711	 0.139954814282024 
712	 0.141580016658594 
713	 0.142572428408646 
714	 0.144314526585869 
715	 0.145801696699184 
716	 0.14613136133929 
717	 0.14623855116009 
718	 0.14696648889512 
719	 0.150101413717837 
720	 0.152146820781924 
721	 0.152261122836993 
722	 0.153675666437311 
723	 0.155337062811982 
724	 0.155798253755831 
725	 0.156283190209809 
726	 0.156983848153291 
727	 0.157637403426011 
728	 0.158562760410283 
729	 0.159840931325478 
730	 0.160990282872899 
731	 0.161691106075058 
732	 0.161632104103856 
733	 0.161764072893013 
734	 0.162370712308393 
735	 0.163516616467294 
736	 0.164691467405175 
737	 0.165497903282434 
738	 0.166067772479204 
739	 0.16657696218439 
740	 0.167303031531277 
741	 0.168034830426831 
742	 0.168667951789417 
743	 0.16909533340114 
744	 0.169354286098071 
745	 0.169522693436486 
746	 0.170032754714977 
747	 0.17083901507949 
748	 0.171729695432624 
749	 0.172127292911492 
750	 0.171979772240419 
751	 0.172405951905823 
752	 0.172856805599504 
753	 0.172700673314218 
754	 0.172675657536885 
755	 0.172953411578717 
756	 0.173607692369153 
757	 0.174101895742715 
758	 0.17416068787995 
759	 0.173616796804649 
760	 0.17253366198517 
761	 0.172485319944435 
762	 0.172430442237528 
763	 0.17264938435899 
764	 0.174736933157147 
765	 0.176448130987321 
766	 0.177108355626275 
767	 0.177927605090693 
768	 0.178537624139015 
769	 0.178342395482321 
770	 0.178564868781385 
771	 0.179223976777243 
772	 0.179194186132101 
773	 0.179269463768077 
774	 0.179942556547914 
775	 0.180615000071971 
776	 0.181101237086245 
777	 0.18125972914953 
778	 0.18116419086203 
779	 0.181116222658992 
780	 0.182236685043622 
781	 0.183092462701433 
782	 0.182641047560494 
783	 0.182669652223372 
784	 0.183210768315607 
785	 0.183702235134976 
786	 0.184091769363195 
787	 0.184261151894995 
788	 0.183924390285549 
789	 0.183609957124671 
790	 0.183804499162125 
791	 0.183930798266829 
792	 0.183977605582657 
793	 0.184172605602949 
794	 0.184480097212251 
795	 0.18480254459421 
796	 0.184678544683424 
797	 0.184625962907291 
798	 0.185147113401193 
799	 0.185369942913653 
800	 0.185339355301976 
801	 0.185623595965938 
802	 0.186046826991003 
803	 0.186516881765391 
804	 0.186944363186761 
805	 0.187047595204727 
806	 0.186605003867057 
807	 0.186962486786098 
808	 0.187948070963234 
809	 0.188305690752691 
810	 0.188110480338442 
811	 0.18753392941286 
812	 0.187678218668696 
813	 0.188235629237902 
814	 0.18864958258174 
815	 0.188967070714337 
816	 0.189194431256874 
817	 0.189344311734592 
818	 0.189949108959489 
819	 0.190982888418565 
820	 0.190975011447015 
821	 0.190907531771546 
822	 0.19201300495425 
823	 0.192721036419782 
824	 0.192901829354786 
825	 0.193322331553267 
826	 0.193666447466482 
827	 0.193837179420004 
828	 0.193777661250384 
829	 0.194253977766031 
830	 0.196088296409021 
831	 0.196584196419897 
832	 0.195743899801395 
833	 0.195283117098223 
834	 0.195495524603554 
835	 0.196319117824577 
836	 0.196350057525665 
837	 0.195765702213676 
838	 0.194978051478065 
839	 0.196159124534707 
840	 0.198304579012112 
841	 0.197190337626309 
842	 0.196149204067689 
843	 0.19640357741999 
844	 0.196185254576632 
845	 0.195801597830863 
846	 0.19577073686634 
847	 0.197062923074449 
848	 0.198667942231941 
849	 0.197064645197814 
850	 0.195977216281738 
851	 0.196704537364347 
852	 0.196948311749075 
853	 0.196954277784329 
854	 0.197094786674318 
855	 0.195979739291766 
856	 0.194385042143865 
857	 0.194850617633019 
858	 0.195196299303891 
859	 0.194771902546443 
860	 0.194330360844284 
861	 0.194026502885461 
862	 0.193969327815729 
863	 0.194025946888793 
864	 0.19402996859304 
865	 0.193502983432355 
866	 0.194368626280451 
867	 0.196581796116016 
868	 0.196737488588424 
869	 0.196533415252874 
870	 0.197411280210509 
871	 0.198225328632798 
872	 0.198615118562502 
873	 0.198120451383394 
874	 0.198833013148067 
875	 0.200682600874173 
876	 0.200501924331675 
877	 0.200277432242173 
878	 0.201387826779361 
879	 0.202503116794678 
880	 0.203545613550331 
881	 0.204665025493538 
882	 0.20669623495296 
883	 0.209154692736719 
884	 0.209672293425608 
885	 0.209902427738331 
886	 0.210752127272511 
887	 0.211504816676764 
888	 0.211942056915885 
889	 0.211881618717944 
890	 0.212487266376554 
891	 0.213531036112328 
892	 0.2133596960569 
893	 0.213000034705677 
894	 0.212987835352635 
895	 0.213397614270741 
896	 0.21391509790329 
897	 0.214181572807884 
898	 0.214961885006947 
899	 0.216569895717063 
900	 0.219658007478411 
901	 0.220362796858622 
902	 0.218319383545716 
903	 0.218388657178833 
904	 0.218560999031033 
905	 0.217592155971808 
906	 0.220166200587327 
907	 0.224045893302327 
908	 0.224319386937934 
909	 0.221870022655151 
910	 0.218619313017358 
911	 0.220799019445882 
912	 0.223819208602542 
913	 0.224668995863587 
914	 0.223255392144469 
915	 0.221469899573572 
916	 0.221644321108021 
917	 0.22593896739381 
918	 0.230701539597534 
919	 0.225105651727556 
920	 0.220919941041836 
921	 0.222025487279734 
922	 0.224636297260136 
923	 0.226298523777271 
924	 0.225121130195331 
925	 0.224105189241662 
926	 0.223983158050372 
927	 0.225296193450506 
928	 0.223402472059796 
929	 0.218162581852971 
930	 0.218815455607626 
931	 0.220312457573076 
932	 0.219493145560109 
933	 0.22767655914123 
934	 0.23423448706238 
935	 0.222072398864861 
936	 0.213640992534401 
937	 0.212962800949661 
938	 0.21351979447203 
939	 0.218449298059712 
940	 0.22578069053539 
941	 0.226341751561341 
942	 0.223043886127473 
943	 0.21881358912221 
944	 0.218544679520994 
945	 0.218659197135526 
946	 0.212253726957937 
947	 0.212422213307991 
948	 0.2200740906806 
949	 0.229319333599704 
950	 0.224379877552734 
951	 0.206064059659332 
952	 0.216452934552854 
953	 0.229723752538589 
954	 0.221748405181501 
955	 0.216145134685316 
956	 0.216340165782432 
957	 0.221313144246047 
958	 0.22453479400439 
959	 0.224349058355086 
960	 0.223135878815975 
961	 0.218726263281692 
962	 0.212354952886973 
963	 0.213463876246116 
964	 0.219720808449039 
965	 0.227427637076238 
966	 0.22572451636425 
967	 0.218654313914681 
968	 0.21755208056682 
969	 0.222200513885771 
970	 0.229541644042675 
971	 0.228056375907102 
972	 0.225980828136123 
973	 0.227302414727296 
974	 0.226076647056017 
975	 0.224301340131919 
976	 0.224553506514708 
977	 0.221291989127475 
978	 0.217381175468286 
979	 0.220910658663079 
980	 0.225177326211853 
981	 0.226942218936731 
982	 0.22233412011173 
983	 0.220355098140218 
984	 0.225060233167357 
985	 0.229163284360436 
986	 0.231889780722211 
987	 0.233000278727432 
988	 0.230269720625808 
989	 0.226833339972859 
990	 0.229592526701445 
991	 0.228379251938245 
992	 0.223215092122208 
993	 0.224915196452963 
994	 0.22737103283 
995	 0.22808702839635 
996	 0.232827593065399 
997	 0.234602970477129 
998	 0.227297314438291 
999	 0.224361879694377 
1000	 0.226851053542808 
1001	 0.232183842268797 
1002	 0.227500745942815 
1003	 0.217535098886518 
1004	 0.230448585040269 
1005	 0.238724840637179 
1006	 0.233387412490152 
1007	 0.228154065812108 
1008	 0.229113520486326 
1009	 0.238274553050007 
1010	 0.238072031641299 
1011	 0.232104016198389 
1012	 0.229218628606254 
1013	 0.240282802599337 
1014	 0.253914611303492 
1015	 0.236584060269259 
1016	 0.22907080326893 
1017	 0.238902623107222 
1018	 0.237561883459429 
1019	 0.239315233924567 
1020	 0.24807427535972 
1021	 0.238323384866725 
1022	 0.228131166125408 
1023	 0.235982449505163 
1024	 0.239424666764338 
1025	 0.238395912807743 
1026	 0.239003456653227 
1027	 0.240091560206233 
1028	 0.241741445591932 
1029	 0.244396778614967 
1030	 0.247372042806635 
1031	 0.248348613733888 
1032	 0.23867617182926 
1033	 0.227310227371053 
1034	 0.222107786603926 
1035	 0.224744319387404 
1036	 0.235036391691423 
1037	 0.250429844634769 
1038	 0.249570603565876 
1039	 0.236519078739294 
1040	 0.224478787864654 
1041	 0.237446548313758 
1042	 0.263815930517809 
1043	 0.251946797735884 
1044	 0.23959883744318 
1045	 0.238093752742936 
1046	 0.236305083557506 
1047	 0.2392699497807 
1048	 0.246506287437575 
1049	 0.236572004883928 
1050	 0.23053654513274 
1051	 0.247952125653252 
1052	 0.24508859788583 
1053	 0.234786437528857 
1054	 0.24553959614451 
1055	 0.242732419517091 
1056	 0.239080321887339 
1057	 0.285572109402416 
1058	 0.288486408450557 
1059	 0.240168769790402 
1060	 0.221380942642873 
1061	 0.231497200587599 
1062	 0.259927232847124 
1063	 0.246055068286839 
1064	 0.235473624286314 
1065	 0.257102956511578 
1066	 0.258853400955737 
1067	 0.242565652473791 
1068	 0.220582776793731 
1069	 0.239210724566258 
1070	 0.274288441632956 
1071	 0.270731200589014 
1072	 0.247526951859977 
1073	 0.219314723298979 
1074	 0.217743525598763 
1075	 0.170832489565288 
