Wavelength	SHSI00312.asd
325	 6.69504336364626E-02 
326	 6.95500056461349E-02 
327	 6.23040635081892E-02 
328	 6.68956701731622E-02 
329	 6.67720937524584E-02 
330	 5.86777670736184E-02 
331	 5.79354378962469E-02 
332	 0.061352837367913 
333	 0.064726423132954 
334	 6.68826521895044E-02 
335	 6.56305912803364E-02 
336	 5.55007475167761E-02 
337	 5.19400918372765E-02 
338	 5.78525486799474E-02 
339	 6.29356593570664E-02 
340	 6.39678396110801E-02 
341	 5.96290742618957E-02 
342	 5.90499389133266E-02 
343	 0.060398303915077 
344	 0.057081100385856 
345	 5.67106051489938E-02 
346	 0.059854936215247 
347	 6.09680957719291E-02 
348	 6.16375855403408E-02 
349	 6.25511289395779E-02 
350	 0.059347233452628 
351	 0.055098818346607 
352	 5.51739824598331E-02 
353	 5.48411024924584E-02 
354	 5.41603662756796E-02 
355	 5.78440453900888E-02 
356	 0.060481417577728 
357	 5.92711666556198E-02 
358	 5.93362742288472E-02 
359	 5.97943019331168E-02 
360	 5.84438814961114E-02 
361	 5.67921309949914E-02 
362	 5.58384179501573E-02 
363	 5.76037674456424E-02 
364	 5.83842057110422E-02 
365	 5.66097466629117E-02 
366	 5.58961660949008E-02 
367	 5.63158753227682E-02 
368	 5.74760273628355E-02 
369	 5.71308381010817E-02 
370	 0.055517366583341 
371	 5.51604050807887E-02 
372	 5.57643246887517E-02 
373	 0.056910845529285 
374	 5.67204132077478E-02 
375	 5.59893188163307E-02 
376	 5.60827839743389E-02 
377	 5.59079230984231E-02 
378	 0.055448851429924 
379	 5.54147328004301E-02 
380	 5.56823713700446E-02 
381	 5.59651887202608E-02 
382	 5.49276602118066E-02 
383	 0.053630081846196 
384	 5.35808842228652E-02 
385	 0.053734943600163 
386	 5.42691172715271E-02 
387	 5.69418757581816E-02 
388	 0.057036332003955 
389	 5.33408339501263E-02 
390	 5.21505122882897E-02 
391	 5.28806014189463E-02 
392	 5.40984361661728E-02 
393	 5.40516012331796E-02 
394	 5.30132697035705E-02 
395	 5.30581166527266E-02 
396	 5.30767776140972E-02 
397	 5.27605075649568E-02 
398	 0.053080607959719 
399	 5.34599587206544E-02 
400	 0.053277792225167 
401	 0.052936587768231 
402	 5.26782969677966E-02 
403	 5.29298474212547E-02 
404	 5.29686718210292E-02 
405	 5.26073315127901E-02 
406	 0.052601990036266 
407	 5.29278938577898E-02 
408	 5.34596202209305E-02 
409	 5.30815567101826E-02 
410	 5.21513101459966E-02 
411	 5.24759726816202E-02 
412	 5.25707237414183E-02 
413	 5.19568359555765E-02 
414	 5.23046026195701E-02 
415	 5.29655474701649E-02 
416	 5.29324084985009E-02 
417	 5.26260790778388E-02 
418	 5.22860637637663E-02 
419	 5.23231345489865E-02 
420	 5.24884351577015E-02 
421	 5.26182291875271E-02 
422	 5.25782577619977E-02 
423	 5.25594669065572E-02 
424	 5.28697140397564E-02 
425	 5.28050214985986E-02 
426	 5.23932410113073E-02 
427	 5.23372518111366E-02 
428	 5.26544545115652E-02 
429	 5.32331523376748E-02 
430	 5.31492824202636E-02 
431	 5.27021807444187E-02 
432	 5.25962758601446E-02 
433	 5.26561969771696E-02 
434	 5.27528683110851E-02 
435	 5.25807717079738E-02 
436	 5.22984066159271E-02 
437	 5.20645519652801E-02 
438	 5.22873111379677E-02 
439	 5.26929272599528E-02 
440	 5.26813811670561E-02 
441	 5.26897622011701E-02 
442	 0.052797756970147 
443	 5.27478983919003E-02 
444	 5.28778940148207E-02 
445	 5.33754294040401E-02 
446	 5.30790107175547E-02 
447	 5.24028053509869E-02 
448	 0.052673221453877 
449	 5.30488754645763E-02 
450	 0.053229217535915 
451	 0.053161986701296 
452	 5.31469746165721E-02 
453	 5.34464637165878E-02 
454	 5.32112222307062E-02 
455	 5.27330123289465E-02 
456	 5.32917590321062E-02 
457	 5.37252352083436E-02 
458	 0.053631756975225 
459	 5.37331554769197E-02 
460	 5.37827614796919E-02 
461	 5.34419404470757E-02 
462	 5.33858735431829E-02 
463	 5.35927226702469E-02 
464	 5.34517581545145E-02 
465	 5.35038376125027E-02 
466	 0.053917884060327 
467	 5.38464018998858E-02 
468	 5.35466308337287E-02 
469	 5.35301015611278E-02 
470	 5.36098933000047E-02 
471	 0.053732962080703 
472	 5.38276865481687E-02 
473	 5.40702319086816E-02 
474	 5.44870109846643E-02 
475	 5.43532976703715E-02 
476	 5.40103617603699E-02 
477	 5.42315876455494E-02 
478	 5.42220878575631E-02 
479	 5.39407487726674E-02 
480	 5.42228299930035E-02 
481	 5.44281878178749E-02 
482	 0.054092985245301 
483	 5.42396590140758E-02 
484	 5.47480352792648E-02 
485	 5.49508199801921E-02 
486	 5.49306202991759E-02 
487	 5.47324289332381E-02 
488	 5.45643920554209E-02 
489	 5.44742397678044E-02 
490	 0.054489339947429 
491	 5.46440855111521E-02 
492	 5.48091568495826E-02 
493	 5.46226461744446E-02 
494	 5.45131675080122E-02 
495	 5.46656583825275E-02 
496	 5.49579679550874E-02 
497	 5.51869757405632E-02 
498	 5.51157812398943E-02 
499	 5.50206180027361E-02 
500	 5.50246226002191E-02 
501	 0.055271687344944 
502	 5.55171001375476E-02 
503	 5.56129784903196E-02 
504	 5.57010823854701E-02 
505	 5.57870947770881E-02 
506	 5.58340615619564E-02 
507	 5.61262840509385E-02 
508	 5.65795071312325E-02 
509	 5.65380719250252E-02 
510	 5.64046030496532E-02 
511	 5.65078420975436E-02 
512	 5.65923286115314E-02 
513	 5.67192098049232E-02 
514	 5.71427027800389E-02 
515	 0.057484925353926 
516	 5.75982063156154E-02 
517	 5.74731627098014E-02 
518	 5.76593183355381E-02 
519	 5.86646228659118E-02 
520	 5.87035942604863E-02 
521	 5.80174415726853E-02 
522	 5.82524099803068E-02 
523	 5.86080065373948E-02 
524	 5.87483590839556E-02 
525	 5.88804391832211E-02 
526	 5.90297984066568E-02 
527	 5.92152674316478E-02 
528	 5.91361951558898E-02 
529	 5.89328647593264E-02 
530	 5.93159266630709E-02 
531	 5.98881091742949E-02 
532	 6.03255029920823E-02 
533	 6.02541866566776E-02 
534	 0.059988166576713 
535	 6.02544447210075E-02 
536	 6.04667205512768E-02 
537	 6.04925983585734E-02 
538	 6.05682349265513E-02 
539	 0.060812163276613 
540	 6.12875628029682E-02 
541	 6.12601338499211E-02 
542	 6.08955515642867E-02 
543	 6.10305573169276E-02 
544	 6.11911256802447E-02 
545	 6.12150878086741E-02 
546	 0.061315584653617 
547	 6.14935528893601E-02 
548	 0.061726538602795 
549	 6.18581993463952E-02 
550	 6.19175223194624E-02 
551	 6.21685370763614E-02 
552	 6.23672989985019E-02 
553	 6.23760254991953E-02 
554	 0.06244677862397 
555	 6.24967821657043E-02 
556	 0.062283179259112 
557	 0.062286916744562 
558	 6.25925045377884E-02 
559	 6.28315859634887E-02 
560	 6.28727735271606E-02 
561	 6.26381266042053E-02 
562	 6.24967226297091E-02 
563	 6.25511634557738E-02 
564	 6.28657007158328E-02 
565	 6.31688154077746E-02 
566	 6.32882240317234E-02 
567	 6.30491792692874E-02 
568	 6.27425398671248E-02 
569	 6.27526911973107E-02 
570	 6.28491134696689E-02 
571	 6.29798009465617E-02 
572	 6.31859378995107E-02 
573	 6.32969556075685E-02 
574	 6.32193349765033E-02 
575	 6.31300863512704E-02 
576	 6.30457720121248E-02 
577	 6.29257984197529E-02 
578	 0.063065046510772 
579	 6.33971638432569E-02 
580	 6.32180045909094E-02 
581	 6.29614246403582E-02 
582	 6.30211045085483E-02 
583	 6.30554521384737E-02 
584	 6.30583333753916E-02 
585	 6.32133004041618E-02 
586	 0.063134791448184 
587	 6.27645818280737E-02 
588	 6.27972726489926E-02 
589	 6.29794655478815E-02 
590	 6.28964339053795E-02 
591	 6.28807520366649E-02 
592	 6.29084689177902E-02 
593	 6.26084775425772E-02 
594	 6.25203564124558E-02 
595	 6.28998331555394E-02 
596	 6.30623463653593E-02 
597	 0.063024078179565 
598	 6.29716660469967E-02 
599	 6.30837151773989E-02 
600	 6.33309651578196E-02 
601	 6.32994459798198E-02 
602	 6.31447155528712E-02 
603	 6.30272218954159E-02 
604	 6.29859153729267E-02 
605	 6.29760549005207E-02 
606	 6.28549569959182E-02 
607	 6.27084743356173E-02 
608	 6.26026944338892E-02 
609	 6.27161338314474E-02 
610	 6.28263568709077E-02 
611	 6.26412321010755E-02 
612	 6.26957860175065E-02 
613	 6.29164535898581E-02 
614	 6.25968894362374E-02 
615	 6.23233764394225E-02 
616	 6.24104310219335E-02 
617	 6.22403517265516E-02 
618	 6.20682396205664E-02 
619	 0.062493986358409 
620	 6.26677118918154E-02 
621	 6.24470540746575E-02 
622	 6.24413048301483E-02 
623	 6.24034260076415E-02 
624	 6.21307161693445E-02 
625	 6.22148690276164E-02 
626	 6.24916508007751E-02 
627	 6.22374084774469E-02 
628	 6.20446189770404E-02 
629	 6.21189602448278E-02 
630	 6.22153777563534E-02 
631	 6.21918091103304E-02 
632	 6.19076908329872E-02 
633	 6.17742241230588E-02 
634	 6.18632083553053E-02 
635	 6.20429199772359E-02 
636	 6.22241490569318E-02 
637	 6.23182933301575E-02 
638	 6.21276862046216E-02 
639	 0.06192300374584 
640	 6.22342849748628E-02 
641	 6.24120872633735E-02 
642	 6.23130488111785E-02 
643	 6.23092587021069E-02 
644	 0.062220906517287 
645	 6.19036940602099E-02 
646	 6.17378045650651E-02 
647	 0.061715135826602 
648	 6.15948410327604E-02 
649	 6.15755899918852E-02 
650	 6.16828417807548E-02 
651	 6.16613048401584E-02 
652	 6.14496886968346E-02 
653	 6.10099205503405E-02 
654	 6.11337452401525E-02 
655	 6.17242649182521E-02 
656	 6.17034137352127E-02 
657	 6.14529193770539E-02 
658	 6.11698630853862E-02 
659	 6.03815810003314E-02 
660	 5.95913999812673E-02 
661	 5.96648037047467E-02 
662	 5.96480021447324E-02 
663	 5.93371525905217E-02 
664	 5.91868015356233E-02 
665	 5.88539982052119E-02 
666	 5.81117136243178E-02 
667	 5.78731280399911E-02 
668	 5.80547681937773E-02 
669	 5.80972036238502E-02 
670	 5.78861195063152E-02 
671	 5.74400958527526E-02 
672	 5.72809364974283E-02 
673	 5.72939379782328E-02 
674	 5.72926215109483E-02 
675	 5.72429113418025E-02 
676	 5.71883733284819E-02 
677	 5.73033831856361E-02 
678	 5.74675303601435E-02 
679	 5.76094352175898E-02 
680	 5.77212239695382E-02 
681	 5.78427504567735E-02 
682	 5.80350866709394E-02 
683	 5.83217359233962E-02 
684	 5.87021998659379E-02 
685	 5.91729079701369E-02 
686	 5.96077972007067E-02 
687	 5.99335005748443E-02 
688	 6.08029694567008E-02 
689	 6.18807078622055E-02 
690	 6.23771706855325E-02 
691	 6.27359455989494E-02 
692	 6.31248822748217E-02 
693	 6.35646591697949E-02 
694	 0.064128569818897 
695	 6.48503819152665E-02 
696	 6.54327938537797E-02 
697	 6.58722120973156E-02 
698	 6.63704117902316E-02 
699	 6.68002806851757E-02 
700	 6.71501471199345E-02 
701	 6.78187961371357E-02 
702	 6.84276243054429E-02 
703	 6.84125686968649E-02 
704	 6.85958135891889E-02 
705	 6.90581426432686E-02 
706	 6.93270627027389E-02 
707	 6.94713833764306E-02 
708	 6.95528026858443E-02 
709	 6.96990011047726E-02 
710	 6.99692900231843E-02 
711	 7.04660885571757E-02 
712	 7.05804275474672E-02 
713	 7.03165873339788E-02 
714	 7.06464812247248E-02 
715	 7.10122844650061E-02 
716	 7.09063336454332E-02 
717	 7.11973026976563E-02 
718	 7.17215037032592E-02 
719	 7.12576718875615E-02 
720	 7.10791563108345E-02 
721	 7.14970925503901E-02 
722	 7.15901324776646E-02 
723	 7.15720182281297E-02 
724	 7.17174963612303E-02 
725	 7.17675453857714E-02 
726	 7.17379526525895E-02 
727	 7.18773087066571E-02 
728	 7.19583939606702E-02 
729	 7.19192461179327E-02 
730	 7.21337627564543E-02 
731	 7.25134194598528E-02 
732	 7.28900204179785E-02 
733	 7.27762678894508E-02 
734	 7.23008967010467E-02 
735	 7.22042073643554E-02 
736	 7.24979345401807E-02 
737	 7.30873577452947E-02 
738	 7.30172936763152E-02 
739	 7.26903974142963E-02 
740	 7.31288377124436E-02 
741	 7.35393297637165E-02 
742	 7.36298582530623E-02 
743	 7.32363238289145E-02 
744	 7.29594452918024E-02 
745	 7.32673053289176E-02 
746	 7.33671548024805E-02 
747	 7.32755535167838E-02 
748	 7.33536444551287E-02 
749	 0.073599195360233 
750	 7.39532993956005E-02 
751	 7.41232363283232E-02 
752	 7.39647448371537E-02 
753	 7.33969634114667E-02 
754	 0.073313637183089 
755	 0.0736467186309 
756	 7.36320059265939E-02 
757	 7.35697178688314E-02 
758	 7.35651967777033E-02 
759	 7.34389528243186E-02 
760	 7.33383902989501E-02 
761	 7.38240089552965E-02 
762	 7.43934838715799E-02 
763	 7.46841951221422E-02 
764	 7.45252218600822E-02 
765	 7.42148164732784E-02 
766	 7.39692270110499E-02 
767	 7.41135903419954E-02 
768	 7.43589160426158E-02 
769	 7.43563760372551E-02 
770	 7.44825580165087E-02 
771	 7.47355846441099E-02 
772	 7.47797373131331E-02 
773	 0.074838384488262 
774	 0.075033987505707 
775	 7.50999855607565E-02 
776	 7.49583953902319E-02 
777	 7.45184577196803E-02 
778	 7.43178527366952E-02 
779	 0.074473264972179 
780	 7.46642396784994E-02 
781	 7.47609364607258E-02 
782	 7.46905918109586E-02 
783	 7.47779791295164E-02 
784	 7.49829266914372E-02 
785	 7.50970559666412E-02 
786	 7.52846102021594E-02 
787	 7.54733388890655E-02 
788	 7.50926325973096E-02 
789	 7.46665936948641E-02 
790	 7.47222927344559E-02 
791	 7.52016125935408E-02 
792	 7.57667597368771E-02 
793	 0.075666679682619 
794	 7.54104172960968E-02 
795	 7.52148666590308E-02 
796	 7.51714666214817E-02 
797	 0.075215063219028 
798	 7.52548150769943E-02 
799	 7.50064632613069E-02 
800	 7.47052467174203E-02 
801	 7.51487549757216E-02 
802	 7.56013122423819E-02 
803	 7.57225745321971E-02 
804	 7.53711930719294E-02 
805	 7.52062122016232E-02 
806	 7.58970773782153E-02 
807	 7.63312385565836E-02 
808	 0.076343197540219 
809	 7.61773237352997E-02 
810	 7.59772349490959E-02 
811	 7.58059279066733E-02 
812	 7.54230297083729E-02 
813	 7.51847822340616E-02 
814	 7.55619132621182E-02 
815	 7.55942160137896E-02 
816	 7.53340930545526E-02 
817	 7.58087617615161E-02 
818	 7.61295582177162E-02 
819	 7.59695412250255E-02 
820	 7.57893481772763E-02 
821	 7.59214647328857E-02 
822	 7.66785730149024E-02 
823	 7.67734391876311E-02 
824	 7.62156939939004E-02 
825	 7.58660157369824E-02 
826	 7.59164866765493E-02 
827	 7.63364606976336E-02 
828	 7.61544220743045E-02 
829	 7.58936849653433E-02 
830	 7.62897883155189E-02 
831	 7.68962027791877E-02 
832	 7.74731741168376E-02 
833	 7.78097002683989E-02 
834	 7.73872468087407E-02 
835	 7.62551526821984E-02 
836	 7.59531244377298E-02 
837	 7.62429130582434E-02 
838	 7.66648000406915E-02 
839	 7.64469632267579E-02 
840	 7.60000891986613E-02 
841	 7.71747067242308E-02 
842	 7.76319002570612E-02 
843	 7.66559506680816E-02 
844	 7.64003462416137E-02 
845	 7.67109163144982E-02 
846	 7.71724015453254E-02 
847	 0.077059657123084 
848	 7.65239946934476E-02 
849	 0.076499528733652 
850	 7.65599824524822E-02 
851	 7.65501829633612E-02 
852	 7.65414011397376E-02 
853	 7.64654680192777E-02 
854	 7.62945922748162E-02 
855	 7.69199300697691E-02 
856	 0.077803308997455 
857	 7.72113217835019E-02 
858	 7.64639968405606E-02 
859	 7.61243287936992E-02 
860	 7.64586917844994E-02 
861	 7.71742645176966E-02 
862	 7.79006122194004E-02 
863	 0.077845831518527 
864	 7.72169305048616E-02 
865	 7.68465151764143E-02 
866	 7.68561551935725E-02 
867	 7.71868437938302E-02 
868	 7.71499754698255E-02 
869	 7.71373920867672E-02 
870	 7.74400350461728E-02 
871	 7.73990230331048E-02 
872	 7.72249108184388E-02 
873	 7.75287415328471E-02 
874	 7.76163594895099E-02 
875	 7.74258471013345E-02 
876	 7.76427637000322E-02 
877	 7.76860786476488E-02 
878	 7.72512088588093E-02 
879	 7.74245984925588E-02 
880	 7.79926730393664E-02 
881	 7.83917525204701E-02 
882	 7.77901545948361E-02 
883	 7.67320250465239E-02 
884	 7.80238702384395E-02 
885	 7.90880549774272E-02 
886	 7.85642823018673E-02 
887	 7.78952813789158E-02 
888	 7.77806598166599E-02 
889	 0.078870985139312 
890	 7.89565164096519E-02 
891	 7.79850267920739E-02 
892	 7.75126401897463E-02 
893	 7.75307875461475E-02 
894	 7.80175727265945E-02 
895	 7.83434470194693E-02 
896	 0.078667289009647 
897	 7.91845709933015E-02 
898	 7.89466115593898E-02 
899	 7.82952206672849E-02 
900	 7.86669235794266E-02 
901	 7.81404787924011E-02 
902	 7.66400009261219E-02 
903	 7.66770531759369E-02 
904	 7.72280088208635E-02 
905	 7.74986633944474E-02 
906	 7.87248265197252E-02 
907	 7.95425853354254E-02 
908	 7.72448759232632E-02 
909	 7.70342689154546E-02 
910	 7.90928687721295E-02 
911	 7.76663914608173E-02 
912	 7.69923093711807E-02 
913	 7.90080298672328E-02 
914	 7.90859533088504E-02 
915	 7.86780454901032E-02 
916	 8.00351842913262E-02 
917	 8.07555751763445E-02 
918	 8.04979222335566E-02 
919	 7.97616610520592E-02 
920	 7.86299934894083E-02 
921	 7.76518346256608E-02 
922	 7.92500804616554E-02 
923	 7.98414076166047E-02 
924	 7.65470214858713E-02 
925	 7.61753681229076E-02 
926	 7.77520554655387E-02 
927	 0.076457570633316 
928	 7.52479717164615E-02 
929	 7.55174816658094E-02 
930	 7.88923890907992E-02 
931	 8.20188750404705E-02 
932	 8.17320501258622E-02 
933	 7.79841282061862E-02 
934	 0.073581178876819 
935	 7.29413267017931E-02 
936	 7.43322427158786E-02 
937	 7.72426740786994E-02 
938	 8.20759180858232E-02 
939	 8.28694607017422E-02 
940	 7.92326348151429E-02 
941	 7.84079412380011E-02 
942	 7.84811393308192E-02 
943	 7.78138015665388E-02 
944	 0.075762739832914 
945	 7.57646536884308E-02 
946	 8.32193722819399E-02 
947	 8.66764368635218E-02 
948	 8.34113301712296E-02 
949	 7.45227585844043E-02 
950	 7.00950122656648E-02 
951	 7.38821295111823E-02 
952	 7.85033910121346E-02 
953	 7.97465336737304E-02 
954	 7.50472252241996E-02 
955	 7.11655747467604E-02 
956	 7.00393168417272E-02 
957	 7.24840042335696E-02 
958	 7.78937704996989E-02 
959	 8.32871243109133E-02 
960	 8.15662763833822E-02 
961	 7.79839255502753E-02 
962	 7.62669455981823E-02 
963	 8.11913097287847E-02 
964	 8.46603940208416E-02 
965	 7.93425664738861E-02 
966	 7.65573723501022E-02 
967	 0.077220895095379 
968	 7.90739976239312E-02 
969	 0.082290824124766 
970	 8.49352917897551E-02 
971	 8.06855235072539E-02 
972	 7.73906886475711E-02 
973	 7.89944224071685E-02 
974	 7.94268745935277E-02 
975	 0.079521036579293 
976	 8.07983044912336E-02 
977	 8.33535461686401E-02 
978	 8.48584267652924E-02 
979	 8.02410537833737E-02 
980	 7.98237903877455E-02 
981	 8.33851616821939E-02 
982	 0.077225472850801 
983	 7.46605441843676E-02 
984	 8.14776776366637E-02 
985	 8.32692786524641E-02 
986	 8.30825621307759E-02 
987	 0.085110430709585 
988	 8.23286822020394E-02 
989	 7.84381276018435E-02 
990	 8.33283021216671E-02 
991	 8.48701020888142E-02 
992	 8.16025338515569E-02 
993	 8.15784535326703E-02 
994	 8.15326228969974E-02 
995	 8.04304132588399E-02 
996	 0.082191746943776 
997	 8.36162126846719E-02 
998	 8.15700790843263E-02 
999	 7.97204174440972E-02 
1000	 7.84480680558162E-02 
1001	 7.72079757295683E-02 
1002	 0.077013159386895 
1003	 7.89451095996796E-02 
1004	 8.62556728986286E-02 
1005	 8.83360217866122E-02 
1006	 8.31675083783616E-02 
1007	 8.50075480338245E-02 
1008	 0.087940978742246 
1009	 0.086860158471672 
1010	 8.38469254218679E-02 
1011	 8.21180185672068E-02 
1012	 8.53028292093804E-02 
1013	 8.00467055927017E-02 
1014	 0.070831991583335 
1015	 7.52138413614275E-02 
1016	 7.86650882736356E-02 
1017	 7.87016071249449E-02 
1018	 8.56518653581778E-02 
1019	 9.06358725423182E-02 
1020	 8.89545357809578E-02 
1021	 8.45049954688076E-02 
1022	 8.22669720701114E-02 
1023	 8.62163254282756E-02 
1024	 8.51085197290257E-02 
1025	 0.082556248467945 
1026	 8.75193498148534E-02 
1027	 8.37730705417702E-02 
1028	 7.44734491624505E-02 
1029	 8.04495911554041E-02 
1030	 8.54830161672015E-02 
1031	 8.51749432769372E-02 
1032	 8.77290118342816E-02 
1033	 8.85108259743195E-02 
1034	 8.57929017638761E-02 
1035	 0.088672060702077 
1036	 0.092163718496805 
1037	 9.04478536569694E-02 
1038	 8.70562616884454E-02 
1039	 8.58730055530415E-02 
1040	 9.22398960105045E-02 
1041	 9.33983533194791E-02 
1042	 8.70116937420909E-02 
1043	 7.57632704300103E-02 
1044	 7.33945267222372E-02 
1045	 8.13443445472076E-02 
1046	 8.13304612542952E-02 
1047	 7.80073009695556E-02 
1048	 7.76121869679735E-02 
1049	 0.100709280619385 
1050	 0.11451756705362 
1051	 9.11277564900683E-02 
1052	 7.77519763973936E-02 
1053	 0.078137202303988 
1054	 8.45559053748763E-02 
1055	 8.31690406043019E-02 
1056	 7.78008034155156E-02 
1057	 8.62445115499137E-02 
1058	 9.57918964070869E-02 
1059	 9.93283796627671E-02 
1060	 8.36695319918573E-02 
1061	 0.086839374620581 
1062	 0.113993385696569 
1063	 9.32565667445003E-02 
1064	 0.075093709302496 
1065	 9.52866096786744E-02 
1066	 0.100021418444405 
1067	 9.23326759140184E-02 
1068	 8.36756879597319E-02 
1069	 8.86067128163443E-02 
1070	 9.51790825859988E-02 
1071	 8.13826265086079E-02 
1072	 0.08451189843924 
1073	 0.102193968524692 
1074	 0.101215825080879 
1075	 9.83293102235354E-02 
