Wavelength	SHSI00160.asd
325	 6.52321067099888E-02 
326	 6.49305254937489E-02 
327	 0.048848873189502 
328	 6.25724023850607E-02 
329	 7.04100715097814E-02 
330	 6.20498982733191E-02 
331	 5.81095173039424E-02 
332	 5.90777461323971E-02 
333	 6.35751249071235E-02 
334	 6.66699045858336E-02 
335	 6.64789309638663E-02 
336	 6.10876679321645E-02 
337	 0.057559966429982 
338	 0.057069320592774 
339	 5.24811369379094E-02 
340	 5.20027100710075E-02 
341	 6.10006587417151E-02 
342	 6.26388474598611E-02 
343	 5.96972335435953E-02 
344	 6.26250282606143E-02 
345	 6.30383561093331E-02 
346	 0.060542061832155 
347	 6.17707350243051E-02 
348	 6.38835580589687E-02 
349	 6.45653135275188E-02 
350	 6.22115335504594E-02 
351	 5.94146474995489E-02 
352	 6.05410030942102E-02 
353	 6.00698594437044E-02 
354	 5.78746781602823E-02 
355	 5.85722309465308E-02 
356	 6.04954743006382E-02 
357	 6.21613784555762E-02 
358	 6.11219865100293E-02 
359	 5.87184260983133E-02 
360	 5.72636896968025E-02 
361	 5.87194784495163E-02 
362	 6.17331226090983E-02 
363	 6.04202619469263E-02 
364	 5.89135189842342E-02 
365	 5.93175135188163E-02 
366	 5.93469663078469E-02 
367	 6.03688713910613E-02 
368	 6.44955165312738E-02 
369	 6.56008169456686E-02 
370	 6.35046794941463E-02 
371	 6.25472928873005E-02 
372	 6.35046489493411E-02 
373	 6.61414445031078E-02 
374	 0.065521968346042 
375	 6.26887330495269E-02 
376	 5.98903221865945E-02 
377	 5.88999208831199E-02 
378	 5.99080032508883E-02 
379	 6.21023403395917E-02 
380	 6.26721860393193E-02 
381	 6.06426954003664E-02 
382	 6.06547409618941E-02 
383	 6.17149940988002E-02 
384	 6.18886615841024E-02 
385	 0.062931604329697 
386	 6.42547064757567E-02 
387	 6.34222916455959E-02 
388	 6.14888268502869E-02 
389	 0.059419052993094 
390	 5.94444038652794E-02 
391	 6.07542509510535E-02 
392	 6.20954627499766E-02 
393	 6.22524747631254E-02 
394	 6.12383554364853E-02 
395	 5.99803687446687E-02 
396	 5.96015725733678E-02 
397	 5.98703410719062E-02 
398	 0.056824876661372 
399	 5.42427476579491E-02 
400	 5.58827465576572E-02 
401	 5.62092306556072E-02 
402	 5.55025036999698E-02 
403	 5.72876947094717E-02 
404	 5.87291805233538E-02 
405	 5.88046009923968E-02 
406	 5.91371363137124E-02 
407	 5.94031079344684E-02 
408	 5.90498950804383E-02 
409	 5.90240741718247E-02 
410	 0.059182856695934 
411	 5.83219578003665E-02 
412	 0.058235780558438 
413	 5.94292358016576E-02 
414	 5.93960225627744E-02 
415	 5.88328246013101E-02 
416	 5.89475779782078E-02 
417	 5.89159830854696E-02 
418	 5.87782372361029E-02 
419	 5.92736399966423E-02 
420	 0.059480818981106 
421	 5.90019733160923E-02 
422	 5.87641480917762E-02 
423	 5.89065189623161E-02 
424	 5.94732475960261E-02 
425	 5.95241796827027E-02 
426	 5.91268965888905E-02 
427	 5.94798129007413E-02 
428	 6.00694027338112E-02 
429	 6.04075522977815E-02 
430	 5.95080876453563E-02 
431	 5.84445243443716E-02 
432	 5.91687910574206E-02 
433	 5.92670991868506E-02 
434	 5.84947532378114E-02 
435	 5.82561297036809E-02 
436	 5.86954343760527E-02 
437	 5.97374636590773E-02 
438	 5.98700353427937E-02 
439	 0.059517023803292 
440	 0.05989518369901 
441	 6.02107129543911E-02 
442	 6.01500504349173E-02 
443	 5.92452527895074E-02 
444	 5.90024132172455E-02 
445	 6.04339951011989E-02 
446	 6.05507789895677E-02 
447	 5.96455536674995E-02 
448	 5.94760411352537E-02 
449	 5.95153351573588E-02 
450	 5.96868230029762E-02 
451	 0.060196100772017 
452	 6.08114714620373E-02 
453	 6.12911298432621E-02 
454	 6.17217620772523E-02 
455	 6.19290398089259E-02 
456	 6.13951409806203E-02 
457	 6.09811346100457E-02 
458	 6.10030358662093E-02 
459	 6.08386543747952E-02 
460	 0.060821790358927 
461	 6.13756530378646E-02 
462	 6.15426169800273E-02 
463	 6.13355296753025E-02 
464	 6.15019434659595E-02 
465	 6.17985421980299E-02 
466	 6.20926992010318E-02 
467	 6.24232535830193E-02 
468	 6.24006153513139E-02 
469	 6.14880008857104E-02 
470	 6.06247895451894E-02 
471	 6.03279998697952E-02 
472	 6.13843813898529E-02 
473	 6.21630680436549E-02 
474	 6.17094263541955E-02 
475	 6.14253253895376E-02 
476	 6.14631839446376E-02 
477	 6.17631773787965E-02 
478	 6.16524148332849E-02 
479	 6.12249681283589E-02 
480	 6.17690737738194E-02 
481	 6.24341193951794E-02 
482	 6.25323598184223E-02 
483	 6.27140552422352E-02 
484	 6.29798254847998E-02 
485	 6.30798129647894E-02 
486	 6.31942748134633E-02 
487	 6.32110541271469E-02 
488	 6.22368233923985E-02 
489	 6.13526349839834E-02 
490	 6.16412058123744E-02 
491	 0.062131160500713 
492	 6.24964291102503E-02 
493	 6.24259800203261E-02 
494	 6.24671557649782E-02 
495	 6.27616790098683E-02 
496	 6.24957785826325E-02 
497	 6.23405686312808E-02 
498	 6.32415172504484E-02 
499	 6.37283173076965E-02 
500	 6.36051320837261E-02 
501	 6.35926703936145E-02 
502	 6.34961791473498E-02 
503	 6.32673425221019E-02 
504	 6.33669336744088E-02 
505	 0.063573513983466 
506	 6.33926647911598E-02 
507	 6.37048876242397E-02 
508	 6.44873947204476E-02 
509	 0.064426804060065 
510	 6.50568275213537E-02 
511	 6.73316150399114E-02 
512	 0.067438954999218 
513	 6.61316087749544E-02 
514	 6.66348716090025E-02 
515	 6.73954615828438E-02 
516	 6.78847473824865E-02 
517	 6.81158256394957E-02 
518	 6.80941881396948E-02 
519	 6.78683333078642E-02 
520	 6.78447888084291E-02 
521	 6.81367920765524E-02 
522	 0.068781144853575 
523	 0.069472434625588 
524	 7.00340777690827E-02 
525	 7.04308123140979E-02 
526	 7.06963581001927E-02 
527	 7.08888576186601E-02 
528	 7.09150780369996E-02 
529	 7.09199911271354E-02 
530	 7.13676709006963E-02 
531	 7.21575612259512E-02 
532	 7.31006169923753E-02 
533	 7.31680935831681E-02 
534	 7.27791147122484E-02 
535	 7.30453588857747E-02 
536	 7.33780876553081E-02 
537	 7.36201345353709E-02 
538	 7.38045906322203E-02 
539	 0.074173369203959 
540	 0.074903295644097 
541	 0.074971071110641 
542	 7.45927366036488E-02 
543	 7.48763581112613E-02 
544	 0.075253623179634 
545	 7.55011844952621E-02 
546	 7.57162662625457E-02 
547	 7.59067912332066E-02 
548	 7.60774533096886E-02 
549	 7.61481526772545E-02 
550	 0.076151152383537 
551	 7.62553088964171E-02 
552	 7.63194620843783E-02 
553	 7.63408562955545E-02 
554	 7.71657924617635E-02 
555	 7.80250332739639E-02 
556	 7.72420974114098E-02 
557	 7.70066373027219E-02 
558	 7.77160378034065E-02 
559	 7.76634913712909E-02 
560	 0.07746135846229 
561	 7.77123864073995E-02 
562	 7.79005382568455E-02 
563	 7.80571134080185E-02 
564	 7.85957833695767E-02 
565	 7.86733701437759E-02 
566	 7.81083111612887E-02 
567	 7.81138832507677E-02 
568	 7.84028117556902E-02 
569	 7.84647010597293E-02 
570	 7.82225852290458E-02 
571	 7.78665125580443E-02 
572	 7.81265869558798E-02 
573	 7.84265676665135E-02 
574	 7.84247448851841E-02 
575	 7.84403763498475E-02 
576	 7.84217593106353E-02 
577	 7.81781960295614E-02 
578	 7.82052490785098E-02 
579	 7.85663309478439E-02 
580	 0.078815464654501 
581	 7.88494752063487E-02 
582	 7.86212585470891E-02 
583	 7.85306217137294E-02 
584	 7.85752505876724E-02 
585	 7.84967257616136E-02 
586	 0.078613242569769 
587	 7.89635980196841E-02 
588	 7.89871308739864E-02 
589	 0.078799687832942 
590	 7.86325430616911E-02 
591	 7.86953914564688E-02 
592	 7.89383965657553E-02 
593	 7.90488798849178E-02 
594	 7.89485301214537E-02 
595	 7.86724183141632E-02 
596	 7.88757739276849E-02 
597	 7.94636007858042E-02 
598	 0.080185872514829 
599	 8.00136815694531E-02 
600	 7.90129681364172E-02 
601	 0.079029914377101 
602	 7.93806055132319E-02 
603	 7.94103453576346E-02 
604	 7.94950203190664E-02 
605	 7.96601279755242E-02 
606	 7.98614743028807E-02 
607	 7.99401587636372E-02 
608	 7.98648096200403E-02 
609	 7.99268493225964E-02 
610	 7.99841900459792E-02 
611	 7.98307314927953E-02 
612	 8.00487907329477E-02 
613	 8.04511681129332E-02 
614	 7.98852737623625E-02 
615	 7.95437392983258E-02 
616	 8.00483020409057E-02 
617	 8.00482864001613E-02 
618	 7.97538421494901E-02 
619	 0.079850579809526 
620	 7.99198136382449E-02 
621	 7.98935050359007E-02 
622	 8.00184404845292E-02 
623	 8.00632503162116E-02 
624	 0.079835907841077 
625	 7.96809821792105E-02 
626	 7.97527152307657E-02 
627	 8.02525663198313E-02 
628	 0.080842310832259 
629	 0.081291930756536 
630	 8.13388315814687E-02 
631	 8.10798964827414E-02 
632	 8.06780676479691E-02 
633	 8.07467925061637E-02 
634	 8.12286099022377E-02 
635	 8.14376049034968E-02 
636	 8.13542247587723E-02 
637	 8.10411548609695E-02 
638	 8.12316560724246E-02 
639	 8.15123196571806E-02 
640	 8.09402802567318E-02 
641	 8.07547917838216E-02 
642	 0.081084544214387 
643	 8.06673161323949E-02 
644	 8.03013388842645E-02 
645	 8.06555218031784E-02 
646	 8.05131461770766E-02 
647	 7.99951752234905E-02 
648	 8.00507761959803E-02 
649	 8.00291070577716E-02 
650	 7.97280832698117E-02 
651	 7.94048342433947E-02 
652	 7.94131154010163E-02 
653	 8.01268869564239E-02 
654	 8.03752431715189E-02 
655	 7.99880722462975E-02 
656	 7.95022081235829E-02 
657	 7.91899488437093E-02 
658	 7.91619793819455E-02 
659	 7.87309357828044E-02 
660	 7.83085488557655E-02 
661	 0.078704055456836 
662	 7.88729604525486E-02 
663	 7.85486400272368E-02 
664	 7.80139813091447E-02 
665	 7.75683797690849E-02 
666	 7.74491701744337E-02 
667	 7.74329235597538E-02 
668	 7.74379839873999E-02 
669	 7.74193836970151E-02 
670	 7.71174976358891E-02 
671	 7.66798049391515E-02 
672	 7.75169356808336E-02 
673	 7.84207681850478E-02 
674	 7.79330971222009E-02 
675	 7.78247542572315E-02 
676	 7.82592422756357E-02 
677	 7.85070765171397E-02 
678	 7.84472045800736E-02 
679	 7.81167732114853E-02 
680	 7.83530652030857E-02 
681	 7.90165102178928E-02 
682	 7.96982167786452E-02 
683	 8.08199481926535E-02 
684	 8.22486559064318E-02 
685	 0.083208645065019 
686	 8.38705037714459E-02 
687	 8.44321907980492E-02 
688	 8.57232006051992E-02 
689	 8.74695100387826E-02 
690	 8.89330105843545E-02 
691	 9.06503749281421E-02 
692	 9.27435366100863E-02 
693	 9.48796768338147E-02 
694	 9.70368249255132E-02 
695	 9.91010326743714E-02 
696	 0.100711696630311 
697	 0.102171990167124 
698	 0.104493998150645 
699	 0.107070392019387 
700	 0.109500561566605 
701	 0.111410904148731 
702	 0.113185701353302 
703	 0.115427394962879 
704	 0.117514999979588 
705	 0.119414215765997 
706	 0.121434814870238 
707	 0.123550523624627 
708	 0.125669109885827 
709	 0.127221440704051 
710	 0.128606016275165 
711	 0.130709425991219 
712	 0.132543185300788 
713	 0.133958547944333 
714	 0.135783292549722 
715	 0.137571598246663 
716	 0.1389909904862 
717	 0.140521801390369 
718	 0.142250227319449 
719	 0.143897710772242 
720	 0.145040998993383 
721	 0.145697884470844 
722	 0.146791398890919 
723	 0.148298865813505 
724	 0.150073059411637 
725	 0.151543319855543 
726	 0.152500507951754 
727	 0.153194339503841 
728	 0.153848847791237 
729	 0.154702628802287 
730	 0.156395300212087 
731	 0.157959127031849 
732	 0.158018062075669 
733	 0.158772354691288 
734	 0.160319243106865 
735	 0.161156696209732 
736	 0.161675230411841 
737	 0.162205434579541 
738	 0.163543414016359 
739	 0.165123647312837 
740	 0.165686839414416 
741	 0.166186071454633 
742	 0.166897645163732 
743	 0.167666069342454 
744	 0.168517450798887 
745	 0.16944796997832 
746	 0.170048307700164 
747	 0.170484225691629 
748	 0.171381213219211 
749	 0.17195194762816 
750	 0.172142672754356 
751	 0.173228801197117 
752	 0.174591391791035 
753	 0.175474192560978 
754	 0.175870828493773 
755	 0.17621243019816 
756	 0.177987225408546 
757	 0.178373142351632 
758	 0.17650228136015 
759	 0.17695129489849 
760	 0.180245637224095 
761	 0.182950388989063 
762	 0.184963180128707 
763	 0.186302863782477 
764	 0.187596501455888 
765	 0.188429826049441 
766	 0.188685539831358 
767	 0.188368711651402 
768	 0.188143896482132 
769	 0.188755066537108 
770	 0.189189221666258 
771	 0.18954334565714 
772	 0.191122956212204 
773	 0.192601759589192 
774	 0.193126524176814 
775	 0.193542692757276 
776	 0.194113749331007 
777	 0.195077890167981 
778	 0.196199271906919 
779	 0.197328131954621 
780	 0.198236243336948 
781	 0.199087173682495 
782	 0.200003132174722 
783	 0.200772605732579 
784	 0.201451314758248 
785	 0.202183420449034 
786	 0.203193723561761 
787	 0.204390596073163 
788	 0.204899626940435 
789	 0.205340942257788 
790	 0.206310114955831 
791	 0.207292082197858 
792	 0.208241383679409 
793	 0.209340199409364 
794	 0.210001731369993 
795	 0.210308405753023 
796	 0.211862328582787 
797	 0.213295649273605 
798	 0.213264673090468 
799	 0.213926161560553 
800	 0.215433149929409 
801	 0.217109234883893 
802	 0.218136618634941 
803	 0.218360687510538 
804	 0.219305742850145 
805	 0.220208000244056 
806	 0.220192742811514 
807	 0.220622467876012 
808	 0.221759154776674 
809	 0.223667018682375 
810	 0.224667693650605 
811	 0.22425157180532 
812	 0.224576201908054 
813	 0.225608452152726 
814	 0.227042838309255 
815	 0.228960530627916 
816	 0.231086007426304 
817	 0.232837132617966 
818	 0.233783092765589 
819	 0.233970104694851 
820	 0.234599534597727 
821	 0.235831750920269 
822	 0.237712454580635 
823	 0.239402705972769 
824	 0.24034904969181 
825	 0.239771808878446 
826	 0.239894272635341 
827	 0.241547296103667 
828	 0.24321608152967 
829	 0.244164322217532 
830	 0.243782033854329 
831	 0.245334285310552 
832	 0.248341286279815 
833	 0.24936619399316 
834	 0.249807780375097 
835	 0.250283131829228 
836	 0.250780270460795 
837	 0.251649710032446 
838	 0.253231968312047 
839	 0.254638879205717 
840	 0.255487647805915 
841	 0.255032180708231 
842	 0.256308861672957 
843	 0.259777905938747 
844	 0.259892983478822 
845	 0.258346675532 
846	 0.257653225640127 
847	 0.259245692964031 
848	 0.262095160306301 
849	 0.262313532767404 
850	 0.26168509018016 
851	 0.2614011147437 
852	 0.263780591498821 
853	 0.267014330604584 
854	 0.268936677668512 
855	 0.270656191125075 
856	 0.271485206050224 
857	 0.268918375911432 
858	 0.268702686504556 
859	 0.271903686119014 
860	 0.272661712814 
861	 0.272614657095589 
862	 0.273607385696058 
863	 0.274985280857763 
864	 0.27651810083292 
865	 0.277853873671736 
866	 0.279382768861862 
867	 0.281028961233014 
868	 0.28196188358747 
869	 0.282734210089349 
870	 0.283837533403689 
871	 0.285186451098949 
872	 0.286186119175532 
873	 0.285613307857128 
874	 0.286323704747679 
875	 0.288906705513176 
876	 0.291772580047288 
877	 0.294161000231137 
878	 0.295619540907005 
879	 0.297074668851101 
880	 0.298273843051726 
881	 0.298611163410227 
882	 0.298838711640795 
883	 0.299508298022801 
884	 0.301526252813521 
885	 0.304077490457315 
886	 0.306438856461982 
887	 0.307557990763914 
888	 0.307718565715431 
889	 0.307512230119321 
890	 0.30769179953807 
891	 0.308141367612876 
892	 0.307594896164728 
893	 0.307644553322441 
894	 0.309233590056746 
895	 0.313064057943634 
896	 0.315802293785762 
897	 0.313903563287856 
898	 0.316600565681022 
899	 0.322807395117609 
900	 0.324701522600231 
901	 0.325181423110965 
902	 0.325206191632134 
903	 0.325006767379862 
904	 0.324788367945556 
905	 0.32482274600643 
906	 0.325937638094916 
907	 0.328181703797042 
908	 0.331463528134715 
909	 0.332407693455488 
910	 0.331299143785972 
911	 0.333481581479108 
912	 0.335766865621479 
913	 0.336559085092188 
914	 0.338169384153554 
915	 0.340563285681669 
916	 0.343294202319872 
917	 0.342943820740761 
918	 0.340664852299745 
919	 0.341455727661491 
920	 0.342283547004369 
921	 0.3421581114637 
922	 0.341345848691907 
923	 0.341293626315714 
924	 0.342981704048529 
925	 0.342631480952092 
926	 0.340353077039166 
927	 0.337788106424959 
928	 0.336737267943947 
929	 0.337929025987024 
930	 0.34022155577313 
931	 0.341808117221065 
932	 0.342388815896771 
933	 0.35458771872734 
934	 0.367030033848973 
935	 0.361296269504488 
936	 0.355580441237405 
937	 0.354383538383465 
938	 0.356251095352689 
939	 0.354657276227857 
940	 0.35016963668105 
941	 0.35526233958232 
942	 0.359608332315611 
943	 0.355988120531882 
944	 0.35362010596453 
945	 0.352524370335343 
946	 0.350648470504746 
947	 0.351321923576606 
948	 0.353883922618474 
949	 0.354955131155268 
950	 0.347440171291945 
951	 0.333283534150936 
952	 0.340319314631906 
953	 0.353018244234982 
954	 0.355908544759889 
955	 0.352983467433543 
956	 0.349546684863918 
957	 0.353880365824813 
958	 0.359277996052035 
959	 0.361797659737034 
960	 0.354130528239405 
961	 0.352277756661642 
962	 0.361085175911387 
963	 0.361997919138769 
964	 0.357608292951234 
965	 0.352179485977689 
966	 0.351879901725524 
967	 0.353962472336686 
968	 0.350362129515915 
969	 0.351035516025946 
970	 0.356681328022116 
971	 0.360139807021169 
972	 0.359483003729966 
973	 0.355699127378375 
974	 0.362578991182715 
975	 0.369298115314903 
976	 0.363281186934066 
977	 0.361908331975835 
978	 0.364758410739301 
979	 0.363642750701565 
980	 0.362969129541706 
981	 0.363971272011137 
982	 0.366868493766735 
983	 0.367699128178038 
984	 0.364996470836382 
985	 0.363310145184678 
986	 0.365567214474695 
987	 0.373695033150461 
988	 0.377950865723479 
989	 0.378251697967724 
990	 0.378321922610452 
991	 0.381736020846679 
992	 0.386117986796072 
993	 0.37795871192416 
994	 0.37279634908392 
995	 0.377441352414734 
996	 0.382268330831123 
997	 0.381398004886216 
998	 0.371438807757765 
999	 0.372657449726461 
1000	 0.381026966756523 
1001	 0.383538710570356 
1002	 0.381872656693665 
1003	 0.379404659298725 
1004	 0.385992644186761 
1005	 0.394793920025699 
1006	 0.400800933183747 
1007	 0.395340219953983 
1008	 0.394085975385143 
1009	 0.405975896208886 
1010	 0.395834479938987 
1011	 0.383201943383451 
1012	 0.400627415869689 
1013	 0.405766164059387 
1014	 0.398450537977668 
1015	 0.400542297835035 
1016	 0.402789077359003 
1017	 0.403365509583275 
1018	 0.404828917831033 
1019	 0.406513375061269 
1020	 0.408585102807723 
1021	 0.415559204155525 
1022	 0.416329606013218 
1023	 0.402426934094173 
1024	 0.406177494199536 
1025	 0.417558948595933 
1026	 0.411555149388916 
1027	 0.405396518443109 
1028	 0.402950048817222 
1029	 0.402388039113389 
1030	 0.402922556948455 
1031	 0.40574605195888 
1032	 0.418080981898578 
1033	 0.428868630344501 
1034	 0.429437833314296 
1035	 0.415856187513384 
1036	 0.40107709311353 
1037	 0.401045452702429 
1038	 0.422697666258754 
1039	 0.445887248124107 
1040	 0.435889946445893 
1041	 0.427535181417284 
1042	 0.429047567985737 
1043	 0.440443744751388 
1044	 0.441938583093584 
1045	 0.429455625980941 
1046	 0.420948129688883 
1047	 0.418004642928259 
1048	 0.4210616179132 
1049	 0.427537129212621 
1050	 0.422392174786102 
1051	 0.396719616864523 
1052	 0.395986877115333 
1053	 0.416176403566962 
1054	 0.436633012641235 
1055	 0.439494837369006 
1056	 0.429198503445957 
1057	 0.425275286669579 
1058	 0.430711182444128 
1059	 0.441264661786754 
1060	 0.435837266618615 
1061	 0.443818864048235 
1062	 0.466254767853964 
1063	 0.432413770448299 
1064	 0.397699035420829 
1065	 0.403901601680315 
1066	 0.434016417087729 
1067	 0.449165314452358 
1068	 0.415937259348642 
1069	 0.394235946012734 
1070	 0.395570777721996 
1071	 0.413421446875275 
1072	 0.395623920102186 
1073	 0.366050707057716 
1074	 0.405155144459893 
1075	 0.428088716277239 
