Wavelength	SHSI00169.asd
325	 5.59077912592041E-02 
326	 4.93489656657439E-02 
327	 4.36384999619478E-02 
328	 5.33301183485473E-02 
329	 6.04030387668194E-02 
330	 5.85591765995635E-02 
331	 5.36467607759221E-02 
332	 5.28094018340673E-02 
333	 6.10970527735157E-02 
334	 0.054668243846648 
335	 4.15288173410244E-02 
336	 4.92754746748591E-02 
337	 5.64108929143978E-02 
338	 5.63192559275584E-02 
339	 5.02969570495821E-02 
340	 4.76162881937476E-02 
341	 5.42309738861939E-02 
342	 5.23189368425069E-02 
343	 0.04748790080152 
344	 5.59103161668856E-02 
345	 5.92183504493699E-02 
346	 5.48042634318849E-02 
347	 5.18850131381148E-02 
348	 5.17858405076521E-02 
349	 5.46854413148469E-02 
350	 5.66834135498883E-02 
351	 5.69762957573498E-02 
352	 5.51663066825889E-02 
353	 5.39792774042478E-02 
354	 5.41800806839441E-02 
355	 5.57501268448071E-02 
356	 5.61275206344926E-02 
357	 5.43073952642356E-02 
358	 5.58893148474985E-02 
359	 5.77026078861811E-02 
360	 5.40566816647332E-02 
361	 5.39768777809754E-02 
362	 5.72985809660278E-02 
363	 5.61930279655991E-02 
364	 5.39764604793769E-02 
365	 5.28079037319183E-02 
366	 5.39799998509932E-02 
367	 5.62908656760967E-02 
368	 5.79391631416405E-02 
369	 0.058656111020327 
370	 5.82448937137283E-02 
371	 5.60158813660748E-02 
372	 5.61465770969631E-02 
373	 5.99612409010943E-02 
374	 5.96062320213221E-02 
375	 5.67204221633048E-02 
376	 0.054754852864618 
377	 5.24615428538909E-02 
378	 5.07628566352843E-02 
379	 5.29990857850959E-02 
380	 5.58167802194287E-02 
381	 5.71841690706024E-02 
382	 5.72187302288791E-02 
383	 5.56736307773227E-02 
384	 5.23567537098384E-02 
385	 5.33254165146785E-02 
386	 5.70751222183615E-02 
387	 5.50143384163211E-02 
388	 5.19023312959065E-02 
389	 5.03445730242095E-02 
390	 5.20876661087131E-02 
391	 5.50907284306536E-02 
392	 5.67302807166442E-02 
393	 5.56373939171479E-02 
394	 5.27933826635606E-02 
395	 5.20714408297754E-02 
396	 5.11613264541001E-02 
397	 4.94478898605575E-02 
398	 4.85090269447464E-02 
399	 4.88422411793015E-02 
400	 5.06890903890204E-02 
401	 5.07480119666236E-02 
402	 0.049822935256542 
403	 0.051739906881579 
404	 5.29482467164013E-02 
405	 5.22640606210121E-02 
406	 0.052251155056617 
407	 5.25576443997626E-02 
408	 5.24709159759127E-02 
409	 0.052286526278506 
410	 5.22104452311363E-02 
411	 5.25944576291101E-02 
412	 5.33452458828483E-02 
413	 5.40817516106264E-02 
414	 5.27569069122779E-02 
415	 5.13002193845539E-02 
416	 5.23742082661378E-02 
417	 0.053117639340555 
418	 5.31858139542304E-02 
419	 5.38555693397068E-02 
420	 5.39134721781082E-02 
421	 5.29595455623653E-02 
422	 5.30397408620247E-02 
423	 5.35702244475565E-02 
424	 5.33766774995307E-02 
425	 0.05276003695475 
426	 5.22339705087863E-02 
427	 5.34433038086056E-02 
428	 5.44065603799836E-02 
429	 5.38672261094468E-02 
430	 5.31335285036031E-02 
431	 5.25057423491238E-02 
432	 5.21141284115311E-02 
433	 0.052497235634591 
434	 5.33113725738552E-02 
435	 5.27842012442159E-02 
436	 5.27045775302303E-02 
437	 5.40645224092415E-02 
438	 0.054291070342437 
439	 5.36087038729108E-02 
440	 5.30641663248518E-02 
441	 5.30131292054212E-02 
442	 5.34422553310912E-02 
443	 0.053526191960249 
444	 5.38259277241001E-02 
445	 0.054683672811654 
446	 5.43550187109195E-02 
447	 5.33666557929077E-02 
448	 5.34597980721632E-02 
449	 5.39532217362151E-02 
450	 5.44733876252771E-02 
451	 5.42009654932073E-02 
452	 5.39735370088424E-02 
453	 5.46276245504247E-02 
454	 5.50932206433599E-02 
455	 0.055235751607772 
456	 5.53753641093142E-02 
457	 0.055135746399693 
458	 5.45310780674029E-02 
459	 5.44124854709408E-02 
460	 5.47725519624909E-02 
461	 5.54781510485528E-02 
462	 5.54556457346921E-02 
463	 5.48535128423232E-02 
464	 5.49537496428351E-02 
465	 5.52049038695023E-02 
466	 5.53468701892004E-02 
467	 5.56433408320575E-02 
468	 5.57048748866681E-02 
469	 0.054958495656874 
470	 5.42319557805397E-02 
471	 5.39384917314411E-02 
472	 5.45935677878295E-02 
473	 5.52451658838061E-02 
474	 5.52865958596514E-02 
475	 5.51795833848906E-02 
476	 5.51447237327774E-02 
477	 5.54785704855163E-02 
478	 5.54017901761226E-02 
479	 5.49709121406572E-02 
480	 5.54029934145093E-02 
481	 5.59785268540211E-02 
482	 5.60842326073533E-02 
483	 5.58919870359375E-02 
484	 5.56719202302018E-02 
485	 5.60511860637923E-02 
486	 5.61321756253746E-02 
487	 0.055742807606028 
488	 5.58498855376323E-02 
489	 5.60171730484625E-02 
490	 5.57740705723617E-02 
491	 5.58352234072307E-02 
492	 5.60174737026288E-02 
493	 5.53881123304063E-02 
494	 5.50804022483127E-02 
495	 5.54826129125984E-02 
496	 0.055555043212593 
497	 5.58033752174466E-02 
498	 0.057000302575024 
499	 5.73475569353931E-02 
500	 5.67662241025089E-02 
501	 5.66059739355998E-02 
502	 5.66839382184754E-02 
503	 0.05683551813644 
504	 5.65207089204014E-02 
505	 5.61486528514664E-02 
506	 5.65032459718408E-02 
507	 0.05688833718489 
508	 5.71235476557156E-02 
509	 5.72810780006832E-02 
510	 5.77329778978768E-02 
511	 5.86849717266847E-02 
512	 5.89892039258792E-02 
513	 5.88982131594952E-02 
514	 5.94689753804105E-02 
515	 6.00528272540811E-02 
516	 6.03649397843931E-02 
517	 6.01962644868676E-02 
518	 5.98910576944205E-02 
519	 5.98453303190176E-02 
520	 6.01334377167985E-02 
521	 6.05828380982532E-02 
522	 6.06410979003576E-02 
523	 6.09700367057078E-02 
524	 6.18029626830899E-02 
525	 6.25575450647669E-02 
526	 6.30492019184945E-02 
527	 6.31202028277163E-02 
528	 6.31249516609191E-02 
529	 0.063178776282118 
530	 6.31699278568977E-02 
531	 6.36055908701849E-02 
532	 6.46818851569416E-02 
533	 6.49345208623777E-02 
534	 0.064622446371819 
535	 6.46720842663607E-02 
536	 6.48811609293076E-02 
537	 6.52036464261424E-02 
538	 6.55745241768155E-02 
539	 6.59302198511438E-02 
540	 6.61930957350998E-02 
541	 6.59899406698593E-02 
542	 6.56094701335166E-02 
543	 6.59676691234616E-02 
544	 6.64071957114995E-02 
545	 6.66764433621442E-02 
546	 6.70311995046403E-02 
547	 6.74365254528142E-02 
548	 6.78242891555771E-02 
549	 6.78641058842791E-02 
550	 6.76282015357164E-02 
551	 6.76319654866603E-02 
552	 6.77094848980302E-02 
553	 6.77953527671251E-02 
554	 6.82516607978471E-02 
555	 6.87601707180822E-02 
556	 6.86433022930262E-02 
557	 6.86714616014689E-02 
558	 6.89549279908486E-02 
559	 6.87884895464977E-02 
560	 6.85681625066979E-02 
561	 6.86807491152993E-02 
562	 6.89624550992716E-02 
563	 6.93141958125393E-02 
564	 6.96325641261851E-02 
565	 6.96052815691699E-02 
566	 6.92057003692554E-02 
567	 6.91433405444687E-02 
568	 6.93638003077053E-02 
569	 6.97030567483645E-02 
570	 6.95382163408255E-02 
571	 0.069042844571507 
572	 6.94275196737838E-02 
573	 6.96365296653329E-02 
574	 6.91585000323839E-02 
575	 6.94205965365743E-02 
576	 7.00584710491184E-02 
577	 0.070071683036908 
578	 6.98902560859646E-02 
579	 6.96395858576492E-02 
580	 6.92934706963429E-02 
581	 6.90716234432751E-02 
582	 0.069159916222776 
583	 6.94265483420211E-02 
584	 6.97075570108031E-02 
585	 6.96797220055377E-02 
586	 0.069644108941877 
587	 0.069672308353842 
588	 6.93820041578837E-02 
589	 6.91606956801298E-02 
590	 6.95417247926839E-02 
591	 6.95661508190721E-02 
592	 6.92002503233674E-02 
593	 6.91174998892182E-02 
594	 0.069083487363817 
595	 6.90197144347513E-02 
596	 6.93624528224571E-02 
597	 6.99003613252335E-02 
598	 7.02377209374445E-02 
599	 6.97727667180399E-02 
600	 6.88103150108775E-02 
601	 6.95776387025069E-02 
602	 7.03882612356358E-02 
603	 6.98113597208589E-02 
604	 7.01869980340716E-02 
605	 7.11342157301694E-02 
606	 7.05831324512882E-02 
607	 7.01735177980434E-02 
608	 7.04721622443381E-02 
609	 7.07507659451552E-02 
610	 7.07499121324997E-02 
611	 7.02407855349721E-02 
612	 0.070296196854397 
613	 7.08022169817668E-02 
614	 7.04138337304603E-02 
615	 7.00447749995176E-02 
616	 7.01986849480933E-02 
617	 7.01149183310495E-02 
618	 6.99285101378423E-02 
619	 7.00426959900695E-02 
620	 0.07015319001119 
621	 7.02201970241785E-02 
622	 7.05683263472684E-02 
623	 7.05432130617474E-02 
624	 0.069664408185284 
625	 6.97435641886599E-02 
626	 7.06331435085742E-02 
627	 7.10631017561347E-02 
628	 7.13496752169677E-02 
629	 7.15217757248946E-02 
630	 7.13557506441769E-02 
631	 7.10070671421915E-02 
632	 7.06900856719449E-02 
633	 0.071013248191381 
634	 7.17158001549655E-02 
635	 7.14295215546757E-02 
636	 7.12445292794103E-02 
637	 7.16882677909069E-02 
638	 7.14724368776541E-02 
639	 7.09099750553082E-02 
640	 7.08463175456232E-02 
641	 7.08060578546029E-02 
642	 7.06686499051121E-02 
643	 7.05096196053073E-02 
644	 7.03622211116222E-02 
645	 0.07025421597836 
646	 7.01360770587929E-02 
647	 7.01309664710851E-02 
648	 0.070682071615515 
649	 7.07656939341751E-02 
650	 7.00569797930606E-02 
651	 6.92028315285817E-02 
652	 6.90280350142853E-02 
653	 7.03917628625489E-02 
654	 0.070761731268765 
655	 6.99658607251042E-02 
656	 6.98900604592859E-02 
657	 6.97731128990838E-02 
658	 6.92713542058599E-02 
659	 6.91350401042188E-02 
660	 6.91233853119912E-02 
661	 6.87222057265992E-02 
662	 6.84599759627494E-02 
663	 6.83922418241656E-02 
664	 6.80954581958289E-02 
665	 0.067709081608734 
666	 6.74175386835768E-02 
667	 6.79559245002458E-02 
668	 6.87754084839983E-02 
669	 6.83160160955897E-02 
670	 6.73936646104446E-02 
671	 6.66166328755162E-02 
672	 6.76070664958459E-02 
673	 6.87131576588796E-02 
674	 6.79592143249081E-02 
675	 6.78293818863224E-02 
676	 6.84679073203663E-02 
677	 6.85436884238123E-02 
678	 6.85051154240416E-02 
679	 0.068608577474637 
680	 6.90033630855461E-02 
681	 6.94202612109629E-02 
682	 0.069373879687388 
683	 7.00289463711722E-02 
684	 7.14475652505767E-02 
685	 7.25791684587851E-02 
686	 7.34882001141363E-02 
687	 7.42389225745697E-02 
688	 7.53584652302696E-02 
689	 7.66862990544747E-02 
690	 7.78048530118767E-02 
691	 7.93843050871766E-02 
692	 8.14709065106597E-02 
693	 8.31032129309908E-02 
694	 8.46356239962941E-02 
695	 8.64058614192524E-02 
696	 8.79881358263337E-02 
697	 8.95223579441139E-02 
698	 0.09168687643355 
699	 9.37610396269071E-02 
700	 9.54600328820186E-02 
701	 9.76262451434012E-02 
702	 9.98695936996997E-02 
703	 0.101555739419406 
704	 0.103443918599873 
705	 0.105563377813042 
706	 0.107319217631479 
707	 0.10881806442156 
708	 0.110151010887164 
709	 0.111487014353893 
710	 0.113007293748206 
711	 0.114993599889823 
712	 0.116735448245953 
713	 0.118108821872522 
714	 0.119827025710774 
715	 0.121157308330688 
716	 0.121528907944289 
717	 0.122704690036363 
718	 0.124807663855988 
719	 0.126586090707459 
720	 0.127616554470865 
721	 0.127936833743591 
722	 0.128612318481793 
723	 0.129728015170817 
724	 0.131270918694533 
725	 0.132406919318788 
726	 0.133149028669866 
727	 0.134587426016874 
728	 0.135723901693355 
729	 0.136171713661112 
730	 0.136978071112824 
731	 0.137955835606928 
732	 0.138678969925154 
733	 0.139488391526634 
734	 0.140448631301098 
735	 0.141547191361377 
736	 0.142334630552301 
737	 0.142596371473982 
738	 0.143555114890472 
739	 0.144930461835304 
740	 0.145900336373323 
741	 0.146501744980092 
742	 0.146791562355775 
743	 0.14700017169281 
744	 0.147525782712286 
745	 0.148630968854362 
746	 0.149310990857564 
747	 0.149715420571091 
748	 0.150682352664494 
749	 0.151548983381262 
750	 0.152146613081805 
751	 0.152897015558259 
752	 0.153772366471574 
753	 0.154686912826835 
754	 0.155017437957863 
755	 0.155059040193327 
756	 0.156159877056267 
757	 0.156467600411423 
758	 0.155377859147247 
759	 0.155263914193996 
760	 0.157304807099646 
761	 0.161916625934661 
762	 0.162916641415327 
763	 0.161099122653255 
764	 0.162355145707704 
765	 0.164197693623292 
766	 0.165458405928903 
767	 0.165666214229491 
768	 0.16560050892308 
769	 0.166127935746125 
770	 0.166569922792796 
771	 0.166952491124025 
772	 0.167928483605616 
773	 0.16891638395175 
774	 0.169554102312535 
775	 0.170338094638087 
776	 0.17115107461929 
777	 0.17168215850284 
778	 0.172081199614149 
779	 0.172552646990358 
780	 0.173714271883313 
781	 0.174869695485097 
782	 0.175482332470385 
783	 0.176187535085797 
784	 0.17697740793432 
785	 0.177604489094177 
786	 0.178249394711695 
787	 0.17894757640066 
788	 0.179607881956702 
789	 0.179993485025536 
790	 0.179968191238014 
791	 0.180575874545351 
792	 0.181914158605372 
793	 0.183856020891522 
794	 0.184923206801154 
795	 0.184774604416446 
796	 0.184920884914569 
797	 0.185385303314321 
798	 0.18608690184044 
799	 0.186905190811954 
800	 0.187819089841534 
801	 0.18883958807273 
802	 0.189976039320686 
803	 0.191167859247375 
804	 0.192329624082584 
805	 0.192728039179281 
806	 0.191743647914381 
807	 0.192369678761784 
808	 0.19440302054025 
809	 0.195409470056143 
810	 0.196116563890015 
811	 0.196681629446344 
812	 0.196515131046943 
813	 0.196392119703178 
814	 0.197391607498597 
815	 0.199636732045775 
816	 0.20236716886622 
817	 0.203186874973498 
818	 0.204114461827826 
819	 0.205632322700428 
820	 0.204983009200916 
821	 0.204535381029236 
822	 0.207169209100003 
823	 0.209054642221888 
824	 0.20948837606922 
825	 0.209295064738104 
826	 0.209702502768184 
827	 0.21107866092666 
828	 0.211601721847058 
829	 0.211798685434812 
830	 0.21253175962995 
831	 0.214084079750203 
832	 0.216137626732783 
833	 0.21783470886682 
834	 0.218444814462826 
835	 0.217957028668916 
836	 0.218255686417036 
837	 0.219274362028721 
838	 0.220709432184499 
839	 0.221826776101318 
840	 0.222620323609023 
841	 0.223611757100774 
842	 0.224907210949851 
843	 0.226199674965843 
844	 0.225366762562366 
845	 0.224462057247218 
846	 0.225878031127221 
847	 0.227283386470321 
848	 0.227980051318369 
849	 0.227220365512566 
850	 0.227623288145778 
851	 0.229976533430001 
852	 0.231543170963151 
853	 0.232640601664032 
854	 0.233867651703617 
855	 0.235742332199752 
856	 0.237138706114878 
857	 0.234631583487445 
858	 0.234679171122259 
859	 0.238228606926007 
860	 0.237663285878535 
861	 0.236458637061401 
862	 0.238141896741079 
863	 0.239127996976948 
864	 0.239596671027583 
865	 0.241415640575515 
866	 0.243697537250392 
867	 0.245709149367629 
868	 0.245767020588964 
869	 0.245792301693491 
870	 0.24722689792618 
871	 0.247349133133249 
872	 0.247037353990521 
873	 0.248743971361763 
874	 0.250403742252866 
875	 0.251537859234863 
876	 0.252989929807091 
877	 0.253947763079387 
878	 0.25425175185606 
879	 0.257565202249098 
880	 0.261439510427595 
881	 0.261205168339146 
882	 0.26092736145174 
883	 0.261571104397529 
884	 0.262318091388643 
885	 0.263390292989743 
886	 0.264824936159528 
887	 0.2661450997339 
888	 0.267284660813187 
889	 0.268236526401991 
890	 0.267369247813208 
891	 0.265708674320898 
892	 0.267603637175051 
893	 0.269404388080788 
894	 0.269729151307742 
895	 0.271417359431939 
896	 0.273843456827418 
897	 0.275862173995039 
898	 0.275695022601054 
899	 0.275313864955556 
900	 0.281012433140192 
901	 0.283080571862764 
902	 0.27974832265767 
903	 0.278675051837674 
904	 0.278935403670724 
905	 0.27968851209842 
906	 0.281260420155689 
907	 0.283528648183645 
908	 0.286392986976073 
909	 0.285153245636375 
910	 0.281220614534837 
911	 0.285583247809674 
912	 0.289320751413237 
913	 0.288268234016836 
914	 0.291777469988728 
915	 0.296307365429674 
916	 0.296520414526993 
917	 0.296009956775798 
918	 0.295388627756808 
919	 0.294167319871594 
920	 0.292930721905028 
921	 0.291966682187661 
922	 0.291161534670345 
923	 0.291554427831951 
924	 0.293698199187477 
925	 0.293077841016 
926	 0.290400713896708 
927	 0.288855754089203 
928	 0.290265558844351 
929	 0.294191457445804 
930	 0.293933760398499 
931	 0.291593333053029 
932	 0.290397591496491 
933	 0.30075010149219 
934	 0.313002687272927 
935	 0.311130066682376 
936	 0.311025650336573 
937	 0.311556526782771 
938	 0.299203556888928 
939	 0.292135522803099 
940	 0.294720900496782 
941	 0.299408823053828 
942	 0.302749592086666 
943	 0.302551554820148 
944	 0.302314922707601 
945	 0.302632255633315 
946	 0.303598864360494 
947	 0.304817936179234 
948	 0.30452960142219 
949	 0.29820704010724 
950	 0.290046436592963 
951	 0.284093991851276 
952	 0.290936582987319 
953	 0.29779685026739 
954	 0.293805582605798 
955	 0.292652468669527 
956	 0.295319618339553 
957	 0.299440308908688 
958	 0.304372416704406 
959	 0.307598311853767 
960	 0.301767419159408 
961	 0.299955520153574 
962	 0.306526254084794 
963	 0.307863085793596 
964	 0.306695609309875 
965	 0.306574843959451 
966	 0.306733125072111 
967	 0.305630717614485 
968	 0.300073486374921 
969	 0.298476762882967 
970	 0.302497110521087 
971	 0.309385686834146 
972	 0.311937212996285 
973	 0.308070449547144 
974	 0.311686575891738 
975	 0.317828713081732 
976	 0.319503060624489 
977	 0.319267884832145 
978	 0.317458218292648 
979	 0.313803950484266 
980	 0.310331534033363 
981	 0.309507357651632 
982	 0.317440708622096 
983	 0.320715725824333 
984	 0.314376834546446 
985	 0.316668141277 
986	 0.321853860050613 
987	 0.322276213699952 
988	 0.324842335933301 
989	 0.327471050645938 
990	 0.323606173844803 
991	 0.3250951223001 
992	 0.331018181096418 
993	 0.324449972301039 
994	 0.322180846921247 
995	 0.329905464534237 
996	 0.328251699422367 
997	 0.32207536938765 
998	 0.318185699531115 
999	 0.321882789702636 
1000	 0.328411369244877 
1001	 0.328228504519026 
1002	 0.32642398461119 
1003	 0.325967588433467 
1004	 0.332014945830211 
1005	 0.338087987283247 
1006	 0.340264966296135 
1007	 0.334732828335035 
1008	 0.332104945342369 
1009	 0.338584027358585 
1010	 0.331543842268995 
1011	 0.322248451472367 
1012	 0.330310075450743 
1013	 0.337738582821317 
1014	 0.342054051106458 
1015	 0.346836146533633 
1016	 0.346432480689361 
1017	 0.341133844952321 
1018	 0.338201067877727 
1019	 0.339320492729214 
1020	 0.34500078191252 
1021	 0.352769727408764 
1022	 0.355477481742764 
1023	 0.347613136956845 
1024	 0.343220522928459 
1025	 0.342430236294123 
1026	 0.341129692263181 
1027	 0.342500126564703 
1028	 0.345999112507794 
1029	 0.348408187279031 
1030	 0.34710285333399 
1031	 0.343721464165514 
1032	 0.351818744737917 
1033	 0.352418296756597 
1034	 0.338106683064453 
1035	 0.34314490519209 
1036	 0.354751021040631 
1037	 0.355934963305356 
1038	 0.359500550067434 
1039	 0.364713044384571 
1040	 0.366986243305737 
1041	 0.362970923443983 
1042	 0.358022764600526 
1043	 0.370412192784927 
1044	 0.380143710234781 
1045	 0.380416438096267 
1046	 0.377881275114066 
1047	 0.371011379390525 
1048	 0.35816465734949 
1049	 0.32933618324885 
1050	 0.317665692933964 
1051	 0.350422992602756 
1052	 0.361680225978286 
1053	 0.353217304118413 
1054	 0.344731853195468 
1055	 0.356307278010926 
1056	 0.377595075416437 
1057	 0.37130831562356 
1058	 0.349991690697391 
1059	 0.325877641968294 
1060	 0.320588132716408 
1061	 0.340005379504574 
1062	 0.371753724323662 
1063	 0.339536609355284 
1064	 0.297048043717004 
1065	 0.288924898282684 
1066	 0.323731790747124 
1067	 0.356025638406034 
1068	 0.344033665419575 
1069	 0.35544276576675 
1070	 0.367881089573643 
1071	 0.327148739552428 
1072	 0.325323936603505 
1073	 0.358820203653333 
1074	 0.363596270676911 
1075	 0.361809546859888 
