Wavelength	SHSI00168.asd
325	 6.31757095448445E-02 
326	 5.97847159807365E-02 
327	 5.22561732806418E-02 
328	 6.39276097907158E-02 
329	 0.067620294066026 
330	 5.59314383591119E-02 
331	 0.046540459420131 
332	 4.49200634272374E-02 
333	 5.35953345069701E-02 
334	 5.15679884688298E-02 
335	 4.33357325259179E-02 
336	 0.048521580142568 
337	 5.09005262670264E-02 
338	 4.74366656696906E-02 
339	 0.047362503380072 
340	 0.049569606522903 
341	 5.24795305001032E-02 
342	 5.32281113103558E-02 
343	 5.28689092950411E-02 
344	 5.45673145894183E-02 
345	 5.35663683261401E-02 
346	 5.03759553792646E-02 
347	 5.12154205171319E-02 
348	 0.0544224869183 
349	 5.78117923533991E-02 
350	 0.054271102861228 
351	 4.97797769048129E-02 
352	 5.51371773725687E-02 
353	 5.69467151201247E-02 
354	 0.054031812010794 
355	 5.51470275681925E-02 
356	 5.59740266782478E-02 
357	 5.42069250941015E-02 
358	 5.42576890557968E-02 
359	 5.47391534906123E-02 
360	 5.28143553073802E-02 
361	 5.18238770947247E-02 
362	 5.23884260226439E-02 
363	 5.39361051602223E-02 
364	 5.40392536004512E-02 
365	 5.19028548636764E-02 
366	 5.10946172063482E-02 
367	 5.21066312263111E-02 
368	 5.50586737593151E-02 
369	 5.69099184037397E-02 
370	 5.70503239362503E-02 
371	 5.59553050183971E-02 
372	 5.68242730086993E-02 
373	 6.03728478550503E-02 
374	 5.85857015866793E-02 
375	 5.42969247739041E-02 
376	 5.25187144243088E-02 
377	 0.05194442810414 
378	 5.22669127312202E-02 
379	 5.32972120237638E-02 
380	 5.38232046388948E-02 
381	 5.34839815102735E-02 
382	 5.51536829552029E-02 
383	 5.58420575142479E-02 
384	 5.14767755283993E-02 
385	 5.21266079673358E-02 
386	 5.66327092960094E-02 
387	 5.42537655275798E-02 
388	 5.24921646824211E-02 
389	 5.39378666076964E-02 
390	 5.29474896409188E-02 
391	 5.15614838111324E-02 
392	 0.052668610001795 
393	 5.30281526800071E-02 
394	 0.052198888115601 
395	 5.09496661401846E-02 
396	 5.04891685567193E-02 
397	 5.08209479017275E-02 
398	 4.91495876715679E-02 
399	 4.74730773585132E-02 
400	 4.78581980702344E-02 
401	 4.78901672482429E-02 
402	 4.79632959481103E-02 
403	 0.050610176388172 
404	 5.17896308408564E-02 
405	 5.04057288219456E-02 
406	 5.11119649511515E-02 
407	 5.25360388005166E-02 
408	 5.25128034024489E-02 
409	 5.15757788100937E-02 
410	 5.04179774797697E-02 
411	 5.05398574178523E-02 
412	 5.11929688852142E-02 
413	 5.18017971519081E-02 
414	 5.11825655235095E-02 
415	 5.05010869822545E-02 
416	 5.13731744463564E-02 
417	 5.20233632357501E-02 
418	 0.05202589337278 
419	 5.14426018830561E-02 
420	 5.08878910935828E-02 
421	 5.06955557297071E-02 
422	 5.04287984647216E-02 
423	 5.04568275976805E-02 
424	 5.13982676763383E-02 
425	 5.13360788889013E-02 
426	 5.04064366624508E-02 
427	 5.10123627184488E-02 
428	 5.17584873971381E-02 
429	 5.17483214132686E-02 
430	 5.17887554768315E-02 
431	 5.16456956846343E-02 
432	 5.07661493415569E-02 
433	 5.03975236797963E-02 
434	 5.06531417902048E-02 
435	 5.05049989086346E-02 
436	 5.08762007922034E-02 
437	 5.22153810498374E-02 
438	 5.27414416954357E-02 
439	 5.24839476164534E-02 
440	 5.19826205574009E-02 
441	 5.15252188733261E-02 
442	 0.051298504660485 
443	 5.14025559876744E-02 
444	 5.16930810258733E-02 
445	 5.20298117829058E-02 
446	 5.23536725985381E-02 
447	 5.24515722930981E-02 
448	 5.18215507076215E-02 
449	 5.16601427290862E-02 
450	 5.22066398407139E-02 
451	 0.052324320648928 
452	 5.24307510198416E-02 
453	 5.29828863209504E-02 
454	 5.35476449792045E-02 
455	 5.38789057482118E-02 
456	 5.36218502151826E-02 
457	 5.31005111525205E-02 
458	 5.25386585286174E-02 
459	 5.21347971856807E-02 
460	 0.052268850591403 
461	 5.33038138379032E-02 
462	 5.34726363987552E-02 
463	 5.28261151690069E-02 
464	 5.28470765357203E-02 
465	 5.31836311657717E-02 
466	 5.36403255294187E-02 
467	 5.40864132967242E-02 
468	 5.41553755188501E-02 
469	 5.33816285522441E-02 
470	 5.26010374047506E-02 
471	 5.22493345392606E-02 
472	 5.28577932794736E-02 
473	 0.05356237591938 
474	 5.37697924376655E-02 
475	 5.35917332750103E-02 
476	 5.33349058838427E-02 
477	 5.35278362626947E-02 
478	 5.33568675053389E-02 
479	 5.28527445960059E-02 
480	 5.30598338416988E-02 
481	 5.37095550950024E-02 
482	 5.44850441631511E-02 
483	 5.45869568975717E-02 
484	 5.42143007733782E-02 
485	 5.42341350509437E-02 
486	 0.054126366260116 
487	 5.37774008744016E-02 
488	 5.35273190601868E-02 
489	 0.053164893937024 
490	 5.25069224936391E-02 
491	 0.052610737195112 
492	 5.32547097803992E-02 
493	 5.33277687688201E-02 
494	 5.31630233071692E-02 
495	 5.30250990626413E-02 
496	 5.36709705207385E-02 
497	 5.46008454190751E-02 
498	 5.50851568979373E-02 
499	 5.52493449565833E-02 
500	 5.50967286859677E-02 
501	 0.054578786084792 
502	 5.41121070320695E-02 
503	 0.053993906130294 
504	 5.42803193528224E-02 
505	 5.46392027186712E-02 
506	 5.44879679469756E-02 
507	 5.49444192049385E-02 
508	 5.59331726090795E-02 
509	 5.57374747542733E-02 
510	 5.58116334250395E-02 
511	 5.71850464985718E-02 
512	 5.74961565948061E-02 
513	 0.057057804455887 
514	 5.75434655633096E-02 
515	 5.79518995197292E-02 
516	 5.79923735799713E-02 
517	 5.80244810946213E-02 
518	 0.057989491597586 
519	 0.057821022768055 
520	 5.78891856816562E-02 
521	 5.82476831703201E-02 
522	 5.88704237394408E-02 
523	 5.93181736955284E-02 
524	 5.94524263122223E-02 
525	 5.99327285238932E-02 
526	 6.04119693651819E-02 
527	 6.03041412092525E-02 
528	 6.02327879105899E-02 
529	 6.04173181536025E-02 
530	 6.09811204557014E-02 
531	 0.061597288268421 
532	 6.20289557446155E-02 
533	 6.23242884344846E-02 
534	 6.24658965345438E-02 
535	 6.24088001755778E-02 
536	 6.23058290769312E-02 
537	 6.23208870348708E-02 
538	 6.28550618710685E-02 
539	 6.35264894248856E-02 
540	 6.39280374522396E-02 
541	 6.38865950512099E-02 
542	 0.06362976970078 
543	 6.37847303028937E-02 
544	 6.43072017156326E-02 
545	 6.50048648105991E-02 
546	 6.47681066939966E-02 
547	 6.43411077133987E-02 
548	 0.064813936874608 
549	 0.065215688274206 
550	 0.065342176016438 
551	 6.53841105013339E-02 
552	 6.52727292783945E-02 
553	 6.50691132083379E-02 
554	 0.065641760816988 
555	 6.64166563322663E-02 
556	 6.60958627407675E-02 
557	 6.59631348152036E-02 
558	 6.62793883647615E-02 
559	 6.62390749246089E-02 
560	 6.61182069350002E-02 
561	 6.61967471123492E-02 
562	 6.63385052046212E-02 
563	 6.65615254346243E-02 
564	 6.70498684089975E-02 
565	 6.71685584443196E-02 
566	 6.67665370327666E-02 
567	 6.67451623682916E-02 
568	 6.68545939459695E-02 
569	 6.66718345342696E-02 
570	 6.66504507073158E-02 
571	 6.68293117930167E-02 
572	 6.70400924891956E-02 
573	 6.68219340632325E-02 
574	 6.60462595290383E-02 
575	 6.61660026111382E-02 
576	 6.67388610429942E-02 
577	 6.65767160215585E-02 
578	 6.64494059417378E-02 
579	 6.65456384162073E-02 
580	 6.66435708555175E-02 
581	 6.67589932158902E-02 
582	 6.69062892862204E-02 
583	 6.70607431329182E-02 
584	 6.71362786270588E-02 
585	 6.68817677885688E-02 
586	 6.68611989602505E-02 
587	 0.067209892266404 
588	 6.71924217233011E-02 
589	 0.06692580341475 
590	 6.66666818036503E-02 
591	 6.66384705609139E-02 
592	 0.066883540965807 
593	 6.74058659906551E-02 
594	 6.75112199970437E-02 
595	 6.69046932312363E-02 
596	 6.67927902699429E-02 
597	 6.71358338488272E-02 
598	 6.76060352978114E-02 
599	 6.75335009783926E-02 
600	 6.69799619387695E-02 
601	 0.06733430780479 
602	 6.76552171066624E-02 
603	 6.71550498046906E-02 
604	 6.72830974144724E-02 
605	 6.78507853891501E-02 
606	 6.76423483712609E-02 
607	 6.78380853588311E-02 
608	 6.86562754886919E-02 
609	 6.85148495267099E-02 
610	 6.78948767012565E-02 
611	 6.75830271337541E-02 
612	 6.78131379018902E-02 
613	 6.82733260793763E-02 
614	 6.75945441804092E-02 
615	 6.72465119539006E-02 
616	 6.79662556519816E-02 
617	 6.78703698387545E-02 
618	 6.73712262412347E-02 
619	 6.76167336857732E-02 
620	 6.79656381938662E-02 
621	 6.82242023767373E-02 
622	 0.068427400521109 
623	 6.84076312542909E-02 
624	 6.80416430150123E-02 
625	 6.76972900317233E-02 
626	 6.75650840804374E-02 
627	 0.067918530214749 
628	 6.82067849564227E-02 
629	 6.82788862316449E-02 
630	 6.88409484253035E-02 
631	 0.06924185249295 
632	 6.86356040183918E-02 
633	 6.81060475195904E-02 
634	 6.79211190072436E-02 
635	 6.79591631263348E-02 
636	 6.80839203469346E-02 
637	 6.82184969557685E-02 
638	 6.85319392890863E-02 
639	 6.89066200523457E-02 
640	 6.91452137085869E-02 
641	 6.89048203209684E-02 
642	 6.82471753496259E-02 
643	 6.78540571534336E-02 
644	 0.067886328349316 
645	 6.83946169244746E-02 
646	 0.06840888961376 
647	 6.79413073332752E-02 
648	 6.75351061505265E-02 
649	 6.73009386557347E-02 
650	 6.72836095642416E-02 
651	 0.067149429167253 
652	 6.72739519374972E-02 
653	 6.81202412336189E-02 
654	 6.84752780307886E-02 
655	 6.81255444422875E-02 
656	 6.75236469617338E-02 
657	 6.68405401627886E-02 
658	 6.63184784351276E-02 
659	 6.64698552389482E-02 
660	 6.68228831048672E-02 
661	 6.65810964016585E-02 
662	 6.60716433896398E-02 
663	 6.55581145136299E-02 
664	 6.57870697545694E-02 
665	 0.065871814881621 
666	 0.065146463562241 
667	 0.065134384149026 
668	 6.55816385229361E-02 
669	 6.52117281800755E-02 
670	 6.47958578075178E-02 
671	 6.46878434067995E-02 
672	 6.52600232236281E-02 
673	 6.58157358701754E-02 
674	 6.55574429120873E-02 
675	 6.57802343541699E-02 
676	 6.63915531948319E-02 
677	 6.61946983478468E-02 
678	 6.58953286538538E-02 
679	 6.59195898651083E-02 
680	 6.64357188027409E-02 
681	 6.69938268180119E-02 
682	 0.066814822078541 
683	 0.067595463538794 
684	 6.93627718706682E-02 
685	 7.03078813295488E-02 
686	 7.09498420483333E-02 
687	 7.17583925385931E-02 
688	 7.29687960985414E-02 
689	 7.42030781219409E-02 
690	 7.46605815323257E-02 
691	 7.59728854817617E-02 
692	 0.078382350849013 
693	 8.02605331690085E-02 
694	 8.18086065570439E-02 
695	 8.32782349076745E-02 
696	 0.084884031232584 
697	 8.68518455846438E-02 
698	 8.99073283806985E-02 
699	 9.20782406762092E-02 
700	 9.26507703187747E-02 
701	 9.43528249087695E-02 
702	 9.65100000761024E-02 
703	 9.77849407490866E-02 
704	 9.92634301569244E-02 
705	 0.101099199688821 
706	 0.102830697780766 
707	 0.104604164389333 
708	 0.106440892688913 
709	 0.107769109045411 
710	 0.108963189621036 
711	 0.110851480352485 
712	 0.112671450756447 
713	 0.114138994387623 
714	 0.115164962462459 
715	 0.116164173064049 
716	 0.117580376592892 
717	 0.118977352883252 
718	 0.120304548861789 
719	 0.121613535910133 
720	 0.122234817411852 
721	 0.122285172562642 
722	 0.12320272450697 
723	 0.124922620868739 
724	 0.127263133122997 
725	 0.128791475125968 
726	 0.129256781520472 
727	 0.129468011682311 
728	 0.13008580058153 
729	 0.131379941185337 
730	 0.132429200287501 
731	 0.132981232791261 
732	 0.132857140067194 
733	 0.133761560403376 
734	 0.135598337874987 
735	 0.136694903063855 
736	 0.137244554775869 
737	 0.137467509685398 
738	 0.138529744809825 
739	 0.139877980248599 
740	 0.140150925398916 
741	 0.140411200500726 
742	 0.141017031809965 
743	 0.142031821158792 
744	 0.142973109577618 
745	 0.143458647572035 
746	 0.143980930390986 
747	 0.14460425893247 
748	 0.145275020513636 
749	 0.145931948720216 
750	 0.146544065866045 
751	 0.147119601965288 
752	 0.147713529215623 
753	 0.148379389795537 
754	 0.148977008035586 
755	 0.149620537332686 
756	 0.150941072617457 
757	 0.151078039220666 
758	 0.149489748424365 
759	 0.149499139626352 
760	 0.151994347392668 
761	 0.155804396465973 
762	 0.15695993762881 
763	 0.156210608329832 
764	 0.158078771557067 
765	 0.159710825893095 
766	 0.160100643772139 
767	 0.159908007375137 
768	 0.159698153095232 
769	 0.160022916978021 
770	 0.160242266061384 
771	 0.160427047473057 
772	 0.161303345974728 
773	 0.162600162351827 
774	 0.164017195901257 
775	 0.164741076131197 
776	 0.16495737974461 
777	 0.165249588060586 
778	 0.16538651233676 
779	 0.165617443374795 
780	 0.167042788402414 
781	 0.168708147998301 
782	 0.169771027258177 
783	 0.170053426623234 
784	 0.170081486306738 
785	 0.171041582437196 
786	 0.171864925175048 
787	 0.17229285426359 
788	 0.172746209772062 
789	 0.173668181515684 
790	 0.175308684505531 
791	 0.175581815556853 
792	 0.175248646876399 
793	 0.177217989285723 
794	 0.178703191718277 
795	 0.178913904417424 
796	 0.179273441517221 
797	 0.179718976862032 
798	 0.180123988084081 
799	 0.180690846544022 
800	 0.181495454485479 
801	 0.18264264163404 
802	 0.183681460528862 
803	 0.18445473111093 
804	 0.185441163544872 
805	 0.185974732670227 
806	 0.185419048733098 
807	 0.186016861177191 
808	 0.187552619807616 
809	 0.187990698847158 
810	 0.18843584234204 
811	 0.189192087289022 
812	 0.189172253866009 
813	 0.189242523210348 
814	 0.1906275953495 
815	 0.192345480733593 
816	 0.19414716284754 
817	 0.196362519499404 
818	 0.197362369808237 
819	 0.19680101169211 
820	 0.196872901335034 
821	 0.197691524999324 
822	 0.199184953629797 
823	 0.201572298343384 
824	 0.203754183368249 
825	 0.202899714670392 
826	 0.202320191837384 
827	 0.203370813968702 
828	 0.204917721360797 
829	 0.206026633360583 
830	 0.2057547117381 
831	 0.20655650930274 
832	 0.208522547338829 
833	 0.210304571330248 
834	 0.21176705349767 
835	 0.212718564861882 
836	 0.212756745990172 
837	 0.212821722089119 
838	 0.21395095714418 
839	 0.214805136919884 
840	 0.215267793996815 
841	 0.215830890916228 
842	 0.216537662868615 
843	 0.217407939309299 
844	 0.21836011292278 
845	 0.219083548310208 
846	 0.219274711130933 
847	 0.219410224351331 
848	 0.219716516809335 
849	 0.220509793173241 
850	 0.221078144850473 
851	 0.221371389068636 
852	 0.222797603413665 
853	 0.224971362020049 
854	 0.227256927444512 
855	 0.22850908264163 
856	 0.228506729379696 
857	 0.227116827136036 
858	 0.22740577962715 
859	 0.22981624667451 
860	 0.230506184512119 
861	 0.230024095426642 
862	 0.229270019173972 
863	 0.230409030666352 
864	 0.232761355614952 
865	 0.233688820075923 
866	 0.234656469665786 
867	 0.235916333541941 
868	 0.236457899303006 
869	 0.237362131818177 
870	 0.239283745354758 
871	 0.239180795889218 
872	 0.238355537969749 
873	 0.240218082396222 
874	 0.241497408368199 
875	 0.241838593217096 
876	 0.244128526573289 
877	 0.245860178351618 
878	 0.24553151414626 
879	 0.246006279000089 
880	 0.247913268588544 
881	 0.251572476739383 
882	 0.254013660025077 
883	 0.254678353988265 
884	 0.254997722304685 
885	 0.255441031491769 
886	 0.256251362087998 
887	 0.25688350885537 
888	 0.25673226032136 
889	 0.255170845624689 
890	 0.255582750626013 
891	 0.257555243567648 
892	 0.256996335556099 
893	 0.256827445344245 
894	 0.258368703760215 
895	 0.260680019728985 
896	 0.263127954214198 
897	 0.264990836626454 
898	 0.266324623504709 
899	 0.267896195636804 
900	 0.271935081308768 
901	 0.272849733671553 
902	 0.27022137605193 
903	 0.271036890195274 
904	 0.272149273741628 
905	 0.271310882542912 
906	 0.272435246091591 
907	 0.274729780843231 
908	 0.275826856470773 
909	 0.275219641012738 
910	 0.27395121158291 
911	 0.276552902002945 
912	 0.279695977432911 
913	 0.281477690209879 
914	 0.283426821681673 
915	 0.285144839189486 
916	 0.286015406205243 
917	 0.286237113750883 
918	 0.285657460434511 
919	 0.283391967822729 
920	 0.282816211422623 
921	 0.284374586723169 
922	 0.283559527794425 
923	 0.282296268799036 
924	 0.282234312122243 
925	 0.279933345335866 
926	 0.276886019304082 
927	 0.277499059302974 
928	 0.278923646233417 
929	 0.280982350795065 
930	 0.287999244722882 
931	 0.291338159401671 
932	 0.285515828596725 
933	 0.294633951503109 
934	 0.305936365006624 
935	 0.2960543131522 
936	 0.289444111938881 
937	 0.289941924307404 
938	 0.290191827271283 
939	 0.289566131482674 
940	 0.288634791540026 
941	 0.292499616484247 
942	 0.294420023217353 
943	 0.290425227526072 
944	 0.291594695465213 
945	 0.298116289170525 
946	 0.307877905881247 
947	 0.306040894789108 
948	 0.294463714401102 
949	 0.293801357233539 
950	 0.288802809269266 
951	 0.276835894312272 
952	 0.279794424941861 
953	 0.288839568358829 
954	 0.294324567721403 
955	 0.294412652968488 
956	 0.291989695987048 
957	 0.293019924955277 
958	 0.294467667290117 
959	 0.295272434111345 
960	 0.293661581156988 
961	 0.296484515911466 
962	 0.304117817128549 
963	 0.30066559862459 
964	 0.295557399424127 
965	 0.298485181883262 
966	 0.302553842022034 
967	 0.302392317555181 
968	 0.289415103754152 
969	 0.286722035062802 
970	 0.296035817915011 
971	 0.298289055665231 
972	 0.297326052624145 
973	 0.296405359889104 
974	 0.302508763995748 
975	 0.307770132727945 
976	 0.303550750257207 
977	 0.306160196756744 
978	 0.311607586096396 
979	 0.304487300858073 
980	 0.303316249111251 
981	 0.310089784466449 
982	 0.31059752888337 
983	 0.309302678425614 
984	 0.308870985797326 
985	 0.309508532538167 
986	 0.311459853052065 
987	 0.314462448180321 
988	 0.31238353045902 
989	 0.308738622658844 
990	 0.31258644145352 
991	 0.317130347714142 
992	 0.318871027629992 
993	 0.312132758586294 
994	 0.308772066911037 
995	 0.313788338420797 
996	 0.318711703334226 
997	 0.317050588825048 
998	 0.305112932071102 
999	 0.307031759713916 
1000	 0.31852009511787 
1001	 0.325041499457729 
1002	 0.32309918220586 
1003	 0.316101445900992 
1004	 0.319409274311279 
1005	 0.32300166225396 
1006	 0.323509136562758 
1007	 0.325559767727643 
1008	 0.329484003034386 
1009	 0.333810725690092 
1010	 0.326661267792044 
1011	 0.318733948574423 
1012	 0.326740401918663 
1013	 0.328975451457947 
1014	 0.325698871104618 
1015	 0.329757474907059 
1016	 0.326448200908279 
1017	 0.315432824540714 
1018	 0.311738198397374 
1019	 0.321220210597805 
1020	 0.34205642568928 
1021	 0.343410503972882 
1022	 0.337475844665041 
1023	 0.339182233164774 
1024	 0.342130626819572 
1025	 0.344799047101124 
1026	 0.346068795203347 
1027	 0.345713366285268 
1028	 0.342805325262288 
1029	 0.333465177782312 
1030	 0.335233576665764 
1031	 0.348226968858089 
1032	 0.340762537892006 
1033	 0.339721292544624 
1034	 0.357156680726703 
1035	 0.353535979051292 
1036	 0.33689202030855 
1037	 0.323244374163727 
1038	 0.343873052875917 
1039	 0.371826108260697 
1040	 0.353244493110784 
1041	 0.340254552003143 
1042	 0.343558399449624 
1043	 0.358706464389107 
1044	 0.364532036428119 
1045	 0.355672517939294 
1046	 0.351223318353102 
1047	 0.339247271204703 
1048	 0.319519707823263 
1049	 0.334503449779661 
1050	 0.353728722580741 
1051	 0.345384925132733 
1052	 0.350347839880627 
1053	 0.360835329326156 
1054	 0.355348453006888 
1055	 0.349311141866827 
1056	 0.350032194793884 
1057	 0.36928008818759 
1058	 0.370023459286902 
1059	 0.34686937990424 
1060	 0.318968704224697 
1061	 0.317494830442154 
1062	 0.347154691214775 
1063	 0.336145977521605 
1064	 0.328992947589875 
1065	 0.35454821466486 
1066	 0.357226319890618 
1067	 0.338815467311878 
1068	 0.309335150408994 
1069	 0.307863446890031 
1070	 0.319189563225989 
1071	 0.304001223383208 
1072	 0.321759127892205 
1073	 0.350870658503608 
1074	 0.317326184827551 
1075	 0.293493379993728 
