Wavelength	SHSI00344.asd
325	 0.055331018657797 
326	 6.36395832256913E-02 
327	 6.92352169837341E-02 
328	 7.26064826314482E-02 
329	 7.70077220378197E-02 
330	 8.17468002002273E-02 
331	 7.68546486081672E-02 
332	 6.91559613681081E-02 
333	 0.065744747173425 
334	 6.57473008131914E-02 
335	 0.067373576471723 
336	 6.66828255036671E-02 
337	 6.75333706821735E-02 
338	 7.00314256275666E-02 
339	 0.069763921814027 
340	 6.83808592774316E-02 
341	 6.74247724034582E-02 
342	 6.65508496938573E-02 
343	 6.56985906068737E-02 
344	 6.44969916823169E-02 
345	 6.56582584832866E-02 
346	 6.86319883089209E-02 
347	 6.87185883527663E-02 
348	 6.83241719566625E-02 
349	 0.069076503642605 
350	 6.98918969082199E-02 
351	 7.03709659370146E-02 
352	 7.02206580863529E-02 
353	 6.85380064972762E-02 
354	 6.64665972810741E-02 
355	 6.88071403840947E-02 
356	 7.06223766016086E-02 
357	 6.92633412867034E-02 
358	 6.86312747372168E-02 
359	 6.89283552196271E-02 
360	 6.97624960547448E-02 
361	 6.88715155721241E-02 
362	 6.67020139805043E-02 
363	 6.64207037511027E-02 
364	 6.72635931224634E-02 
365	 6.84135949451781E-02 
366	 6.75346230666323E-02 
367	 6.62867695658155E-02 
368	 0.067149738454594 
369	 6.77992459507059E-02 
370	 6.75350955357308E-02 
371	 0.065749994973224 
372	 6.49986016719287E-02 
373	 6.64077862991926E-02 
374	 6.73104315848748E-02 
375	 0.066929785749397 
376	 6.47291039576652E-02 
377	 6.26749286245789E-02 
378	 6.17077075000852E-02 
379	 6.29484126918146E-02 
380	 6.37958315004822E-02 
381	 0.063255106017312 
382	 6.45249296479451E-02 
383	 6.58804642345707E-02 
384	 6.47354274305483E-02 
385	 6.37159915242681E-02 
386	 6.34195662193083E-02 
387	 0.063617528228128 
388	 6.31123550205555E-02 
389	 6.18741697230675E-02 
390	 6.31292329021857E-02 
391	 6.50525038786728E-02 
392	 6.52666198579811E-02 
393	 6.43339033545376E-02 
394	 6.32576097954344E-02 
395	 6.47691898979319E-02 
396	 6.47521409208708E-02 
397	 6.22085737385802E-02 
398	 6.17864129648264E-02 
399	 6.19623197014098E-02 
400	 6.08459049608488E-02 
401	 6.06130144220685E-02 
402	 6.12867250162514E-02 
403	 6.22572766309796E-02 
404	 6.22310213205998E-02 
405	 6.10142127960759E-02 
406	 6.10161907390984E-02 
407	 6.18469575906576E-02 
408	 6.27285208895263E-02 
409	 6.28838049935064E-02 
410	 6.22933811870318E-02 
411	 6.14523469114876E-02 
412	 6.08270259129407E-02 
413	 0.060725932765009 
414	 6.14446481444658E-02 
415	 0.062125897283092 
416	 6.16929225760864E-02 
417	 6.13715744649795E-02 
418	 6.13593091120197E-02 
419	 0.061274736655549 
420	 6.12932768597596E-02 
421	 6.15486231749047E-02 
422	 6.23759672168448E-02 
423	 6.30548967420238E-02 
424	 6.25453697083973E-02 
425	 0.061888066596047 
426	 6.15917807460929E-02 
427	 6.24263317002437E-02 
428	 6.30067273413371E-02 
429	 6.25103556388308E-02 
430	 6.21820358083398E-02 
431	 6.20946788533539E-02 
432	 6.20837802623317E-02 
433	 0.061950508744285 
434	 6.16710455393723E-02 
435	 6.12795454949948E-02 
436	 6.14063811684858E-02 
437	 6.23064903469683E-02 
438	 6.23797961354159E-02 
439	 6.18361166405986E-02 
440	 6.14389036151745E-02 
441	 0.061608016743506 
442	 6.22547667548345E-02 
443	 6.23099038013746E-02 
444	 6.22269761810724E-02 
445	 6.23933570512767E-02 
446	 6.25395023471298E-02 
447	 6.26691625483594E-02 
448	 6.29049530828033E-02 
449	 6.29510955512632E-02 
450	 0.062813334284522 
451	 6.30175023766243E-02 
452	 6.34016458388429E-02 
453	 6.37493290189591E-02 
454	 6.36181377633821E-02 
455	 6.32059500483658E-02 
456	 0.063324506587463 
457	 6.33295042085209E-02 
458	 6.30905922117239E-02 
459	 6.33932887882395E-02 
460	 6.38649941073296E-02 
461	 6.39966888389341E-02 
462	 6.38622434308355E-02 
463	 6.36595578156206E-02 
464	 6.39352898934921E-02 
465	 6.43022209893716E-02 
466	 6.45014788834723E-02 
467	 6.42492057792309E-02 
468	 0.063960469536547 
469	 6.42800580604563E-02 
470	 6.43056464094394E-02 
471	 6.39529020882396E-02 
472	 6.37230888904925E-02 
473	 6.38807872985781E-02 
474	 6.45009513677138E-02 
475	 6.46766627286029E-02 
476	 6.47084201219007E-02 
477	 6.54025051793563E-02 
478	 6.53579443550242E-02 
479	 6.45574059782261E-02 
480	 0.06468063130267 
481	 6.50171438136825E-02 
482	 6.49809741241134E-02 
483	 6.50896604796413E-02 
484	 6.53337098605181E-02 
485	 6.55213651461692E-02 
486	 6.55768732807106E-02 
487	 6.55210910260446E-02 
488	 6.56959765846157E-02 
489	 6.58093961541721E-02 
490	 6.55722317363971E-02 
491	 6.55020790161497E-02 
492	 6.55968901068653E-02 
493	 6.55249285328871E-02 
494	 6.56532810854258E-02 
495	 6.60424401505026E-02 
496	 6.60244046520763E-02 
497	 0.065975433380337 
498	 6.64555412536899E-02 
499	 6.67375662996149E-02 
500	 6.67141938542248E-02 
501	 6.66196357021492E-02 
502	 6.67937196062046E-02 
503	 6.73722657467902E-02 
504	 6.76533470269619E-02 
505	 6.77743520855953E-02 
506	 0.068123486355211 
507	 6.84794191571457E-02 
508	 6.88038615274386E-02 
509	 6.91484148436976E-02 
510	 6.96183496559743E-02 
511	 7.02778130306984E-02 
512	 7.08906135493569E-02 
513	 7.14323254624515E-02 
514	 0.071987928141308 
515	 7.23303312418793E-02 
516	 0.072444729683213 
517	 7.27099485291625E-02 
518	 7.30955472232488E-02 
519	 7.35293217456697E-02 
520	 7.40551326564383E-02 
521	 7.46434198844241E-02 
522	 7.52095712712796E-02 
523	 0.075863859276549 
524	 7.66305421000455E-02 
525	 7.73734306431301E-02 
526	 7.78718271568429E-02 
527	 7.78374145240212E-02 
528	 0.077940158319128 
529	 0.07836109161551 
530	 7.90136383535853E-02 
531	 7.96783727009476E-02 
532	 8.02073495472949E-02 
533	 8.06795487203005E-02 
534	 8.11267023793905E-02 
535	 8.16080085134082E-02 
536	 8.19232116386509E-02 
537	 8.20989035692148E-02 
538	 8.25715219488374E-02 
539	 8.30139822257386E-02 
540	 8.31138185263599E-02 
541	 8.33985702681545E-02 
542	 8.39212597450884E-02 
543	 8.46016896091152E-02 
544	 8.49456168171351E-02 
545	 8.48408232136557E-02 
546	 8.50591190174205E-02 
547	 8.54498389550772E-02 
548	 8.57179816554033E-02 
549	 8.59936759147412E-02 
550	 8.63068456073264E-02 
551	 8.66931814044923E-02 
552	 8.69981810578315E-02 
553	 8.71457976290127E-02 
554	 8.74072469132188E-02 
555	 8.76979676859946E-02 
556	 8.77859693044195E-02 
557	 8.78824038852608E-02 
558	 8.80628520394666E-02 
559	 8.83362867025998E-02 
560	 8.85843133015794E-02 
561	 8.87042671999038E-02 
562	 8.88610287640382E-02 
563	 8.89918621357893E-02 
564	 8.88262460123721E-02 
565	 0.088783741609389 
566	 8.89511481474547E-02 
567	 8.86720226529633E-02 
568	 8.83773107463484E-02 
569	 8.86781647133487E-02 
570	 8.87964055070377E-02 
571	 8.86586375817762E-02 
572	 8.87776003985867E-02 
573	 8.86177908460775E-02 
574	 0.087978450857237 
575	 8.80453691919565E-02 
576	 8.84265566393958E-02 
577	 8.80927495909142E-02 
578	 8.79631926224718E-02 
579	 8.81574686883025E-02 
580	 8.78939387334749E-02 
581	 8.76642767499123E-02 
582	 8.78756038661024E-02 
583	 8.76736113571121E-02 
584	 8.72326773855627E-02 
585	 8.74235403168753E-02 
586	 8.75091957498031E-02 
587	 8.72683604216728E-02 
588	 8.72357569248045E-02 
589	 8.73946828419128E-02 
590	 8.76505019462236E-02 
591	 8.76349327993088E-02 
592	 8.74088966120829E-02 
593	 8.75039861519492E-02 
594	 0.087528701067383 
595	 8.73059101571444E-02 
596	 8.73558094489417E-02 
597	 8.75245406833902E-02 
598	 8.74122174905637E-02 
599	 8.74612462942946E-02 
600	 8.76825896774735E-02 
601	 8.75495397694338E-02 
602	 8.72744943167236E-02 
603	 8.70638177417114E-02 
604	 8.67589628345129E-02 
605	 8.65714995289009E-02 
606	 8.71735790797384E-02 
607	 8.73864361827069E-02 
608	 8.68406494776547E-02 
609	 8.65654656766887E-02 
610	 8.64335064057284E-02 
611	 8.61667984661918E-02 
612	 8.57962270839831E-02 
613	 0.085472298411592 
614	 0.085711481800855 
615	 8.57828656473669E-02 
616	 0.085306778032419 
617	 8.51664267964763E-02 
618	 0.085164861494076 
619	 8.47328738565725E-02 
620	 8.44633164441442E-02 
621	 0.084491279312319 
622	 8.45975188822439E-02 
623	 8.46623067194073E-02 
624	 8.45801331469621E-02 
625	 8.43394380613418E-02 
626	 8.40947176407812E-02 
627	 8.42807235146407E-02 
628	 8.41963263684502E-02 
629	 8.37279764832329E-02 
630	 8.39941167747798E-02 
631	 8.45092540091233E-02 
632	 8.45591651310553E-02 
633	 8.45698397805657E-02 
634	 8.45061327261249E-02 
635	 8.38973151531482E-02 
636	 8.35237932751204E-02 
637	 8.37828794685607E-02 
638	 8.37479348625424E-02 
639	 8.35925661941491E-02 
640	 8.38759163463669E-02 
641	 8.38884553898553E-02 
642	 8.34438583738964E-02 
643	 8.27486731815485E-02 
644	 8.21666002044602E-02 
645	 8.20203159565307E-02 
646	 8.23615535860086E-02 
647	 0.082752111305322 
648	 8.20702860386791E-02 
649	 8.12876486863037E-02 
650	 8.08609279021086E-02 
651	 8.08863708797024E-02 
652	 8.09597705292473E-02 
653	 8.05945732189645E-02 
654	 8.03460074435791E-02 
655	 8.02190626368251E-02 
656	 7.98271022412765E-02 
657	 0.079249733414433 
658	 7.86211705986108E-02 
659	 7.82992343487358E-02 
660	 7.80642051447975E-02 
661	 7.75206574307979E-02 
662	 7.68941707867841E-02 
663	 0.076216605206972 
664	 0.075316648264695 
665	 0.074563233892387 
666	 7.42310702875399E-02 
667	 7.36752390090618E-02 
668	 7.30558508114539E-02 
669	 7.30709184858035E-02 
670	 7.30152399540149E-02 
671	 7.26605962602465E-02 
672	 7.22980597570399E-02 
673	 7.20996246715254E-02 
674	 7.22244377266185E-02 
675	 0.072471141578806 
676	 7.26748168066462E-02 
677	 7.24928902876019E-02 
678	 7.24627211182056E-02 
679	 7.28300715889791E-02 
680	 7.30284364006384E-02 
681	 7.32397812687943E-02 
682	 7.38451748349008E-02 
683	 7.46926440721801E-02 
684	 7.56775676335075E-02 
685	 7.65720495249536E-02 
686	 7.77983405107138E-02 
687	 7.96644621300469E-02 
688	 8.11318422150571E-02 
689	 8.23171711526376E-02 
690	 8.42384160945193E-02 
691	 8.62096485861389E-02 
692	 0.088080231402729 
693	 8.99690603536633E-02 
694	 9.19626922593867E-02 
695	 9.40623443115365E-02 
696	 9.62917485557297E-02 
697	 0.098648887559956 
698	 0.101311354858825 
699	 0.103560969979017 
700	 0.105107949941025 
701	 0.106872638344192 
702	 0.108763201942375 
703	 0.110510889790228 
704	 0.112573430311809 
705	 0.114764041885312 
706	 0.116050826025112 
707	 0.117151051267309 
708	 0.118525536941295 
709	 0.119927569244561 
710	 0.121177636236239 
711	 0.121963748904748 
712	 0.123090858459331 
713	 0.124578032182327 
714	 0.125337971128028 
715	 0.125792006853677 
716	 0.126431826364987 
717	 0.127723686644345 
718	 0.129411336502882 
719	 0.130037493932239 
720	 0.130518993330669 
721	 0.131157595733685 
722	 0.131686582036891 
723	 0.132207246856669 
724	 0.132790465589748 
725	 0.133087589094356 
726	 0.133217753530645 
727	 0.133898546657415 
728	 0.134429376589924 
729	 0.134580944726562 
730	 0.13533709894531 
731	 0.136357677038838 
732	 0.137052246315609 
733	 0.13704360510316 
734	 0.136616110552914 
735	 0.136934016278926 
736	 0.137510306004861 
737	 0.138025062733096 
738	 0.138843753917319 
739	 0.139544663274762 
740	 0.139262910258969 
741	 0.139162286351299 
742	 0.139515883593445 
743	 0.139764482221706 
744	 0.139942538219338 
745	 0.140099125706253 
746	 0.140277457032789 
747	 0.140498969195039 
748	 0.140814371673848 
749	 0.141008155827573 
750	 0.141044613199913 
751	 0.141220122043674 
752	 0.141427735417428 
753	 0.141532220224581 
754	 0.141536753984474 
755	 0.141497713969673 
756	 0.141588166472245 
757	 0.141564506644142 
758	 0.141367490723351 
759	 0.141503116588224 
760	 0.142182326971576 
761	 0.1430950014329 
762	 0.143065517681154 
763	 0.142696406400403 
764	 0.144050917612194 
765	 0.144877411042266 
766	 0.144566849094962 
767	 0.144433158069526 
768	 0.144381513720486 
769	 0.144155503970581 
770	 0.144507324205046 
771	 0.145275496204481 
772	 0.145214973472888 
773	 0.144973887868694 
774	 0.145006878141547 
775	 0.145256011736646 
776	 0.145491822632377 
777	 0.145275501320328 
778	 0.145557263635261 
779	 0.146321841483284 
780	 0.146203104150406 
781	 0.146114732368198 
782	 0.146718925123126 
783	 0.14669251034543 
784	 0.146334069456637 
785	 0.146728954544651 
786	 0.147111386493851 
787	 0.147276539086305 
788	 0.147521272845877 
789	 0.147633111085677 
790	 0.14745714471671 
791	 0.147811582834416 
792	 0.148382307301882 
793	 0.148022240044397 
794	 0.14768850566311 
795	 0.147723067887227 
796	 0.148009517519336 
797	 0.148116235423383 
798	 0.147691301387489 
799	 0.14812521107019 
800	 0.14904343482504 
801	 0.148665873619227 
802	 0.148336876422229 
803	 0.14854608052949 
804	 0.148912362042794 
805	 0.149235037860937 
806	 0.149329201655061 
807	 0.149253734256292 
808	 0.149217062018127 
809	 0.149813604507334 
810	 0.150163296876689 
811	 0.149919206203288 
812	 0.149607888155926 
813	 0.149434213154708 
814	 0.149602036937308 
815	 0.149600583121243 
816	 0.149524769145252 
817	 0.150144147651942 
818	 0.150462236901523 
819	 0.150290243218108 
820	 0.151298149887217 
821	 0.152309447362647 
822	 0.151850377198516 
823	 0.152122725826071 
824	 0.152884493664403 
825	 0.151873118124891 
826	 0.15175850022007 
827	 0.153212253612758 
828	 0.152828382839361 
829	 0.151903806322823 
830	 0.152363415124299 
831	 0.152481929712906 
832	 0.152300709881105 
833	 0.152975755235733 
834	 0.153908883857254 
835	 0.154556235285163 
836	 0.153462065365767 
837	 0.152336628957125 
838	 0.153171917866333 
839	 0.153725050367942 
840	 0.153759107518166 
841	 0.15406827603021 
842	 0.154206158160194 
843	 0.154010501257931 
844	 0.153594720908012 
845	 0.153469719740702 
846	 0.154122610246968 
847	 0.153850657306903 
848	 0.152999322446712 
849	 0.15370546991679 
850	 0.154010510622812 
851	 0.153377491147172 
852	 0.153616136152855 
853	 0.154216258347678 
854	 0.154476603747884 
855	 0.154577111056965 
856	 0.154619191266483 
857	 0.154854462777404 
858	 0.154777976778022 
859	 0.154321945147488 
860	 0.154047703085118 
861	 0.153899995211081 
862	 0.153849026571238 
863	 0.154764206204584 
864	 0.155787155870106 
865	 0.154521685299892 
866	 0.153553641748804 
867	 0.153826655807933 
868	 0.155120019503795 
869	 0.155814387355009 
870	 0.1548846308127 
871	 0.155770788428601 
872	 0.157549953782009 
873	 0.157402857189016 
874	 0.157260664783766 
875	 0.157651069108152 
876	 0.158440800622785 
877	 0.158467030675457 
878	 0.157226563635027 
879	 0.157742544402451 
880	 0.159050140830035 
881	 0.158905218620405 
882	 0.159177381240948 
883	 0.15992335363287 
884	 0.159602830843695 
885	 0.159374017493046 
886	 0.15978525162676 
887	 0.159699347144744 
888	 0.159574654789035 
889	 0.160147570149667 
890	 0.160533993196211 
891	 0.160238159371763 
892	 0.158183949285751 
893	 0.157332981940986 
894	 0.158944752117945 
895	 0.160920704551794 
896	 0.161527382049294 
897	 0.159261508647218 
898	 0.159881329237479 
899	 0.16253922597636 
900	 0.161748182156645 
901	 0.162117499061807 
902	 0.164192136556016 
903	 0.163743682326804 
904	 0.162198787507616 
905	 0.160953505271048 
906	 0.161162168662064 
907	 0.162216764331002 
908	 0.162695414114717 
909	 0.162710686531532 
910	 0.162490058578031 
911	 0.16271428811661 
912	 0.16433986992526 
913	 0.167150439167688 
914	 0.166164273787507 
915	 0.164090164433861 
916	 0.164724855235944 
917	 0.162926788719125 
918	 0.160119690094424 
919	 0.163178170629965 
920	 0.163993165409264 
921	 0.161143386528189 
922	 0.163145685436055 
923	 0.165639923850437 
924	 0.164533534162004 
925	 0.162960739937431 
926	 0.161607100019474 
927	 0.160805896407144 
928	 0.160431777055186 
929	 0.160522334847539 
930	 0.161043014473545 
931	 0.162861294120048 
932	 0.16599824546559 
933	 0.164898491729199 
934	 0.161604295866189 
935	 0.16068234441923 
936	 0.158436167954514 
937	 0.155767562105601 
938	 0.155950017343856 
939	 0.162062463923624 
940	 0.170295429816497 
941	 0.162187604429295 
942	 0.154771197547686 
943	 0.160370022171249 
944	 0.164175829344676 
945	 0.165018175760242 
946	 0.16415883522281 
947	 0.164717521979316 
948	 0.166393022516973 
949	 0.164937317037734 
950	 0.164971255689836 
951	 0.16721196740155 
952	 0.164483734256811 
953	 0.160894049468869 
954	 0.160489703194326 
955	 0.160178586015357 
956	 0.159236784312253 
957	 0.156960335925922 
958	 0.159377489591414 
959	 0.165844219473501 
960	 0.170093093034995 
961	 0.170138963793738 
962	 0.166325924857544 
963	 0.1662731186545 
964	 0.167585826767348 
965	 0.167107745733073 
966	 0.16214774617435 
967	 0.156738534680556 
968	 0.159555176998504 
969	 0.162832712556598 
970	 0.164284042369474 
971	 0.165088923080744 
972	 0.165130019784917 
973	 0.164379882773003 
974	 0.16302549845662 
975	 0.16203895868604 
976	 0.162311401590303 
977	 0.160747198987504 
978	 0.158993212508509 
979	 0.162027531212908 
980	 0.161909743612739 
981	 0.159310289725263 
982	 0.166204713734548 
983	 0.170517129924569 
984	 0.167174527133898 
985	 0.168807026672101 
986	 0.171745256462773 
987	 0.171140966930792 
988	 0.17015909209931 
989	 0.169653019422478 
990	 0.170218389297245 
991	 0.170219146322486 
992	 0.169376949518009 
993	 0.168418977406606 
994	 0.168624663878641 
995	 0.169852856640424 
996	 0.167247246664617 
997	 0.163951524176897 
998	 0.163427634784798 
999	 0.165816553897829 
1000	 0.167562476726869 
1001	 0.162616718379646 
1002	 0.160914814989751 
1003	 0.163161920291795 
1004	 0.162338552841237 
1005	 0.161083662391653 
1006	 0.160410632487088 
1007	 0.160068722945632 
1008	 0.160915629244988 
1009	 0.16309159565432 
1010	 0.162762760839574 
1011	 0.160766143735789 
1012	 0.159190476889064 
1013	 0.164604898590574 
1014	 0.172512480294538 
1015	 0.168608971094758 
1016	 0.165981232290951 
1017	 0.167174054519524 
1018	 0.164881166798806 
1019	 0.164284215405951 
1020	 0.16686545466898 
1021	 0.162896967937259 
1022	 0.156880133808292 
1023	 0.154994142332519 
1024	 0.163460506640062 
1025	 0.172723125478664 
1026	 0.165952830161074 
1027	 0.168701971523835 
1028	 0.178535318199269 
1029	 0.169463505769268 
1030	 0.159785403528787 
1031	 0.156189825633224 
1032	 0.153984840079857 
1033	 0.159103311201884 
1034	 0.172251448786041 
1035	 0.173108328914857 
1036	 0.170323189639 
1037	 0.175048009794043 
1038	 0.183501415738811 
1039	 0.187156424044829 
1040	 0.172597523872639 
1041	 0.168938222003905 
1042	 0.174798566809403 
1043	 0.163582254138734 
1044	 0.156539730539066 
1045	 0.16008286370666 
1046	 0.167726402285231 
1047	 0.168061391235181 
1048	 0.156686936396582 
1049	 0.154346756997787 
1050	 0.151811887744357 
1051	 0.140641603199935 
1052	 0.149522022877951 
1053	 0.166983989464929 
1054	 0.17040244730563 
1055	 0.162393885612704 
1056	 0.154110287580247 
1057	 0.172091673830519 
1058	 0.173921698896479 
1059	 0.156276496869293 
1060	 0.160569327593476 
1061	 0.158811175013086 
1062	 0.145127235061443 
1063	 0.152393301507214 
1064	 0.173704638939035 
1065	 0.196005561646595 
1066	 0.18199619770952 
1067	 0.148171465659091 
1068	 0.116897819669584 
1069	 0.120121091915027 
1070	 0.153242241400196 
1071	 0.18717372170758 
1072	 0.179072444139782 
1073	 0.14673722852318 
1074	 0.163017335276206 
1075	 0.190389233364993 
