Wavelength	SHSI00083.asd
325	 0.107820780192846 
326	 0.111134690130755 
327	 0.113038088696729 
328	 0.112856210577792 
329	 0.111092049183975 
330	 0.108098979936007 
331	 0.103078082756221 
332	 0.102283444401904 
333	 0.110715150575859 
334	 0.111724638033445 
335	 0.107519529872226 
336	 0.109951979001088 
337	 0.11368727630196 
338	 0.116064523278429 
339	 0.112249787114271 
340	 0.109474545384583 
341	 0.1130660029876 
342	 0.111527961227396 
343	 0.107558885942995 
344	 0.109545922157142 
345	 0.110138468856978 
346	 0.108480046300376 
347	 0.109170814215928 
348	 0.109832498997317 
349	 0.108947721602237 
350	 0.108059749084622 
351	 0.108460031009956 
352	 0.11189795073211 
353	 0.113793699949056 
354	 0.113724340107012 
355	 0.115144192893532 
356	 0.115240910077949 
357	 0.112722641669701 
358	 0.111266409068445 
359	 0.111325574881319 
360	 0.112785060529224 
361	 0.113993445225938 
362	 0.114349223102557 
363	 0.113641744197914 
364	 0.113000897655093 
365	 0.113009997097471 
366	 0.113183671226399 
367	 0.11281687610201 
368	 0.111050033625017 
369	 0.111325085030896 
370	 0.113288821338159 
371	 0.112975686870593 
372	 0.112857265153835 
373	 0.113711871811562 
374	 0.111263061342295 
375	 0.108465444875132 
376	 0.109809030242149 
377	 0.108957445286055 
378	 0.106310413582283 
379	 0.108272027841293 
380	 0.109699879046017 
381	 0.108302698328895 
382	 0.107207079300104 
383	 0.107103919059221 
384	 0.108440445849587 
385	 0.107325811339339 
386	 0.104668579252757 
387	 0.106497389428794 
388	 0.106879963267963 
389	 0.103988444875178 
390	 0.103935044630732 
391	 0.105020714354662 
392	 0.10467844353342 
393	 0.103641387974949 
394	 0.10264944708152 
395	 0.103452178911924 
396	 0.104054229413142 
397	 0.103610458392349 
398	 0.102800099002193 
399	 0.101690412470692 
400	 0.100299724049689 
401	 9.96673544617751E-02 
402	 9.99205614215751E-02 
403	 0.101210975782062 
404	 0.101234586010096 
405	 9.95552774220053E-02 
406	 0.100119531270887 
407	 0.100939018068986 
408	 0.099218899165266 
409	 9.80102303684494E-02 
410	 9.78050469111599E-02 
411	 9.79820094266067E-02 
412	 9.78625437123895E-02 
413	 9.72667159606348E-02 
414	 9.74748303309006E-02 
415	 9.77883119531669E-02 
416	 9.71752022876315E-02 
417	 9.67474074814823E-02 
418	 9.66555102847183E-02 
419	 9.65424267228152E-02 
420	 9.63141044052705E-02 
421	 9.59373244210583E-02 
422	 0.09559038922436 
423	 9.53796789481403E-02 
424	 9.54149843974902E-02 
425	 9.55115181525057E-02 
426	 9.55031434415129E-02 
427	 9.50124629530811E-02 
428	 9.45498589308549E-02 
429	 0.094493276237571 
430	 9.50173158964824E-02 
431	 9.53892067764683E-02 
432	 9.43960133374911E-02 
433	 9.35660689726776E-02 
434	 0.09329762058238 
435	 9.32439435885263E-02 
436	 9.34221848545137E-02 
437	 9.37921525108167E-02 
438	 9.39578130663624E-02 
439	 9.39308586384355E-02 
440	 9.38314118123539E-02 
441	 9.39588813904499E-02 
442	 9.42302318685204E-02 
443	 9.38179752284493E-02 
444	 9.35078465174443E-02 
445	 9.39304112318016E-02 
446	 9.45492453422233E-02 
447	 9.51262062800361E-02 
448	 9.53793440882521E-02 
449	 9.54542821922353E-02 
450	 9.55017141093122E-02 
451	 0.095987822644589 
452	 9.64795592578626E-02 
453	 9.65415518819912E-02 
454	 9.65741649407913E-02 
455	 9.67331332467289E-02 
456	 9.72508321681896E-02 
457	 0.097561471050975 
458	 9.74650972938541E-02 
459	 0.097343853265103 
460	 9.73510106727706E-02 
461	 9.76144094528466E-02 
462	 9.76449055904126E-02 
463	 9.76174910129549E-02 
464	 9.84840388673198E-02 
465	 0.09913540798185 
466	 9.90624032301346E-02 
467	 0.099120180464595 
468	 9.93749377400063E-02 
469	 9.97731908607874E-02 
470	 0.100051134362992 
471	 0.100211228441255 
472	 0.100558162680859 
473	 0.100888956567814 
474	 0.101094583000038 
475	 0.101434322775541 
476	 0.101750252099348 
477	 0.101688258775133 
478	 0.101973942260096 
479	 0.10252977229217 
480	 0.102133568859588 
481	 0.101574359727397 
482	 0.10153935627181 
483	 0.101981081567152 
484	 0.102588466522271 
485	 0.102610264997025 
486	 0.10281143822299 
487	 0.103322373585073 
488	 0.103376709393373 
489	 0.103121754348074 
490	 0.102797639077965 
491	 0.102956465545529 
492	 0.103473675231033 
493	 0.103673595316521 
494	 0.103993822201646 
495	 0.104534079334617 
496	 0.104731713772103 
497	 0.104912234758261 
498	 0.105556373691588 
499	 0.106273924922569 
500	 0.106956678985588 
501	 0.107635034561776 
502	 0.108136869972854 
503	 0.10842622730061 
504	 0.109056759419237 
505	 0.10993898582064 
506	 0.110794336411099 
507	 0.111772418554927 
508	 0.112822938270255 
509	 0.113640232881734 
510	 0.114351004656611 
511	 0.115090579658813 
512	 0.116137909881748 
513	 0.117311920062171 
514	 0.118036207448665 
515	 0.119011689163883 
516	 0.120347994690106 
517	 0.121184863594236 
518	 0.121891360257962 
519	 0.122911488604314 
520	 0.123715274511904 
521	 0.124405498598016 
522	 0.125579873874329 
523	 0.126638926599536 
524	 0.127370798706089 
525	 0.128232612292783 
526	 0.129342048566803 
527	 0.130781297823147 
528	 0.1321077094019 
529	 0.13313738614539 
530	 0.13372358356054 
531	 0.134544613601139 
532	 0.135990408299724 
533	 0.13712309459567 
534	 0.138037836100588 
535	 0.139209966358752 
536	 0.140320058680671 
537	 0.141326640488163 
538	 0.142493460169874 
539	 0.143597054497287 
540	 0.144422487168693 
541	 0.145268583082228 
542	 0.146254401367073 
543	 0.147579299591087 
544	 0.148647602564386 
545	 0.149319609190364 
546	 0.150460651292125 
547	 0.151688530988057 
548	 0.152404488988262 
549	 0.153206331400573 
550	 0.154205579717092 
551	 0.15529098548219 
552	 0.156181496773548 
553	 0.156745225708223 
554	 0.157508187521614 
555	 0.15844354384073 
556	 0.159367036319223 
557	 0.160191013200455 
558	 0.160884822933592 
559	 0.161521828796503 
560	 0.162139431975398 
561	 0.162757937736378 
562	 0.163187583786499 
563	 0.163480303934582 
564	 0.163856781883909 
565	 0.164179613273627 
566	 0.164442444930459 
567	 0.164938100745845 
568	 0.165399057286636 
569	 0.16545999473208 
570	 0.165458352110948 
571	 0.165503124489687 
572	 0.165625286930529 
573	 0.16581253096228 
574	 0.166026323689056 
575	 0.165996912424951 
576	 0.165952827054305 
577	 0.166407354966177 
578	 0.166432317124658 
579	 0.166023245480082 
580	 0.166525874395219 
581	 0.167109284601336 
582	 0.167026295388649 
583	 0.166894302796572 
584	 0.166890438759968 
585	 0.167174545467399 
586	 0.167469885063306 
587	 0.167645723362952 
588	 0.167729321987116 
589	 0.167707325356193 
590	 0.16756826661848 
591	 0.167738588231409 
592	 0.168078941849442 
593	 0.167704117951665 
594	 0.167735845072405 
595	 0.168699219380152 
596	 0.169184742295722 
597	 0.169167681976159 
598	 0.168927468773701 
599	 0.169050264285601 
600	 0.16953152055846 
601	 0.169392989701756 
602	 0.169069565360208 
603	 0.168974954130081 
604	 0.1689391238597 
605	 0.168774778596913 
606	 0.168043892884972 
607	 0.167395938182358 
608	 0.167063550856648 
609	 0.166673840402799 
610	 0.166174396229101 
611	 0.165543341735134 
612	 0.164896220507269 
613	 0.164327489517825 
614	 0.164051419578236 
615	 0.163628621735204 
616	 0.162852677758638 
617	 0.162417261880237 
618	 0.162147803698859 
619	 0.161559749781129 
620	 0.16107389566648 
621	 0.160779532464751 
622	 0.16050587580231 
623	 0.160248036084243 
624	 0.160025128848214 
625	 0.160082781592955 
626	 0.160296780049627 
627	 0.160269595380807 
628	 0.160094583104196 
629	 0.159837942315591 
630	 0.159669789065733 
631	 0.159720312572516 
632	 0.160112045130288 
633	 0.16012093943254 
634	 0.159758254846988 
635	 0.159643710406176 
636	 0.159787381474103 
637	 0.160130700312948 
638	 0.160082907074913 
639	 0.159862131854816 
640	 0.160002815386475 
641	 0.160128950821355 
642	 0.160185405144714 
643	 0.16039906875507 
644	 0.160783779853279 
645	 0.161295467035553 
646	 0.161267494625146 
647	 0.160734575423501 
648	 0.160126749058834 
649	 0.159582583803528 
650	 0.159179283791689 
651	 0.158787949801841 
652	 0.158239987981127 
653	 0.157346083685477 
654	 0.156111200492837 
655	 0.154679655095846 
656	 0.153886376553825 
657	 0.152443469919391 
658	 0.149841854201067 
659	 0.147715618047112 
660	 0.145795471015276 
661	 0.143366831779157 
662	 0.140990605914772 
663	 0.138767474069587 
664	 0.136362556767361 
665	 0.134146774923827 
666	 0.132413267512401 
667	 0.130737054094761 
668	 0.129097892318678 
669	 0.127645157267774 
670	 0.126235802298661 
671	 0.124899944620828 
672	 0.124033691774962 
673	 0.123594309876748 
674	 0.123478411087317 
675	 0.123549234318564 
676	 0.123695352562213 
677	 0.123690397855674 
678	 0.124050416402209 
679	 0.125031823841728 
680	 0.126210716596836 
681	 0.127603265094556 
682	 0.129323486735244 
683	 0.131199710467228 
684	 0.133336006745693 
685	 0.136413351115972 
686	 0.140140997829516 
687	 0.144235106918851 
688	 0.149066686702022 
689	 0.153906855278394 
690	 0.158074281585953 
691	 0.16282084552204 
692	 0.16852548524408 
693	 0.174313965286229 
694	 0.180115161854952 
695	 0.185648958063207 
696	 0.191065743856604 
697	 0.196317452961801 
698	 0.201418223796618 
699	 0.206632777130246 
700	 0.211877386539042 
701	 0.216318920298495 
702	 0.220357938399241 
703	 0.224702366416891 
704	 0.229074083124333 
705	 0.233233414994121 
706	 0.236350287288506 
707	 0.239329643388869 
708	 0.242722243270728 
709	 0.245833047747655 
710	 0.248658581830724 
711	 0.251387282380201 
712	 0.253899514076014 
713	 0.256211771158524 
714	 0.25859446008779 
715	 0.260878352751004 
716	 0.263024173750874 
717	 0.265390081680325 
718	 0.267831251574595 
719	 0.269269587576576 
720	 0.270577902073325 
721	 0.27206745790304 
722	 0.273709895102704 
723	 0.275501594693894 
724	 0.277304056350358 
725	 0.278527242488697 
726	 0.279219532292076 
727	 0.280275725925452 
728	 0.281574534085645 
729	 0.282970840504852 
730	 0.283787984740779 
731	 0.284464731750008 
732	 0.285705697735417 
733	 0.286315025725001 
734	 0.286346882389649 
735	 0.286746651210297 
736	 0.287571932633525 
737	 0.288742755424113 
738	 0.289307206384943 
739	 0.289545492073089 
740	 0.29024151724643 
741	 0.290935935654124 
742	 0.291483663699415 
743	 0.291781959178717 
744	 0.292385327665192 
745	 0.293670770866175 
746	 0.294209199599101 
747	 0.294221569228152 
748	 0.294884539511048 
749	 0.295436211285766 
750	 0.295706535169631 
751	 0.296228139007882 
752	 0.296768852658485 
753	 0.297058541200993 
754	 0.297391450031286 
755	 0.297846172293505 
756	 0.298553124420545 
757	 0.298736337508636 
758	 0.298275183944388 
759	 0.299488525562152 
760	 0.302969653724269 
761	 0.305612485775199 
762	 0.306695898312054 
763	 0.30662200340589 
764	 0.306531047880784 
765	 0.305939227427784 
766	 0.305008116398528 
767	 0.304835189321339 
768	 0.304994971397709 
769	 0.30496757449201 
770	 0.305029428361004 
771	 0.305302356983933 
772	 0.306038789018543 
773	 0.306681378649653 
774	 0.306878384268618 
775	 0.307085225956523 
776	 0.307447395374259 
777	 0.308115382506157 
778	 0.308608558630962 
779	 0.308881553623952 
780	 0.309470947582069 
781	 0.310019666646067 
782	 0.310229056665105 
783	 0.310153035858026 
784	 0.310021960732007 
785	 0.310229637485207 
786	 0.310925469846894 
787	 0.311987386097849 
788	 0.312604285495443 
789	 0.312829353258271 
790	 0.312790583742218 
791	 0.312934444381759 
792	 0.313301289978584 
793	 0.313791969501449 
794	 0.313886584495185 
795	 0.313595202527586 
796	 0.31411232035473 
797	 0.314553632216047 
798	 0.314061924703319 
799	 0.314528781949818 
800	 0.315715028020586 
801	 0.315995920184671 
802	 0.316011851520415 
803	 0.316047880256962 
804	 0.316356178856218 
805	 0.316864967046813 
806	 0.3174629724491 
807	 0.318007468066286 
808	 0.318469495989204 
809	 0.318849774469041 
810	 0.319416916811165 
811	 0.320192492079075 
812	 0.320407572049265 
813	 0.320676711676766 
814	 0.321864371980091 
815	 0.322840792804253 
816	 0.323492103987266 
817	 0.324542739530794 
818	 0.325313610876742 
819	 0.325591304990652 
820	 0.325821858886239 
821	 0.326407266582679 
822	 0.327721567113342 
823	 0.328093560802833 
824	 0.327605257468908 
825	 0.327626559228804 
826	 0.327972610940287 
827	 0.328594957420903 
828	 0.329474662031035 
829	 0.329885701210475 
830	 0.329038710017887 
831	 0.32931221181896 
832	 0.33052958319128 
833	 0.330579808760914 
834	 0.330669490602678 
835	 0.331072956931701 
836	 0.330370907455136 
837	 0.329554889367504 
838	 0.329825002740509 
839	 0.33015037396455 
840	 0.330366396523826 
841	 0.33073926308953 
842	 0.330694812396032 
843	 0.330119477682914 
844	 0.32990598873076 
845	 0.329890236827617 
846	 0.329794140103457 
847	 0.329505782332337 
848	 0.329177100818437 
849	 0.329380600866337 
850	 0.329340577634028 
851	 0.328834619969328 
852	 0.328486263467128 
853	 0.328832867250604 
854	 0.330200395342166 
855	 0.32953350900179 
856	 0.327502971161223 
857	 0.327226515327277 
858	 0.327612416954153 
859	 0.328054217415662 
860	 0.327098096174254 
861	 0.326508473496882 
862	 0.327869464127249 
863	 0.328130516873751 
864	 0.327576328088247 
865	 0.328205717666645 
866	 0.329301325177989 
867	 0.330354589275147 
868	 0.330129771174321 
869	 0.33004333038382 
870	 0.331174253604359 
871	 0.331722934403931 
872	 0.332075589749401 
873	 0.333505160435259 
874	 0.334906806096629 
875	 0.335834204225387 
876	 0.3357671898624 
877	 0.336790489552112 
878	 0.339935581879403 
879	 0.340797406553118 
880	 0.340636374951095 
881	 0.342488195160638 
882	 0.343885914884379 
883	 0.344485080378946 
884	 0.345332450205324 
885	 0.346473471110802 
886	 0.347866932366863 
887	 0.34882923674304 
888	 0.349791349547552 
889	 0.351411232435512 
890	 0.35285557581106 
891	 0.353689607699677 
892	 0.352942637975675 
893	 0.353646571454635 
894	 0.356763306568184 
895	 0.358114553029045 
896	 0.358425395170626 
897	 0.358985571954381 
898	 0.3598354500905 
899	 0.361215857915658 
900	 0.363727118882501 
901	 0.364615539896769 
902	 0.363645567612916 
903	 0.36431709963914 
904	 0.365045779466671 
905	 0.364576704577965 
906	 0.363662105174627 
907	 0.363646119609247 
908	 0.366688178034128 
909	 0.368788303163924 
910	 0.369169375905392 
911	 0.370286983626217 
912	 0.370487897969584 
913	 0.369234933851437 
914	 0.369406385646562 
915	 0.370223872652981 
916	 0.370377057009342 
917	 0.370726854884157 
918	 0.371154005336508 
919	 0.370986026474831 
920	 0.370475176878041 
921	 0.36995056522722 
922	 0.370563619523309 
923	 0.370818849019475 
924	 0.369501563298002 
925	 0.36953148399286 
926	 0.369949217422436 
927	 0.367388759984997 
928	 0.367612650477722 
929	 0.371726798286268 
930	 0.374231237591239 
931	 0.372695118782209 
932	 0.366361852616939 
933	 0.368287092098417 
934	 0.373712224352237 
935	 0.372530972269805 
936	 0.373489572028541 
937	 0.375981460802169 
938	 0.373360166869454 
939	 0.371319763044194 
940	 0.371194483616869 
941	 0.37000167287409 
942	 0.369526813352262 
943	 0.37070415955521 
944	 0.368996388332562 
945	 0.36753547508845 
946	 0.372027643013943 
947	 0.373761051635956 
948	 0.371096372832005 
949	 0.365638574486456 
950	 0.36490218221787 
951	 0.369862547646615 
952	 0.366674849982847 
953	 0.36041349847303 
954	 0.356807441659276 
955	 0.358456083164251 
956	 0.363088747490263 
957	 0.366034868076739 
958	 0.365005546808359 
959	 0.360270344429201 
960	 0.353869478443872 
961	 0.354053496527539 
962	 0.361664959211448 
963	 0.358827328660171 
964	 0.353170507988718 
965	 0.353442339870046 
966	 0.35499639979248 
967	 0.356807395753732 
968	 0.358514491082453 
969	 0.358095200806948 
970	 0.356280037804594 
971	 0.357948143901199 
972	 0.359100240467151 
973	 0.35835968697109 
974	 0.362653899062816 
975	 0.365522023898704 
976	 0.359894282252049 
977	 0.36155816293399 
978	 0.366574591227347 
979	 0.359978620489114 
980	 0.355993872049365 
981	 0.358048382090028 
982	 0.362475769635512 
983	 0.36479289353818 
984	 0.363108862664969 
985	 0.362887117352893 
986	 0.362463856266066 
987	 0.360001131396442 
988	 0.362530849144732 
989	 0.366879014765971 
990	 0.364016496693009 
991	 0.363409990301118 
992	 0.366445175430143 
993	 0.368317877475026 
994	 0.368143680649744 
995	 0.365987108202167 
996	 0.365475806732099 
997	 0.365275246637221 
998	 0.36410656304212 
999	 0.366144292960449 
1000	 0.369332877343625 
1001	 0.368920766551807 
1002	 0.367986129823897 
1003	 0.367377370435406 
1004	 0.366805451130131 
1005	 0.368808006959001 
1006	 0.372571974465681 
1007	 0.368847713990093 
1008	 0.364579723995866 
1009	 0.365420940614506 
1010	 0.367568015242558 
1011	 0.36976534866931 
1012	 0.371053316103663 
1013	 0.375687121641887 
1014	 0.379974534686815 
1015	 0.373367426736236 
1016	 0.363639491839969 
1017	 0.358522090262295 
1018	 0.377249465784333 
1019	 0.388044189505928 
1020	 0.3767579273129 
1021	 0.373894848562454 
1022	 0.377170452683846 
1023	 0.381374020917941 
1024	 0.380757268207295 
1025	 0.377554807277073 
1026	 0.377284058596367 
1027	 0.375322319386769 
1028	 0.371456157215718 
1029	 0.367133635211062 
1030	 0.368213320243458 
1031	 0.37536095742518 
1032	 0.381128720842683 
1033	 0.382066926422934 
1034	 0.378104012014089 
1035	 0.383068094669944 
1036	 0.387792018834249 
1037	 0.382166400660331 
1038	 0.384191845767303 
1039	 0.390125709565904 
1040	 0.388323128175035 
1041	 0.382993053055425 
1042	 0.378943884899634 
1043	 0.38753344523311 
1044	 0.391369647924866 
1045	 0.387768170737976 
1046	 0.393240181110266 
1047	 0.39144854322421 
1048	 0.377666486877792 
1049	 0.386383189418027 
1050	 0.396979105908949 
1051	 0.38786044083121 
1052	 0.370587926817435 
1053	 0.362941502944378 
1054	 0.386297139815234 
1055	 0.39366114122308 
1056	 0.383927882030023 
1057	 0.381333404126018 
1058	 0.374241780735819 
1059	 0.364148223567262 
1060	 0.363506262288963 
1061	 0.374202538259954 
1062	 0.389598750818516 
1063	 0.37602230754024 
1064	 0.356825351366692 
1065	 0.351651170104851 
1066	 0.353021637890739 
1067	 0.362441502073639 
1068	 0.380363752727491 
1069	 0.371513996333819 
1070	 0.355885443780546 
1071	 0.375110458714111 
1072	 0.377204999880916 
1073	 0.367534670871469 
1074	 0.393010186791272 
1075	 0.39087371057296 
