Wavelength	SHSI00215.asd
325	 0.103916963709319 
326	 9.42018289541154E-02 
327	 8.07665856741651E-02 
328	 0.101166787264834 
329	 0.108879052776665 
330	 9.27633860366888E-02 
331	 9.32820286335494E-02 
332	 0.100837365773687 
333	 0.103688272451948 
334	 9.98516301878515E-02 
335	 9.45319109740201E-02 
336	 0.101313861756482 
337	 0.10272565964356 
338	 9.63120351944648E-02 
339	 9.67214014326426E-02 
340	 9.86418069252981E-02 
341	 9.75920310569695E-02 
342	 9.91487924498198E-02 
343	 0.102764920130342 
344	 0.106135774984675 
345	 0.108245105324328 
346	 0.108342231198414 
347	 0.104401064513162 
348	 0.103158280091996 
349	 0.107925935665578 
350	 0.107367402027201 
351	 0.104676714780964 
352	 0.107127847322312 
353	 0.108476063842209 
354	 0.107833549719643 
355	 0.107766038287641 
356	 0.107578251107979 
357	 0.107348200618594 
358	 0.111434141132847 
359	 0.115617503079816 
360	 0.113136441263068 
361	 0.111828968631705 
362	 0.112780240635493 
363	 0.112712192987813 
364	 0.112456757567812 
365	 0.112347563388597 
366	 0.111200945008664 
367	 0.111134429613877 
368	 0.115096948838029 
369	 0.117290566785271 
370	 0.117130909310922 
371	 0.117485376888512 
372	 0.119126497003643 
373	 0.121840280491222 
374	 0.121335977033232 
375	 0.11809171792939 
376	 0.113541082892976 
377	 0.112813600515515 
378	 0.11533211392907 
379	 0.114999765660719 
380	 0.113934738118268 
381	 0.11342851154067 
382	 0.115186388777233 
383	 0.116183679654652 
384	 0.112416086837063 
385	 0.112539726844565 
386	 0.115733016083744 
387	 0.113469163992666 
388	 0.110391252857791 
389	 0.108801916937307 
390	 0.108836558957169 
391	 0.110778474025716 
392	 0.11476355397571 
393	 0.115099267053875 
394	 0.112115288022962 
395	 0.110716703395635 
396	 0.109631956060231 
397	 0.108318737948311 
398	 0.106392785770773 
399	 0.104844727122957 
400	 0.104591136804341 
401	 0.104556016624047 
402	 0.105120642771122 
403	 0.108191227815131 
404	 0.110001673986218 
405	 0.109407893833256 
406	 0.110245139932887 
407	 0.111176341017821 
408	 0.110200090849889 
409	 0.108562366494495 
410	 0.107196094207886 
411	 0.107774392010401 
412	 0.108515600359614 
413	 0.108497496248019 
414	 0.107766798858491 
415	 0.107265483300654 
416	 0.108167818258264 
417	 0.108564641466817 
418	 0.108296944209438 
419	 0.108405054810568 
420	 0.108406087405038 
421	 0.108137103776998 
422	 0.10826413022661 
423	 0.108700299291363 
424	 0.109222487617047 
425	 0.109386883296676 
426	 0.109223906277672 
427	 0.109305672289577 
428	 0.10959477567622 
429	 0.10991780019813 
430	 0.109194638922924 
431	 0.107972904028826 
432	 0.107360592626657 
433	 0.106935869019189 
434	 0.106711296597219 
435	 0.106999595116303 
436	 0.107608925549915 
437	 0.108342743655412 
438	 0.108775057411681 
439	 0.108941696258409 
440	 0.10903907404394 
441	 0.109159042176872 
442	 0.109285791878872 
443	 0.109015112941032 
444	 0.109327104178354 
445	 0.110857182759658 
446	 0.111433986802218 
447	 0.111155489028981 
448	 0.111013297266587 
449	 0.111279799538458 
450	 0.112079547019856 
451	 0.113151002489413 
452	 0.114401698232833 
453	 0.115707948104601 
454	 0.116288367046275 
455	 0.116207817338519 
456	 0.116067026754879 
457	 0.116032470877266 
458	 0.116238502824556 
459	 0.116694787799073 
460	 0.117226621351648 
461	 0.117626959157186 
462	 0.117637686298393 
463	 0.117540993622568 
464	 0.118398725804438 
465	 0.119155635442622 
466	 0.119373332165653 
467	 0.120270788442056 
468	 0.121013859850505 
469	 0.120236030520228 
470	 0.11961259841969 
471	 0.119699945895109 
472	 0.120662470720523 
473	 0.121664736194318 
474	 0.122171389909319 
475	 0.12268824545446 
476	 0.12307484151555 
477	 0.122966804432907 
478	 0.122943552905633 
479	 0.123230337103555 
480	 0.123912498811969 
481	 0.124602905372218 
482	 0.124974574428382 
483	 0.125030727248465 
484	 0.124974710794477 
485	 0.125295537370595 
486	 0.125554172671603 
487	 0.125558428040079 
488	 0.125288847664356 
489	 0.124766692921329 
490	 0.124090286995391 
491	 0.124773975813247 
492	 0.126245995023965 
493	 0.126165420485712 
494	 0.126125122212383 
495	 0.126800616358801 
496	 0.127897234508351 
497	 0.128977786205373 
498	 0.129524358455844 
499	 0.129934464930519 
500	 0.13036814654311 
501	 0.130950826099714 
502	 0.131764949314061 
503	 0.132733217039063 
504	 0.132937147968372 
505	 0.132852632788801 
506	 0.133405937453368 
507	 0.134512680643762 
508	 0.136009353078722 
509	 0.137255345379362 
510	 0.138558403913106 
511	 0.140112074924559 
512	 0.141014103842969 
513	 0.141672589403719 
514	 0.14342716632829 
515	 0.14488299336477 
516	 0.14563719004008 
517	 0.146534874222831 
518	 0.147344009539619 
519	 0.147774692405663 
520	 0.148203539922344 
521	 0.148969479584277 
522	 0.150759482428229 
523	 0.152445460725105 
524	 0.153595542435457 
525	 0.155190841308673 
526	 0.156782781358548 
527	 0.157608780625622 
528	 0.157918695732137 
529	 0.158154935570484 
530	 0.159441903830254 
531	 0.161150925238146 
532	 0.162777784370122 
533	 0.16388773529709 
534	 0.164617816949234 
535	 0.165364753756263 
536	 0.166300288296006 
537	 0.167465661321214 
538	 0.168563339818713 
539	 0.169831011160809 
540	 0.171443929823901 
541	 0.172248256645653 
542	 0.172492611551856 
543	 0.173393599742664 
544	 0.174680570431387 
545	 0.176117586049424 
546	 0.176829157719237 
547	 0.177372412860543 
548	 0.178568501576544 
549	 0.179854259483216 
550	 0.180939904326554 
551	 0.181324038468415 
552	 0.181815235655603 
553	 0.182914413306012 
554	 0.184133816744322 
555	 0.185284371940068 
556	 0.186143212366981 
557	 0.187282411447957 
558	 0.188539605882823 
559	 0.188352834548257 
560	 0.187996938096565 
561	 0.188682017467629 
562	 0.189659753799861 
563	 0.190654315126605 
564	 0.191334737825303 
565	 0.19197627911927 
566	 0.192644279148347 
567	 0.193052919229952 
568	 0.193416272006966 
569	 0.194031863592004 
570	 0.19434536577226 
571	 0.194264652153046 
572	 0.193884776624808 
573	 0.193937141079864 
574	 0.194798432086343 
575	 0.195515559025458 
576	 0.195942005635162 
577	 0.196041632453965 
578	 0.196636905937415 
579	 0.197655299040491 
580	 0.197490011224063 
581	 0.197322026576514 
582	 0.198180471239236 
583	 0.198772361391623 
584	 0.199045840925709 
585	 0.199477096147683 
586	 0.199990019639302 
587	 0.20048915719153 
588	 0.200528424820868 
589	 0.200360677164937 
590	 0.200373626167364 
591	 0.200219862917517 
592	 0.200115274007826 
593	 0.201011898406735 
594	 0.20165510431102 
595	 0.201442795520707 
596	 0.201950838459566 
597	 0.20291419759118 
598	 0.203550438087411 
599	 0.203678160038415 
600	 0.203370261299376 
601	 0.203317183599823 
602	 0.203419435644713 
603	 0.203555843232004 
604	 0.203606736789998 
605	 0.203681143198269 
606	 0.204204859016896 
607	 0.204405913344818 
608	 0.20397285334533 
609	 0.203200764486652 
610	 0.202465618597271 
611	 0.202188709716574 
612	 0.20213318732571 
613	 0.202073283695114 
614	 0.20150914316727 
615	 0.200871212163497 
616	 0.200430763090374 
617	 0.199989091243139 
618	 0.199661552627421 
619	 0.199676278075737 
620	 0.199676589071811 
621	 0.199611527159316 
622	 0.199838306868308 
623	 0.199946722282108 
624	 0.199598586134293 
625	 0.19948642967523 
626	 0.199656129679413 
627	 0.199823207536047 
628	 0.200239091893779 
629	 0.200871542893718 
630	 0.201069531477127 
631	 0.200938975714569 
632	 0.200694714732587 
633	 0.200346391977525 
634	 0.200146842417481 
635	 0.200784024616804 
636	 0.201542302647294 
637	 0.201984416947546 
638	 0.202426502316743 
639	 0.202797128953933 
640	 0.202899674154287 
641	 0.203045138248722 
642	 0.203339121402421 
643	 0.203716906663035 
644	 0.204232556820803 
645	 0.20487914379068 
646	 0.204786413429148 
647	 0.20430495563096 
648	 0.204908840494705 
649	 0.204925631856573 
650	 0.203909712811609 
651	 0.203371188585348 
652	 0.203058295898905 
653	 0.202509944583224 
654	 0.201732888034275 
655	 0.200538312287856 
656	 0.198640566181647 
657	 0.19626303446545 
658	 0.193796706985949 
659	 0.191939529935899 
660	 0.190489287182419 
661	 0.189132208681997 
662	 0.18673470820023 
663	 0.183394217649744 
664	 0.18110561169712 
665	 0.179049346392536 
666	 0.176558757140175 
667	 0.174908413377942 
668	 0.173732229014908 
669	 0.171556835202458 
670	 0.169674640363535 
671	 0.16856587405552 
672	 0.168077966261467 
673	 0.167642604575634 
674	 0.16665166879581 
675	 0.166488395258093 
676	 0.16709909095155 
677	 0.167325538088447 
678	 0.167591243759914 
679	 0.168253385318848 
680	 0.170194428435918 
681	 0.172616859333375 
682	 0.174100428512984 
683	 0.176431421126954 
684	 0.179891221957535 
685	 0.183647534551648 
686	 0.187875295935981 
687	 0.192637174579411 
688	 0.197663437378701 
689	 0.202668662229945 
690	 0.208252380773044 
691	 0.214161857088148 
692	 0.220405019075121 
693	 0.226874895939656 
694	 0.233473359553609 
695	 0.239798020453046 
696	 0.245726722579696 
697	 0.251353759991843 
698	 0.257208646955135 
699	 0.263011560501037 
700	 0.268454898772418 
701	 0.273168409360959 
702	 0.277416398216124 
703	 0.281667658433964 
704	 0.285660820669065 
705	 0.289413075642358 
706	 0.293024552459891 
707	 0.296177847191754 
708	 0.2987508460509 
709	 0.301657850302005 
710	 0.304732292779603 
711	 0.307391646212488 
712	 0.30997966846333 
713	 0.312554648262348 
714	 0.315003891576437 
715	 0.317219049385465 
716	 0.319250800296546 
717	 0.321648257694571 
718	 0.324482089909741 
719	 0.327234576700299 
720	 0.328852999464009 
721	 0.329319352604152 
722	 0.330469996506305 
723	 0.332065099701696 
724	 0.333652165946777 
725	 0.335099017093136 
726	 0.336443788454864 
727	 0.338408212490192 
728	 0.339899725885098 
729	 0.340579981124775 
730	 0.34229493124268 
731	 0.344208484701376 
732	 0.344932733264453 
733	 0.345295664773625 
734	 0.345782276305269 
735	 0.34724002986384 
736	 0.348723912188779 
737	 0.349601631140526 
738	 0.350647467248465 
739	 0.351940678002714 
740	 0.353474423714567 
741	 0.354420590180971 
742	 0.354699757108822 
743	 0.355129684111219 
744	 0.356006740671358 
745	 0.357461123424705 
746	 0.358160918114514 
747	 0.358308982874528 
748	 0.358944094695452 
749	 0.359834329400202 
750	 0.360885745443989 
751	 0.361887505095768 
752	 0.362786484831314 
753	 0.363552101835551 
754	 0.364214698103438 
755	 0.364876990301805 
756	 0.366115676310297 
757	 0.365496395812963 
758	 0.362482924125168 
759	 0.363226286704456 
760	 0.369064457990749 
761	 0.375582454976054 
762	 0.377996589816017 
763	 0.377158647414102 
764	 0.378305483876608 
765	 0.379478326360441 
766	 0.379815026433097 
767	 0.378536609267979 
768	 0.377254558340148 
769	 0.377843248526288 
770	 0.378324259771721 
771	 0.378492380458405 
772	 0.379374269584287 
773	 0.380410462681024 
774	 0.381207505027476 
775	 0.381808933973371 
776	 0.382404066081693 
777	 0.383343550624571 
778	 0.384235634574613 
779	 0.384970890669055 
780	 0.385648491980311 
781	 0.386329599276033 
782	 0.387059433598704 
783	 0.387776130979988 
784	 0.388476725106235 
785	 0.389206590709833 
786	 0.389595987305755 
787	 0.389713804637911 
788	 0.390429590970241 
789	 0.391467771291703 
790	 0.392495309476476 
791	 0.393276468587007 
792	 0.39392337638929 
793	 0.394885326975418 
794	 0.3956336702734 
795	 0.396061955119633 
796	 0.396565984449389 
797	 0.397390377964712 
798	 0.398680422007334 
799	 0.399112901847836 
800	 0.399111058333003 
801	 0.400590257079166 
802	 0.401724545532786 
803	 0.401981577213698 
804	 0.402743290491673 
805	 0.403443090692351 
806	 0.403432592050735 
807	 0.404032854379795 
808	 0.405198279543446 
809	 0.40608347269041 
810	 0.406374005199796 
811	 0.406127764346438 
812	 0.406847935803127 
813	 0.407982581290462 
814	 0.40866063747894 
815	 0.410692047461193 
816	 0.413812143406224 
817	 0.415933235310785 
818	 0.417098379537973 
819	 0.417359386750556 
820	 0.416925889653516 
821	 0.416936019614424 
822	 0.418627487123982 
823	 0.420628928682204 
824	 0.421812369067209 
825	 0.42011719618081 
826	 0.419510519098217 
827	 0.421304556275336 
828	 0.422061070645671 
829	 0.422371026531371 
830	 0.42332623123485 
831	 0.424476909836931 
832	 0.425509738892582 
833	 0.425793462679722 
834	 0.426275088109943 
835	 0.427201949794866 
836	 0.427400697275458 
837	 0.427355915753947 
838	 0.427722655095707 
839	 0.428618135925243 
840	 0.429443269154351 
841	 0.42821756391491 
842	 0.42823552301572 
843	 0.43026518757416 
844	 0.429790747194507 
845	 0.428520175768757 
846	 0.428753364338527 
847	 0.429433045762053 
848	 0.430072610952985 
849	 0.429831192535951 
850	 0.429639925546879 
851	 0.430041198200787 
852	 0.431507882926177 
853	 0.433302634329776 
854	 0.43456089311522 
855	 0.435321503920932 
856	 0.435338781133708 
857	 0.433910117377462 
858	 0.433200444400009 
859	 0.433774479259431 
860	 0.43402726152328 
861	 0.434189210175607 
862	 0.434542417210849 
863	 0.434761949815657 
864	 0.435080075977826 
865	 0.436038261840213 
866	 0.438124114379031 
867	 0.440711530562577 
868	 0.440334177947488 
869	 0.439913853667194 
870	 0.441709645413572 
871	 0.442363151317992 
872	 0.441993064853284 
873	 0.441686603055948 
874	 0.443020472137871 
875	 0.445909499930428 
876	 0.4476530674543 
877	 0.449043254836404 
878	 0.450670868719707 
879	 0.452171111448179 
880	 0.453693927817924 
881	 0.455533090353202 
882	 0.45763956910556 
883	 0.459663876918645 
884	 0.460576870942493 
885	 0.461265485895608 
886	 0.462068839927418 
887	 0.461415027205706 
888	 0.460940635692517 
889	 0.462898426698315 
890	 0.463475932656245 
891	 0.462706340048374 
892	 0.463677364173479 
893	 0.464528308860191 
894	 0.464732450972778 
895	 0.466255233642209 
896	 0.468997175015618 
897	 0.472499853418174 
898	 0.475524840244234 
899	 0.477981318402222 
900	 0.480948179896251 
901	 0.480945315839035 
902	 0.478137383923785 
903	 0.478149611502267 
904	 0.47902593171993 
905	 0.47918321728322 
906	 0.47953436857023 
907	 0.480516601208731 
908	 0.482761427655824 
909	 0.48328702754145 
910	 0.482355358801025 
911	 0.484706464389832 
912	 0.486431333902024 
913	 0.485913065078415 
914	 0.488334744728131 
915	 0.491687429758313 
916	 0.49290971359519 
917	 0.493743345888021 
918	 0.493893090285975 
919	 0.491481833865135 
920	 0.490283974046224 
921	 0.490691708676015 
922	 0.48695437114421 
923	 0.483953597693536 
924	 0.485830007198 
925	 0.486586431830519 
926	 0.485579680190023 
927	 0.483695661043393 
928	 0.481716857089179 
929	 0.480989538719283 
930	 0.485583765294899 
931	 0.490068246683774 
932	 0.490648004546334 
933	 0.499602880886983 
934	 0.509215886654416 
935	 0.506371834464937 
936	 0.507978404358035 
937	 0.509373705028893 
938	 0.486154113846326 
939	 0.48058239944752 
940	 0.497416371960988 
941	 0.497854977146015 
942	 0.492971367873072 
943	 0.492215860420547 
944	 0.496745469121682 
945	 0.503291324589944 
946	 0.506313648842858 
947	 0.506091675186612 
948	 0.502802338618489 
949	 0.497198902008323 
950	 0.492321642134717 
951	 0.490191107294951 
952	 0.493184341734112 
953	 0.496111354076605 
954	 0.494652822345071 
955	 0.494412165340598 
956	 0.494062303502208 
957	 0.489158744758889 
958	 0.494136308719979 
959	 0.506331698847068 
960	 0.504677836532527 
961	 0.501602422070742 
962	 0.502246371429784 
963	 0.498074677631921 
964	 0.494938104988074 
965	 0.49847795401497 
966	 0.501798773895988 
967	 0.500689318281148 
968	 0.489053283396664 
969	 0.486900322453068 
970	 0.494307528020436 
971	 0.488777892497909 
972	 0.485321630978494 
973	 0.491107871285847 
974	 0.495264590576652 
975	 0.498832834080155 
976	 0.503910687465327 
977	 0.506950707065206 
978	 0.506530619777911 
979	 0.501081373440725 
980	 0.49734385825365 
981	 0.498051055458577 
982	 0.504370154718306 
983	 0.50553812652706 
984	 0.498299284858297 
985	 0.501579651610856 
986	 0.507351113018523 
987	 0.505635403269712 
988	 0.507115981895082 
989	 0.509168371129233 
990	 0.502597856276554 
991	 0.504094705615294 
992	 0.512348988655889 
993	 0.504094484402902 
994	 0.498866721536664 
995	 0.504353220117584 
996	 0.503914729484269 
997	 0.498902676497346 
998	 0.493043268694653 
999	 0.499633014889945 
1000	 0.510910003551666 
1001	 0.510278098692505 
1002	 0.504649180021661 
1003	 0.499436467863647 
1004	 0.506001392385028 
1005	 0.511206829518265 
1006	 0.510227613749536 
1007	 0.509812592284603 
1008	 0.508787608133634 
1009	 0.505991347574483 
1010	 0.499580233130046 
1011	 0.495903778185387 
1012	 0.503754746872497 
1013	 0.510528067063681 
1014	 0.513146399679179 
1015	 0.510873974274703 
1016	 0.509519271823934 
1017	 0.510835878885024 
1018	 0.512072699199335 
1019	 0.517669308279222 
1020	 0.527939281208375 
1021	 0.530735667182836 
1022	 0.524811320796616 
1023	 0.512261288190772 
1024	 0.514720986596125 
1025	 0.520221403310018 
1026	 0.503381847412036 
1027	 0.498645131118526 
1028	 0.5073872265508 
1029	 0.506306719129262 
1030	 0.501239219353327 
1031	 0.498435993412021 
1032	 0.52006683936652 
1033	 0.533997849441624 
1034	 0.523210008646715 
1035	 0.522841571128659 
1036	 0.528463118415414 
1037	 0.531733527956858 
1038	 0.536855514845508 
1039	 0.537646448916222 
1040	 0.523840883710694 
1041	 0.513320370323822 
1042	 0.510142077918309 
1043	 0.512171297138835 
1044	 0.519482812145774 
1045	 0.529472071386278 
1046	 0.535334998699563 
1047	 0.530740718631117 
1048	 0.513163779993532 
1049	 0.486203124677523 
1050	 0.484338540068436 
1051	 0.531544547515361 
1052	 0.539251017615382 
1053	 0.522676841588219 
1054	 0.52668533153277 
1055	 0.533350109178281 
1056	 0.535445036008312 
1057	 0.522722247215 
1058	 0.501752683131784 
1059	 0.483364237464291 
1060	 0.490340975144737 
1061	 0.517844254822994 
1062	 0.546873638770591 
1063	 0.498610317594764 
1064	 0.457723910713577 
1065	 0.482775314523151 
1066	 0.510643163636338 
1067	 0.517555769592546 
1068	 0.492437104725407 
1069	 0.505285084712413 
1070	 0.5226352274801 
1071	 0.46976619211609 
1072	 0.448811424849589 
1073	 0.479971639189696 
1074	 0.542316796048438 
1075	 0.555109586319062 
