Wavelength	SHSI00072.asd
325	 8.95519865776943E-02 
326	 8.63966269336607E-02 
327	 8.19230599500087E-02 
328	 0.095166158606435 
329	 0.102499026730332 
330	 9.65356338708648E-02 
331	 8.48577164557912E-02 
332	 7.95413175593301E-02 
333	 9.00116237395507E-02 
334	 9.09070498053436E-02 
335	 8.48600026538088E-02 
336	 0.088909889987964 
337	 9.16320745986496E-02 
338	 9.03997741986426E-02 
339	 0.088938902149429 
340	 8.92960417459943E-02 
341	 9.26147794552817E-02 
342	 0.094840321325951 
343	 9.51027016705148E-02 
344	 9.30620120673952E-02 
345	 9.10991154293836E-02 
346	 9.04478581812672E-02 
347	 9.27395673586044E-02 
348	 9.43237559636131E-02 
349	 9.29182762875662E-02 
350	 9.06935502016747E-02 
351	 8.99137885072438E-02 
352	 9.34906653061476E-02 
353	 0.096857445811813 
354	 9.85753254406339E-02 
355	 9.84434002836132E-02 
356	 9.79993235524166E-02 
357	 9.83594669453774E-02 
358	 0.100289441938567 
359	 0.102010257248649 
360	 0.100809737007193 
361	 0.100334561585729 
362	 0.100953571596944 
363	 0.100653504253281 
364	 0.100395512572363 
365	 0.100534081910215 
366	 9.97144164013673E-02 
367	 0.099062083667002 
368	 0.100190830579015 
369	 0.101720807159713 
370	 0.102702866611455 
371	 0.101205517183006 
372	 0.100172745662452 
373	 0.100868056117964 
374	 0.099930779130276 
375	 9.81894474761379E-02 
376	 0.097253491745565 
377	 9.59168950373053E-02 
378	 9.47189427906975E-02 
379	 9.63038670060543E-02 
380	 9.70998826352921E-02 
381	 9.55949579928381E-02 
382	 0.094826919415831 
383	 9.47188917561092E-02 
384	 0.094764519449989 
385	 9.40119045272774E-02 
386	 9.27773965494777E-02 
387	 9.28701160452463E-02 
388	 9.24197841142783E-02 
389	 9.10802154670386E-02 
390	 9.20956249136132E-02 
391	 9.36455576829981E-02 
392	 9.33596970738327E-02 
393	 9.19628966037422E-02 
394	 9.03365091180851E-02 
395	 9.04671975668203E-02 
396	 9.08407100852837E-02 
397	 9.06061921902259E-02 
398	 8.91443864585336E-02 
399	 8.75431789680844E-02 
400	 8.68736262106737E-02 
401	 8.68526773906073E-02 
402	 8.73848498175833E-02 
403	 0.088635713723964 
404	 8.91859722176085E-02 
405	 8.85536713733222E-02 
406	 8.78593361636891E-02 
407	 8.72434770169293E-02 
408	 8.67355448223232E-02 
409	 8.58318017194348E-02 
410	 8.49024511357439E-02 
411	 0.085377829511597 
412	 8.54644522078594E-02 
413	 8.45876069532992E-02 
414	 8.49820933604454E-02 
415	 8.56289135575576E-02 
416	 8.49767644000451E-02 
417	 8.46249232161099E-02 
418	 8.47713080547907E-02 
419	 8.48484352340277E-02 
420	 8.48474221807346E-02 
421	 8.47195018051461E-02 
422	 8.42323623899692E-02 
423	 0.083746332113144 
424	 8.37959128030062E-02 
425	 8.38608844499373E-02 
426	 8.38067837451217E-02 
427	 8.36608073557505E-02 
428	 8.35806776666398E-02 
429	 8.36697606097314E-02 
430	 8.39820979398917E-02 
431	 8.39390998155107E-02 
432	 8.25841382526707E-02 
433	 8.18149623909336E-02 
434	 8.19568933455555E-02 
435	 8.19993938050703E-02 
436	 8.23179132692197E-02 
437	 8.30487786140312E-02 
438	 8.30828595123411E-02 
439	 8.26876097401304E-02 
440	 8.26437581505513E-02 
441	 8.26345988537816E-02 
442	 8.25961135831515E-02 
443	 8.25350788625205E-02 
444	 0.082666134145246 
445	 8.31167234544999E-02 
446	 8.33001589878239E-02 
447	 8.33196280963392E-02 
448	 8.36209351776786E-02 
449	 0.084034444897072 
450	 0.084431770548516 
451	 8.44364800189573E-02 
452	 0.084510180773492 
453	 8.50991218793268E-02 
454	 8.55499792317201E-02 
455	 8.57047343826127E-02 
456	 8.54823351889041E-02 
457	 8.54228521591888E-02 
458	 8.57222643634191E-02 
459	 8.60061731908257E-02 
460	 8.60846370340031E-02 
461	 8.57916508593497E-02 
462	 8.57580730624361E-02 
463	 8.61034686387386E-02 
464	 8.67224009345091E-02 
465	 8.71730752841709E-02 
466	 0.087246467785985 
467	 8.74119946315094E-02 
468	 8.75847199179083E-02 
469	 8.75630938790259E-02 
470	 8.75079558654435E-02 
471	 8.75920731753482E-02 
472	 8.82707672137005E-02 
473	 8.87656770881222E-02 
474	 8.86463065436222E-02 
475	 8.87806330462716E-02 
476	 8.91201718881894E-02 
477	 8.93649976249059E-02 
478	 8.96540390723618E-02 
479	 0.089929550278021 
480	 8.98684090288021E-02 
481	 8.96712557177518E-02 
482	 8.95436030098534E-02 
483	 8.98210461512921E-02 
484	 0.090289025763448 
485	 9.02855724842992E-02 
486	 9.03457067961816E-02 
487	 9.05621811472004E-02 
488	 9.04059963109057E-02 
489	 9.01566705043778E-02 
490	 9.01299781932111E-02 
491	 9.01881812101628E-02 
492	 9.04008501029981E-02 
493	 9.11270803086815E-02 
494	 9.13135844210648E-02 
495	 9.07452598286102E-02 
496	 9.12053859098367E-02 
497	 9.21029861792072E-02 
498	 9.24644859023049E-02 
499	 9.29587086691309E-02 
500	 9.36073158516304E-02 
501	 9.39842730369539E-02 
502	 9.43153807394398E-02 
503	 9.47436293238653E-02 
504	 9.52184848676098E-02 
505	 9.57973651603691E-02 
506	 9.65796504341949E-02 
507	 9.74259103249713E-02 
508	 9.82206218247546E-02 
509	 9.86898528740091E-02 
510	 9.92220040524709E-02 
511	 0.100110813045394 
512	 0.100943839643121 
513	 0.101747834937689 
514	 0.102765340571333 
515	 0.103733749912903 
516	 0.104541530059347 
517	 0.105200804368439 
518	 0.105745186585817 
519	 0.106224402843245 
520	 0.106955613928453 
521	 0.107881260136221 
522	 0.108708714875824 
523	 0.10939747690258 
524	 0.109980940661517 
525	 0.110789660518385 
526	 0.111813826505221 
527	 0.112981161090439 
528	 0.113893187501647 
529	 0.11450811051462 
530	 0.115110373908782 
531	 0.115838442357541 
532	 0.116775114016096 
533	 0.117735451166675 
534	 0.118574987084777 
535	 0.119045839077034 
536	 0.119758713487948 
537	 0.120862321933625 
538	 0.122033272723515 
539	 0.123015318253892 
540	 0.123590609116096 
541	 0.124120051604942 
542	 0.124691863849401 
543	 0.125281239345256 
544	 0.126022154892908 
545	 0.126977032850067 
546	 0.128143434925782 
547	 0.129214942901378 
548	 0.129807261922035 
549	 0.130386014342821 
550	 0.131092428990656 
551	 0.131970801440551 
552	 0.132772216854828 
553	 0.133350144079273 
554	 0.133927606007372 
555	 0.13455409348634 
556	 0.135252271796912 
557	 0.136045028319553 
558	 0.136839833298941 
559	 0.13722887830957 
560	 0.137511772475861 
561	 0.137981802538732 
562	 0.138519170397951 
563	 0.139042766103268 
564	 0.139390205870769 
565	 0.139730172366459 
566	 0.140128187461443 
567	 0.14054915118786 
568	 0.140861044387826 
569	 0.140906283039713 
570	 0.140856440986931 
571	 0.140808115192214 
572	 0.140889404788184 
573	 0.140992715638657 
574	 0.141065816504167 
575	 0.141266661363364 
576	 0.141480521056844 
577	 0.14147670220026 
578	 0.141270532153729 
579	 0.141056157133538 
580	 0.141612310996324 
581	 0.1422201874685 
582	 0.142241152952127 
583	 0.142178421118427 
584	 0.14221030580618 
585	 0.142590106768988 
586	 0.142770399904768 
587	 0.142593693583672 
588	 0.142640290376878 
589	 0.142778478773334 
590	 0.142764949147923 
591	 0.14269279054223 
592	 0.142670752757067 
593	 0.14298398020752 
594	 0.143226680619035 
595	 0.143179777091363 
596	 0.143179068492238 
597	 0.1432169467293 
598	 0.143184547151578 
599	 0.143345508950056 
600	 0.143657817785455 
601	 0.143592819837136 
602	 0.143410800645452 
603	 0.143354166404433 
604	 0.143287829537295 
605	 0.143065012833335 
606	 0.14232702382342 
607	 0.141728300764542 
608	 0.141485406603777 
609	 0.141077787946238 
610	 0.140601473777841 
611	 0.140231833197373 
612	 0.139717619313659 
613	 0.139112943007302 
614	 0.138798229119093 
615	 0.138495683935968 
616	 0.138026117790149 
617	 0.137414151500536 
618	 0.1367834099656 
619	 0.136307252532815 
620	 0.136077464335243 
621	 0.136044077601772 
622	 0.135872366156191 
623	 0.135635788103413 
624	 0.135439756120226 
625	 0.135671183442039 
626	 0.136057192647828 
627	 0.135734670024888 
628	 0.13527294522323 
629	 0.134965473093672 
630	 0.135058094191905 
631	 0.135313331815787 
632	 0.135405197591239 
633	 0.135302553527812 
634	 0.135096400082233 
635	 0.135107631306553 
636	 0.135242595114939 
637	 0.135390975791005 
638	 0.135118875988876 
639	 0.134775033429642 
640	 0.135074724031591 
641	 0.135423739089234 
642	 0.135633224423953 
643	 0.135775217081106 
644	 0.135890454491592 
645	 0.136001500176751 
646	 0.135882971452374 
647	 0.135647658094408 
648	 0.135776792618223 
649	 0.13548177440715 
650	 0.134578040181949 
651	 0.133934989378921 
652	 0.133483825771403 
653	 0.13303312393801 
654	 0.13169431885166 
655	 0.129718774345743 
656	 0.129189000377906 
657	 0.128183609577222 
658	 0.125804893165905 
659	 0.123952280550158 
660	 0.122385510948205 
661	 0.120404025837042 
662	 0.11837228510422 
663	 0.116362702827664 
664	 0.11420602666561 
665	 0.112249990703941 
666	 0.110764670136746 
667	 0.109309240458662 
668	 0.107921055080948 
669	 0.10687306621245 
670	 0.10603392293862 
671	 0.105330035077115 
672	 0.104632282241038 
673	 0.104101469877396 
674	 0.103924646323404 
675	 0.104015161855137 
676	 0.104304000940438 
677	 0.104694420409436 
678	 0.105045009602401 
679	 0.105360888285909 
680	 0.106228298412661 
681	 0.107574607002868 
682	 0.10917955007861 
683	 0.110676573496478 
684	 0.112155978831356 
685	 0.114474118224679 
686	 0.117637202804072 
687	 0.121540747168734 
688	 0.125027359961194 
689	 0.128055271618854 
690	 0.131836678366653 
691	 0.135888665993975 
692	 0.140176117071976 
693	 0.144754644932191 
694	 0.149288761913441 
695	 0.153257584350883 
696	 0.157411267188005 
697	 0.161709951183858 
698	 0.165823387293873 
699	 0.169967251646431 
700	 0.174062987746881 
701	 0.177519353255816 
702	 0.180543296286926 
703	 0.183547420355399 
704	 0.18637064332294 
705	 0.189044713357158 
706	 0.191636877303161 
707	 0.193904095404632 
708	 0.195722220826905 
709	 0.19743122422811 
710	 0.199187618553058 
711	 0.201175532035974 
712	 0.203088271818715 
713	 0.20475471604944 
714	 0.205972881711425 
715	 0.207137482733297 
716	 0.20867428074952 
717	 0.210100138053578 
718	 0.211266885877977 
719	 0.211916671655343 
720	 0.212463937743726 
721	 0.21318176719197 
722	 0.214518531569579 
723	 0.215948151865434 
724	 0.216774107315646 
725	 0.217455523451353 
726	 0.217987721367582 
727	 0.218134896251171 
728	 0.218623043818986 
729	 0.21969405164097 
730	 0.220209889479638 
731	 0.220486131397413 
732	 0.221136118574101 
733	 0.221490843967452 
734	 0.221516074492128 
735	 0.221493580287918 
736	 0.221736279371406 
737	 0.222405371114858 
738	 0.222948409908009 
739	 0.223336907921923 
740	 0.223702602107903 
741	 0.223826705002958 
742	 0.223788672085066 
743	 0.224113254779053 
744	 0.224740608255102 
745	 0.225538808384866 
746	 0.225652192327989 
747	 0.225404727721439 
748	 0.225972126871655 
749	 0.226432919293447 
750	 0.226491130795259 
751	 0.226425498762279 
752	 0.226372024300019 
753	 0.226464637620926 
754	 0.226901266975019 
755	 0.227514933391861 
756	 0.227840428068131 
757	 0.227524414392547 
758	 0.226622069163309 
759	 0.227545688490525 
760	 0.230573301335154 
761	 0.232220219778491 
762	 0.232499979052017 
763	 0.232173021261451 
764	 0.232424506621811 
765	 0.232392712645137 
766	 0.23197582721395 
767	 0.232133470921858 
768	 0.232235211046323 
769	 0.2314566733932 
770	 0.231119078813153 
771	 0.231423374282747 
772	 0.231817612518406 
773	 0.232237710344676 
774	 0.232612808391355 
775	 0.232870123260285 
776	 0.232981349808249 
777	 0.232905642527982 
778	 0.233031128334486 
779	 0.233357247645731 
780	 0.233267327496894 
781	 0.233336165751613 
782	 0.23395655650444 
783	 0.234140792895554 
784	 0.233963918039597 
785	 0.233910761961387 
786	 0.234092036819977 
787	 0.234527997161176 
788	 0.235030500373535 
789	 0.235292474364166 
790	 0.235091437230463 
791	 0.235288002502467 
792	 0.235756909539562 
793	 0.235816703484646 
794	 0.23557026270176 
795	 0.235259236291662 
796	 0.23599104050487 
797	 0.236668635218719 
798	 0.236202843470696 
799	 0.236110263725287 
800	 0.236463648354738 
801	 0.236629568072362 
802	 0.236758172292795 
803	 0.236900854297659 
804	 0.237131819333282 
805	 0.237381674932121 
806	 0.237573803130858 
807	 0.237755065094846 
808	 0.237950132653013 
809	 0.238184368997129 
810	 0.238536708373196 
811	 0.238940200393128 
812	 0.238671003814869 
813	 0.238605036835989 
814	 0.239929243727477 
815	 0.24056687233319 
816	 0.240494663179659 
817	 0.241574060960978 
818	 0.242300260719525 
819	 0.242131724705062 
820	 0.241853157453358 
821	 0.241858076709804 
822	 0.242508898872297 
823	 0.242892914990761 
824	 0.242944714494265 
825	 0.243187105466356 
826	 0.243352339770785 
827	 0.243412347862932 
828	 0.243831433502667 
829	 0.244232093699501 
830	 0.244116629313911 
831	 0.244072094365961 
832	 0.244125310644615 
833	 0.243859904736957 
834	 0.244147230812128 
835	 0.245018077374872 
836	 0.244352180284847 
837	 0.243547803329105 
838	 0.244287563958237 
839	 0.243810285490256 
840	 0.242535206525615 
841	 0.243380019796279 
842	 0.243959193313207 
843	 0.243414314488529 
844	 0.243027851340609 
845	 0.243153437163342 
846	 0.243988753930507 
847	 0.24358206380626 
848	 0.24233602037099 
849	 0.242606007020056 
850	 0.243256657261364 
851	 0.243674120045348 
852	 0.242961119581392 
853	 0.242473534876412 
854	 0.243618068497923 
855	 0.244023131264083 
856	 0.243510253531901 
857	 0.242814487296177 
858	 0.242435613639921 
859	 0.242510228001975 
860	 0.242452813478561 
861	 0.24248725069095 
862	 0.242810283390785 
863	 0.242733258365873 
864	 0.242386694674624 
865	 0.242321344574583 
866	 0.242841274115363 
867	 0.243747960614684 
868	 0.243625724983589 
869	 0.243233214122634 
870	 0.243293922648118 
871	 0.24395503227372 
872	 0.245013993029533 
873	 0.246042377034001 
874	 0.246842295002645 
875	 0.247354422958746 
876	 0.247739789243045 
877	 0.248205471589822 
878	 0.248779712888507 
879	 0.248302919268744 
880	 0.247866072253693 
881	 0.249453942381613 
882	 0.250417701479889 
883	 0.250472485253174 
884	 0.25129692592633 
885	 0.252343983484384 
886	 0.253189069159207 
887	 0.253046448758792 
888	 0.252927894516615 
889	 0.254238176930726 
890	 0.255032205917764 
891	 0.255086321772399 
892	 0.255081145864148 
893	 0.25587140760628 
894	 0.257662210915013 
895	 0.258760668647145 
896	 0.259138008133488 
897	 0.258960471325223 
898	 0.25877304993269 
899	 0.258756010256961 
900	 0.258814682487418 
901	 0.259690926436333 
902	 0.261262719258929 
903	 0.262304737953891 
904	 0.261536354304049 
905	 0.258468937248087 
906	 0.257460675000133 
907	 0.258896068835707 
908	 0.262252028226511 
909	 0.263177268917987 
910	 0.26121296111845 
911	 0.260452551769094 
912	 0.260828824506198 
913	 0.262156017657854 
914	 0.263212441646138 
915	 0.263574094076538 
916	 0.263001057794877 
917	 0.262042882728366 
918	 0.261326321549968 
919	 0.262253670316532 
920	 0.261798348853041 
921	 0.259791314120987 
922	 0.261262782302526 
923	 0.262606261311558 
924	 0.260710339106593 
925	 0.261140004930061 
926	 0.262857574962982 
927	 0.261480875821236 
928	 0.260098817886519 
929	 0.259927914857738 
930	 0.261209964031061 
931	 0.262478233785536 
932	 0.262411884800893 
933	 0.26238190366461 
934	 0.26147123704066 
935	 0.258465312905154 
936	 0.261280998818272 
937	 0.267438486827398 
938	 0.266147886389913 
939	 0.2625513251704 
940	 0.259255408064822 
941	 0.260206533240419 
942	 0.260018594351129 
943	 0.255497529444924 
944	 0.255565351884731 
945	 0.259314768604596 
946	 0.263259236891433 
947	 0.264749757518408 
948	 0.263118193988165 
949	 0.258955532925342 
950	 0.256054087118257 
951	 0.255877614258503 
952	 0.25561586700821 
953	 0.255297066013773 
954	 0.255156844371883 
955	 0.25602020809701 
956	 0.256721763912785 
957	 0.255024690414478 
958	 0.254085991551709 
959	 0.254310443594002 
960	 0.253521328835819 
961	 0.255855133163868 
962	 0.261289171487239 
963	 0.259456298993753 
964	 0.255285678195311 
965	 0.25443153835317 
966	 0.25491441407176 
967	 0.256577145480973 
968	 0.259891121635095 
969	 0.260820151664888 
970	 0.258934514322468 
971	 0.257047150066596 
972	 0.257090137754659 
973	 0.259294444107189 
974	 0.257653830749371 
975	 0.255438997956188 
976	 0.256799442061742 
977	 0.258581161182174 
978	 0.259254652876329 
979	 0.25677547777053 
980	 0.25711532561976 
981	 0.260893867069365 
982	 0.263664199405426 
983	 0.263625694472657 
984	 0.26050262642616 
985	 0.258991642301849 
986	 0.258781206970801 
987	 0.25891443464819 
988	 0.25806749382696 
989	 0.257095868746707 
990	 0.258177466988156 
991	 0.260864290954939 
992	 0.263787112994385 
993	 0.262524176871677 
994	 0.26140124153972 
995	 0.262007028367583 
996	 0.259621138806649 
997	 0.257220837275232 
998	 0.257761069264801 
999	 0.256041261602579 
1000	 0.255961477560015 
1001	 0.265564846288877 
1002	 0.270556813524444 
1003	 0.26748773864424 
1004	 0.256912610063486 
1005	 0.254630759884483 
1006	 0.263940601662977 
1007	 0.262701347616098 
1008	 0.260050359837227 
1009	 0.262859782574105 
1010	 0.259010709673778 
1011	 0.255225536936473 
1012	 0.262081947774006 
1013	 0.26592105510111 
1014	 0.264903995277923 
1015	 0.262412250409366 
1016	 0.257177067042574 
1017	 0.251745517578 
1018	 0.255304243272426 
1019	 0.264781107962597 
1020	 0.274899061149761 
1021	 0.268969379932766 
1022	 0.259413805967853 
1023	 0.259989167554321 
1024	 0.2652883300739 
1025	 0.268234357564941 
1026	 0.25932618512604 
1027	 0.259855563784595 
1028	 0.268085967754772 
1029	 0.262407078404788 
1030	 0.254134699765689 
1031	 0.250371446008414 
1032	 0.265143913584757 
1033	 0.274681790963921 
1034	 0.265712248581292 
1035	 0.257704946664186 
1036	 0.257660747136714 
1037	 0.269195122836989 
1038	 0.270974550193368 
1039	 0.264483497171485 
1040	 0.259283504467383 
1041	 0.258991570159346 
1042	 0.263720967826154 
1043	 0.270864920995146 
1044	 0.267503269624731 
1045	 0.255893001879066 
1046	 0.269691856338229 
1047	 0.27241243322504 
1048	 0.248204765979697 
1049	 0.24393260276162 
1050	 0.254295142439328 
1051	 0.267719827757727 
1052	 0.253064424911816 
1053	 0.233818871350774 
1054	 0.252716444645386 
1055	 0.262461818658369 
1056	 0.256420094144754 
1057	 0.243750452917723 
1058	 0.244121499546649 
1059	 0.259293052393219 
1060	 0.264700871446704 
1061	 0.285812741969962 
1062	 0.317529441394248 
1063	 0.27963916721291 
1064	 0.247611189561608 
1065	 0.273791246029883 
1066	 0.278691512966271 
1067	 0.267609290435963 
1068	 0.255903636778736 
1069	 0.258211347304628 
1070	 0.268061728347099 
1071	 0.269670502983587 
1072	 0.254402233398881 
1073	 0.237196564782143 
1074	 0.258630901165215 
1075	 0.263620746631854 
