Wavelength	SHSI00293.asd
325	 0.124787368262901 
326	 0.1151765285793 
327	 9.73107272062413E-02 
328	 0.100835867054436 
329	 0.107397635541904 
330	 0.109672998363766 
331	 0.109718413735654 
332	 0.107988539424941 
333	 0.104917723909177 
334	 0.101955755401319 
335	 0.100609716595934 
336	 0.103823401089999 
337	 0.103856095154308 
338	 0.10038685090508 
339	 0.103929950664265 
340	 0.107423875044392 
341	 0.105408059172328 
342	 0.105730877420563 
343	 0.108757324291736 
344	 0.11320859453963 
345	 0.114945513934608 
346	 0.113543463638788 
347	 0.11202384155024 
348	 0.111536778504459 
349	 0.112429983689175 
350	 0.11111539600003 
351	 0.110055840433822 
352	 0.114192721140915 
353	 0.11173695621671 
354	 0.10474807863139 
355	 0.111901081390946 
356	 0.119213659889928 
357	 0.118403913930474 
358	 0.11785679417937 
359	 0.117798788451385 
360	 0.117056615640266 
361	 0.115823334735351 
362	 0.114145633039851 
363	 0.111713443998953 
364	 0.110019118479783 
365	 0.11019278982132 
366	 0.113864727820961 
367	 0.118116743071272 
368	 0.118872467184751 
369	 0.119917298255096 
370	 0.121269747188924 
371	 0.11951925366925 
372	 0.119699066754969 
373	 0.123316118715108 
374	 0.120525811964372 
375	 0.11529104229002 
376	 0.114336147956199 
377	 0.113269207591465 
378	 0.112308105679305 
379	 0.11541880513415 
380	 0.117702741181141 
381	 0.116946699993165 
382	 0.117539183241508 
383	 0.117699921183704 
384	 0.114643178992652 
385	 0.113503600355501 
386	 0.113853885607271 
387	 0.110348583132299 
388	 0.107900657306004 
389	 0.108377081388963 
390	 0.108575602942425 
391	 0.109914958917842 
392	 0.114232111131516 
393	 0.113731768026831 
394	 0.109425707516016 
395	 0.109522760804487 
396	 0.108907813189001 
397	 0.106095668463545 
398	 0.104399091119715 
399	 0.103641047365626 
400	 0.103316866569134 
401	 0.102848396189602 
402	 0.102944118089308 
403	 0.10613265847638 
404	 0.108002217785696 
405	 0.107173688393102 
406	 0.107753737506128 
407	 0.108820277272132 
408	 0.10880719322083 
409	 0.107739723492315 
410	 0.106357496864156 
411	 0.106644429736685 
412	 0.107179495519709 
413	 0.107212208911821 
414	 0.106612079763102 
415	 0.106078638107567 
416	 0.106511081175933 
417	 0.106613337722863 
418	 0.106292459091151 
419	 0.106271264589024 
420	 0.106262324380719 
421	 0.106120551059102 
422	 0.105825190321468 
423	 0.105905541950372 
424	 0.107137101486268 
425	 0.107408492335518 
426	 0.106738847100253 
427	 0.107401734940843 
428	 0.107878064709336 
429	 0.107236712466288 
430	 0.106534857803323 
431	 0.105978475399436 
432	 0.105667708680868 
433	 0.10506632075909 
434	 0.104298028555483 
435	 0.104154797367187 
436	 0.104834519605679 
437	 0.106230970418016 
438	 0.106231360041395 
439	 0.105540803922313 
440	 0.106035696408602 
441	 0.106552190523783 
442	 0.106742133250767 
443	 0.106558875944833 
444	 0.106509991942926 
445	 0.10699553091831 
446	 0.10773418051627 
447	 0.108342432633595 
448	 0.108084793134487 
449	 0.107915760893435 
450	 0.108203816019602 
451	 0.108887709792041 
452	 0.109761217754749 
453	 0.110587610642461 
454	 0.110902849602461 
455	 0.110784234678678 
456	 0.110660940050471 
457	 0.110875277819951 
458	 0.11141175038468 
459	 0.111095328646497 
460	 0.11071074922629 
461	 0.111269683550556 
462	 0.111684649777289 
463	 0.111847383503596 
464	 0.112224716389948 
465	 0.112639616801523 
466	 0.112981098058346 
467	 0.113184676522914 
468	 0.113207799616884 
469	 0.113014161711672 
470	 0.112576425177661 
471	 0.112180317699803 
472	 0.112696102856313 
473	 0.113523870908543 
474	 0.114165164401538 
475	 0.113982940159585 
476	 0.113545599731676 
477	 0.114018321040902 
478	 0.114089098870691 
479	 0.113707299093409 
480	 0.114241064062526 
481	 0.115040698886545 
482	 0.115541309530731 
483	 0.115820544044731 
484	 0.116029266545297 
485	 0.116570972946819 
486	 0.116819056615827 
487	 0.11649644397583 
488	 0.115491176084794 
489	 0.114680991963482 
490	 0.114906454565577 
491	 0.115593907863486 
492	 0.11626767925197 
493	 0.116002481149276 
494	 0.115931193605049 
495	 0.116447333582775 
496	 0.116551341873845 
497	 0.116822771466579 
498	 0.118115132993474 
499	 0.118847718234776 
500	 0.118876826835962 
501	 0.119203605082013 
502	 0.119471775899539 
503	 0.119519523252525 
504	 0.119716660460477 
505	 0.120091214354127 
506	 0.120582826550143 
507	 0.121379427315206 
508	 0.122412228159487 
509	 0.123180847791797 
510	 0.124087142601823 
511	 0.125382130488831 
512	 0.126005487660638 
513	 0.126273147678141 
514	 0.127343267560541 
515	 0.12834374939257 
516	 0.128975706791435 
517	 0.129435091338584 
518	 0.129817141953018 
519	 0.130209141304383 
520	 0.130456090804575 
521	 0.130733376426769 
522	 0.131510206543938 
523	 0.132563700662883 
524	 0.133783384663102 
525	 0.13516147254717 
526	 0.136425533498598 
527	 0.137222008178189 
528	 0.137384900910512 
529	 0.137301922961875 
530	 0.138299349486362 
531	 0.139675770693254 
532	 0.140865725560628 
533	 0.141298581129603 
534	 0.14138413822701 
535	 0.142097826476188 
536	 0.142749317930588 
537	 0.143336046470119 
538	 0.144843597288646 
539	 0.146277779036005 
540	 0.14665966528017 
541	 0.146701356856239 
542	 0.146805768382043 
543	 0.147570934926412 
544	 0.148536958586976 
545	 0.149437641023349 
546	 0.149945015413338 
547	 0.150437050393994 
548	 0.1514390790411 
549	 0.15218734971765 
550	 0.152602894027552 
551	 0.153119807324161 
552	 0.153556091412026 
553	 0.153880863408885 
554	 0.154821580645993 
555	 0.155938947949428 
556	 0.156211457287798 
557	 0.156884719103367 
558	 0.158007366102225 
559	 0.157932259329973 
560	 0.157675197847314 
561	 0.15819747136894 
562	 0.158620902435342 
563	 0.158964275566192 
564	 0.159748938367704 
565	 0.160268795104547 
566	 0.16030927117315 
567	 0.160510052692951 
568	 0.160892985004834 
569	 0.161404831913329 
570	 0.161510840166263 
571	 0.161237252981868 
572	 0.161120274488165 
573	 0.161285190451266 
574	 0.161797945994382 
575	 0.162471485509719 
576	 0.162956283506445 
577	 0.162660251952468 
578	 0.162724920066734 
579	 0.163322241102861 
580	 0.163395283972695 
581	 0.163520245899095 
582	 0.164187159536808 
583	 0.164599200057558 
584	 0.164624512786435 
585	 0.164216075481709 
586	 0.164249626207581 
587	 0.16498498696957 
588	 0.16543595093922 
589	 0.165544468702846 
590	 0.165366759274733 
591	 0.164929788059806 
592	 0.164543930390762 
593	 0.165062010274004 
594	 0.165498032803267 
595	 0.165372648390921 
596	 0.165831162053168 
597	 0.166725939518465 
598	 0.167614221734816 
599	 0.167658170493656 
600	 0.166932329298388 
601	 0.167056710130687 
602	 0.167508791386528 
603	 0.167746934719638 
604	 0.167538902941885 
605	 0.167271770763376 
606	 0.168185562785125 
607	 0.168481313211854 
608	 0.16762959613466 
609	 0.167282021671897 
610	 0.167226704191911 
611	 0.167007198932104 
612	 0.167191893167092 
613	 0.167471857471784 
614	 0.16628465936955 
615	 0.165730061695545 
616	 0.166842343523271 
617	 0.166802707157931 
618	 0.165864790952517 
619	 0.165093488380384 
620	 0.164974672420077 
621	 0.165536505086279 
622	 0.166048053229598 
623	 0.166163876509119 
624	 0.165650792883972 
625	 0.165404988538614 
626	 0.165499891727977 
627	 0.165603367866637 
628	 0.165789353118039 
629	 0.166087807450351 
630	 0.166654615140658 
631	 0.167042011534034 
632	 0.166707240902866 
633	 0.166463433785078 
634	 0.166535980932609 
635	 0.166957232906118 
636	 0.167184903885607 
637	 0.166990620386748 
638	 0.167440820001682 
639	 0.168086685708501 
640	 0.16786370684851 
641	 0.167908896996229 
642	 0.168378063364039 
643	 0.168329449378253 
644	 0.168283626459796 
645	 0.168673503381404 
646	 0.168574541009303 
647	 0.168185337930392 
648	 0.168477004784442 
649	 0.168864010124317 
650	 0.168997999068349 
651	 0.168372998870614 
652	 0.167489240604536 
653	 0.166982972665078 
654	 0.167035095413195 
655	 0.167144224934592 
656	 0.165482944720638 
657	 0.163431149317343 
658	 0.161962011954371 
659	 0.160798756738243 
660	 0.159882688914862 
661	 0.159238473926838 
662	 0.158226909182783 
663	 0.156690366379314 
664	 0.154948874497127 
665	 0.153153783183042 
666	 0.15148390584492 
667	 0.150595987576597 
668	 0.150238417627805 
669	 0.149614078294679 
670	 0.148502186749109 
671	 0.147071839148694 
672	 0.146993761327946 
673	 0.147115784753839 
674	 0.146008326271747 
675	 0.145552757780904 
676	 0.145899091800731 
677	 0.146088001590069 
678	 0.146636889160228 
679	 0.14773471486218 
680	 0.148682550803519 
681	 0.149724200117946 
682	 0.151382154711745 
683	 0.153306980312938 
684	 0.155392225295587 
685	 0.157721450990769 
686	 0.160526545321735 
687	 0.163946582664072 
688	 0.167522087176509 
689	 0.170945979783005 
690	 0.17452109597033 
691	 0.1785316785794 
692	 0.183121350044252 
693	 0.188184954593495 
694	 0.192894785114251 
695	 0.196275641628714 
696	 0.20018829185294 
697	 0.204726866079849 
698	 0.209320700425552 
699	 0.21342663738874 
700	 0.216769306045838 
701	 0.22027693292851 
702	 0.223774560851885 
703	 0.2268958154775 
704	 0.230330631460274 
705	 0.233995482818345 
706	 0.236956081990952 
707	 0.239424226708841 
708	 0.24159005148322 
709	 0.243860177288824 
710	 0.24639638471222 
711	 0.249377736361313 
712	 0.251962958926224 
713	 0.253953448872975 
714	 0.255964700991373 
715	 0.257620717093448 
716	 0.258722272253092 
717	 0.261014166476899 
718	 0.264271826491606 
719	 0.266005180547947 
720	 0.267112481228072 
721	 0.268042714697292 
722	 0.269197425644016 
723	 0.270824916944208 
724	 0.273094941608213 
725	 0.274854424160681 
726	 0.276025625072304 
727	 0.27783915995854 
728	 0.279283420785545 
729	 0.280064627963175 
730	 0.281926204037178 
731	 0.283764172770574 
732	 0.283856271974728 
733	 0.284198364246915 
734	 0.285233832502234 
735	 0.286744330949727 
736	 0.288067036225928 
737	 0.288795938985229 
738	 0.290054835925374 
739	 0.291535363694762 
740	 0.292352367187965 
741	 0.293273560604297 
742	 0.294404948492912 
743	 0.295229197718646 
744	 0.295770942462123 
745	 0.296117506380253 
746	 0.296778557718306 
747	 0.297821417001523 
748	 0.299252142304059 
749	 0.300282613931242 
750	 0.300757156798826 
751	 0.301723167611055 
752	 0.302825555793903 
753	 0.303605653255171 
754	 0.303988291323862 
755	 0.304317732431392 
756	 0.305896343582254 
757	 0.305909088985113 
758	 0.303450734675697 
759	 0.302693427420132 
760	 0.305426808626223 
761	 0.312595742435562 
762	 0.31541656964836 
763	 0.314158759869668 
764	 0.316512271502753 
765	 0.318114806541266 
766	 0.317721171969198 
767	 0.317218951034287 
768	 0.316951647366737 
769	 0.317122098779812 
770	 0.31783775257077 
771	 0.318914455924756 
772	 0.319598751077446 
773	 0.320237895126514 
774	 0.32110169467913 
775	 0.322425643297949 
776	 0.323747937962156 
777	 0.324224956137625 
778	 0.324533042745302 
779	 0.325038083020675 
780	 0.326290844813867 
781	 0.32753946261277 
782	 0.32819433806917 
783	 0.328759901037952 
784	 0.329532260029823 
785	 0.331046143093373 
786	 0.331720033852801 
787	 0.331369642524404 
788	 0.331830520279747 
789	 0.332842833397316 
790	 0.334029858504584 
791	 0.334891491636624 
792	 0.335565795869667 
793	 0.336720451913715 
794	 0.337630090825502 
795	 0.338120614253239 
796	 0.338701673574762 
797	 0.339311077702765 
798	 0.339872924251219 
799	 0.340604161101292 
800	 0.34159315995725 
801	 0.342968506878448 
802	 0.34424334339294 
803	 0.345142822874605 
804	 0.345571167254777 
805	 0.345781660074315 
806	 0.346071279116128 
807	 0.346535915193581 
808	 0.347234675670538 
809	 0.348283131901273 
810	 0.349063324206848 
811	 0.349406007353895 
812	 0.350311938373628 
813	 0.35105656235266 
814	 0.350646099612538 
815	 0.35210526004304 
816	 0.355293530041509 
817	 0.357247150391174 
818	 0.358368147686399 
819	 0.358803809506516 
820	 0.358497854132105 
821	 0.358783201040799 
822	 0.36115275011827 
823	 0.364259622684531 
824	 0.366436131339554 
825	 0.364407210128309 
826	 0.362744522897156 
827	 0.363360642280748 
828	 0.364801004774474 
829	 0.366527071915095 
830	 0.367982356037834 
831	 0.368944865762257 
832	 0.369411609034564 
833	 0.369449292216537 
834	 0.370232349501823 
835	 0.371930813640227 
836	 0.372221421271259 
837	 0.372013993710317 
838	 0.372555321538732 
839	 0.373616887425023 
840	 0.374867103398349 
841	 0.3755057914554 
842	 0.376015436194166 
843	 0.37652040497465 
844	 0.376602041948324 
845	 0.37634613492134 
846	 0.37594424640106 
847	 0.376734655878116 
848	 0.37835956813552 
849	 0.379064104873035 
850	 0.378929146344477 
851	 0.378451232853092 
852	 0.380392013846097 
853	 0.382993936263585 
854	 0.38413270647602 
855	 0.38481158134611 
856	 0.384849990290441 
857	 0.383118495585561 
858	 0.382803081675708 
859	 0.384552693359492 
860	 0.385426823474778 
861	 0.385474590436838 
862	 0.384970804226783 
863	 0.384773268213834 
864	 0.385418441936138 
865	 0.387648674498846 
866	 0.390201946108594 
867	 0.392051771382646 
868	 0.39110225084372 
869	 0.391057891052048 
870	 0.394458993078226 
871	 0.39463162834779 
872	 0.392978227851725 
873	 0.394188331862309 
874	 0.395357543326757 
875	 0.396077292805672 
876	 0.398144313398408 
877	 0.400044453522686 
878	 0.400920866461494 
879	 0.403147436302448 
880	 0.40558047850279 
881	 0.405876231878356 
882	 0.407285543533779 
883	 0.409697342884858 
884	 0.409328031223194 
885	 0.40999090492538 
886	 0.413185870528206 
887	 0.413357300649845 
888	 0.412374423778967 
889	 0.413455245740387 
890	 0.41448321945734 
891	 0.414796051603133 
892	 0.413775235805671 
893	 0.412722721633784 
894	 0.412756060107163 
895	 0.415910118591433 
896	 0.419680263645803 
897	 0.42099696455055 
898	 0.423927141985655 
899	 0.428035877095712 
900	 0.430278585017078 
901	 0.431447860290016 
902	 0.431424104053508 
903	 0.428563538177592 
904	 0.426373399544444 
905	 0.427461722812071 
906	 0.429236060095155 
907	 0.431406735751046 
908	 0.434200298648915 
909	 0.435748737678037 
910	 0.435434485645218 
911	 0.432938104847083 
912	 0.433335817691909 
913	 0.438806726535953 
914	 0.443103478344951 
915	 0.444312446106477 
916	 0.441379172467642 
917	 0.442242280287144 
918	 0.445214209357783 
919	 0.44058474377212 
920	 0.437731135854447 
921	 0.439138825469179 
922	 0.439607983050949 
923	 0.439079341848632 
924	 0.437640558467283 
925	 0.434839848029729 
926	 0.431492424689803 
927	 0.429363640369416 
928	 0.429177724360769 
929	 0.431436663026916 
930	 0.436411198351526 
931	 0.439774278384416 
932	 0.439036147812583 
933	 0.449113495513648 
934	 0.461367071861434 
935	 0.460209172950608 
936	 0.454134225759534 
937	 0.446337360295588 
938	 0.437253486754948 
939	 0.435465222530074 
940	 0.440843062862892 
941	 0.4410209041258 
942	 0.439675860819335 
943	 0.439979658566791 
944	 0.442978403631788 
945	 0.445595787322981 
946	 0.442797362911944 
947	 0.441403318967646 
948	 0.441973720934747 
949	 0.440414456773999 
950	 0.436297232333293 
951	 0.431922065026002 
952	 0.440853905787151 
953	 0.450116098548873 
954	 0.448051251665007 
955	 0.442384402856219 
956	 0.436700005541087 
957	 0.434331109901613 
958	 0.440424545300455 
959	 0.45162772484085 
960	 0.453741063232375 
961	 0.451994050734125 
962	 0.449472424988329 
963	 0.446972146874849 
964	 0.445839282188392 
965	 0.44695361386014 
966	 0.44698513278592 
967	 0.443772358295347 
968	 0.434043266080292 
969	 0.429460490117117 
970	 0.431811232296151 
971	 0.434177011753426 
972	 0.436687515776946 
973	 0.439629978548252 
974	 0.44484123989296 
975	 0.450324743581225 
976	 0.453713450860253 
977	 0.455684782664826 
978	 0.45557569245118 
979	 0.451642089564538 
980	 0.450045331262596 
981	 0.451115577755761 
982	 0.447555713442263 
983	 0.446068972596317 
984	 0.449469329270376 
985	 0.450783634814056 
986	 0.452358203873777 
987	 0.45679326860879 
988	 0.456232625334725 
989	 0.45149564678405 
990	 0.446505194482508 
991	 0.451960719683071 
992	 0.464387814843616 
993	 0.459674737985224 
994	 0.451437853518843 
995	 0.447492153545841 
996	 0.448930413635699 
997	 0.451970731851159 
998	 0.452794531914254 
999	 0.453359535219666 
1000	 0.456080371261325 
1001	 0.464705930907051 
1002	 0.466588236357419 
1003	 0.462398772292398 
1004	 0.466631212563214 
1005	 0.467946638333565 
1006	 0.463965921090928 
1007	 0.467092107422828 
1008	 0.46943074990034 
1009	 0.465088648605926 
1010	 0.462472492384354 
1011	 0.460465768662346 
1012	 0.456695289043894 
1013	 0.464140164333627 
1014	 0.476742543614003 
1015	 0.47256754386854 
1016	 0.469927415285487 
1017	 0.4725051624245 
1018	 0.470317150621256 
1019	 0.473289432455047 
1020	 0.483148831644699 
1021	 0.475659201463223 
1022	 0.461674127376727 
1023	 0.45559118686259 
1024	 0.469294255323865 
1025	 0.483977584341003 
1026	 0.466564007562667 
1027	 0.45845544947512 
1028	 0.464137047751768 
1029	 0.463466852398398 
1030	 0.459772045693572 
1031	 0.457446253406259 
1032	 0.474148698410117 
1033	 0.487211075346411 
1034	 0.481825326885484 
1035	 0.465368069693988 
1036	 0.455632839639303 
1037	 0.470152374001541 
1038	 0.48856089002273 
1039	 0.495589358964728 
1040	 0.474046908072242 
1041	 0.463032524711956 
1042	 0.466676788041772 
1043	 0.46792618725511 
1044	 0.465948505278516 
1045	 0.463168706920716 
1046	 0.475284634476307 
1047	 0.484609498507809 
1048	 0.4792591331035 
1049	 0.460806034355121 
1050	 0.446277674203438 
1051	 0.453143642247808 
1052	 0.477336925649438 
1053	 0.496650783121243 
1054	 0.47741238233743 
1055	 0.465145645450634 
1056	 0.464298254267799 
1057	 0.464702633754628 
1058	 0.446690440658053 
1059	 0.421656074419975 
1060	 0.450373758980678 
1061	 0.478226394380974 
1062	 0.475105520925529 
1063	 0.436308101767908 
1064	 0.432716302578827 
1065	 0.49870497586656 
1066	 0.486246222950697 
1067	 0.443750585685529 
1068	 0.437553435970822 
1069	 0.441337302666286 
1070	 0.437587768729935 
1071	 0.402868038768115 
1072	 0.409839500664855 
1073	 0.447521226763719 
1074	 0.45143977950691 
1075	 0.46070798610359 
