Wavelength	SHSI00266.asd
325	 8.00595139174312E-02 
326	 6.95873801521044E-02 
327	 6.69571011985529E-02 
328	 8.95245707169097E-02 
329	 9.70729224667704E-02 
330	 8.01061670316786E-02 
331	 7.45455406977859E-02 
332	 7.91165223859082E-02 
333	 8.92353365713476E-02 
334	 9.08718880724458E-02 
335	 8.66112990801308E-02 
336	 8.97966338022032E-02 
337	 0.087897911273913 
338	 7.94542411310167E-02 
339	 0.073954302046574 
340	 7.49259656047097E-02 
341	 8.34152897276319E-02 
342	 8.55703563166164E-02 
343	 8.40454172521118E-02 
344	 8.87057422511688E-02 
345	 8.81195608063889E-02 
346	 0.082209987221199 
347	 8.16865216020042E-02 
348	 0.08383237936787 
349	 8.60651318366271E-02 
350	 8.48235056707479E-02 
351	 8.34082853188153E-02 
352	 8.79897551539233E-02 
353	 0.087656768168912 
354	 8.28480220314355E-02 
355	 8.51296953123814E-02 
356	 8.98207688475913E-02 
357	 0.093332975030076 
358	 9.26025539191246E-02 
359	 9.02911699595224E-02 
360	 9.09175631208654E-02 
361	 9.07444159121599E-02 
362	 8.93015983983008E-02 
363	 8.78323481951728E-02 
364	 8.70163777626062E-02 
365	 8.70632094923577E-02 
366	 8.63588874236555E-02 
367	 8.62586748363394E-02 
368	 0.088803083955363 
369	 9.01473503334353E-02 
370	 8.99537466018159E-02 
371	 9.02875388706082E-02 
372	 9.14171870213853E-02 
373	 9.31019382408496E-02 
374	 9.29150705824613E-02 
375	 9.06648814906131E-02 
376	 8.65990993793993E-02 
377	 8.57695769249267E-02 
378	 8.80805866550956E-02 
379	 8.91742642184143E-02 
380	 8.92468487710339E-02 
381	 8.84056838642406E-02 
382	 8.77492690216954E-02 
383	 8.67920865391708E-02 
384	 8.47731036649819E-02 
385	 8.51405982656222E-02 
386	 8.77885927552227E-02 
387	 9.02720524438074E-02 
388	 9.10827715469824E-02 
389	 8.95805868880952E-02 
390	 0.086421192902716 
391	 8.45006296234525E-02 
392	 8.69094728854774E-02 
393	 8.74381702740495E-02 
394	 8.54902911169005E-02 
395	 8.32888562291685E-02 
396	 8.32608756323691E-02 
397	 8.54876880368827E-02 
398	 8.51628924655547E-02 
399	 0.083996259561219 
400	 8.40415241562985E-02 
401	 8.41135418150521E-02 
402	 8.42221196109444E-02 
403	 8.50137436505302E-02 
404	 8.53412220940413E-02 
405	 8.49343603272152E-02 
406	 8.53477871533538E-02 
407	 8.60848456426588E-02 
408	 8.63740241676783E-02 
409	 0.085603206724539 
410	 0.084312725336126 
411	 8.42341163895246E-02 
412	 8.50017495617573E-02 
413	 8.60934339513778E-02 
414	 8.54479570555427E-02 
415	 8.44747595278203E-02 
416	 8.52206474456079E-02 
417	 0.085238554942642 
418	 0.084592671296102 
419	 8.53648263118666E-02 
420	 8.58512350691278E-02 
421	 0.085293398551541 
422	 8.52862660296787E-02 
423	 8.55857249500019E-02 
424	 8.55754806658163E-02 
425	 8.55339040292959E-02 
426	 8.55957886401895E-02 
427	 8.60693554689147E-02 
428	 8.62948493877208E-02 
429	 8.58907070005318E-02 
430	 0.085533327974902 
431	 8.53740251200973E-02 
432	 8.54974289397197E-02 
433	 8.54077470296643E-02 
434	 8.50619895668631E-02 
435	 8.46444147520938E-02 
436	 8.51039210390797E-02 
437	 8.67871568139747E-02 
438	 8.67962166605544E-02 
439	 0.085849958579408 
440	 8.60546719187414E-02 
441	 8.62338815899872E-02 
442	 8.61746922056607E-02 
443	 8.62943885031034E-02 
444	 8.66823230752076E-02 
445	 8.73412186841992E-02 
446	 8.75896449484779E-02 
447	 8.75055708275094E-02 
448	 8.74940958001598E-02 
449	 8.77490763099918E-02 
450	 8.81973669381264E-02 
451	 0.087950438616788 
452	 8.79108158699324E-02 
453	 8.89568166485282E-02 
454	 8.96394933247587E-02 
455	 8.98293476121887E-02 
456	 9.00569747715095E-02 
457	 9.01191310562251E-02 
458	 0.090025387903274 
459	 9.00724577546325E-02 
460	 9.06036717392762E-02 
461	 9.19264759769511E-02 
462	 0.091574289054025 
463	 9.00680061954617E-02 
464	 0.090786556023678 
465	 9.18559227060799E-02 
466	 9.22873314433322E-02 
467	 9.23233065634657E-02 
468	 9.22680153521394E-02 
469	 9.25513954812952E-02 
470	 9.22341013037776E-02 
471	 9.16207578142212E-02 
472	 9.25739417881308E-02 
473	 9.37125409467186E-02 
474	 9.41204824200924E-02 
475	 9.40858457088814E-02 
476	 9.39321751579891E-02 
477	 9.41717956540487E-02 
478	 9.41587941306367E-02 
479	 9.39166057899114E-02 
480	 9.42525945893617E-02 
481	 9.49275026237398E-02 
482	 9.56642466145318E-02 
483	 9.57471642238842E-02 
484	 9.54535569805394E-02 
485	 9.57887301904307E-02 
486	 9.60071829064583E-02 
487	 9.58782997282001E-02 
488	 9.56355528699481E-02 
489	 9.54457569719087E-02 
490	 9.54776100567825E-02 
491	 9.62221874577501E-02 
492	 9.72051092290538E-02 
493	 9.69403916921112E-02 
494	 9.66319979348467E-02 
495	 9.68144184132837E-02 
496	 9.72555678113765E-02 
497	 9.77584020795437E-02 
498	 9.80939242295807E-02 
499	 9.86761419126428E-02 
500	 9.93511078317026E-02 
501	 9.92931479033971E-02 
502	 9.91197068246921E-02 
503	 9.92529492330215E-02 
504	 9.97783687980547E-02 
505	 0.10042223039029 
506	 0.100697331020622 
507	 0.101248429823195 
508	 0.102173563724394 
509	 0.103101097310989 
510	 0.103959086344768 
511	 0.10466824511476 
512	 0.104904787715699 
513	 0.104958264129525 
514	 0.105575913121772 
515	 0.106376352366484 
516	 0.107131394997277 
517	 0.107341562681872 
518	 0.107637733519944 
519	 0.108661407204443 
520	 0.108608825902227 
521	 0.107986376529037 
522	 0.10909280077287 
523	 0.110342716944251 
524	 0.111076178546342 
525	 0.112043901242062 
526	 0.112936218108813 
527	 0.113220793282008 
528	 0.113541378354077 
529	 0.114068912185618 
530	 0.11475356858339 
531	 0.115423879682917 
532	 0.115967685732492 
533	 0.116505681215228 
534	 0.117026063334652 
535	 0.117482795010806 
536	 0.117826704100554 
537	 0.118121166593549 
538	 0.118648738350452 
539	 0.119442212637415 
540	 0.12046269648154 
541	 0.12076645018955 
542	 0.120682549115527 
543	 0.121596482100407 
544	 0.122589056063109 
545	 0.123224401343141 
546	 0.123327487105313 
547	 0.123409592457917 
548	 0.124142978034155 
549	 0.124893313339275 
550	 0.125485202667543 
551	 0.125935963057352 
552	 0.126248564457213 
553	 0.126490898267549 
554	 0.127233671162176 
555	 0.128005484575975 
556	 0.127728982493932 
557	 0.128078653458466 
558	 0.129290523772513 
559	 0.129805891705748 
560	 0.129989153864415 
561	 0.130248788929103 
562	 0.130626595000528 
563	 0.131076260350341 
564	 0.131428650291428 
565	 0.131701288795251 
566	 0.131939822950446 
567	 0.132386160968257 
568	 0.132935740971936 
569	 0.133427130591694 
570	 0.13344410224135 
571	 0.133194176533757 
572	 0.133765781500333 
573	 0.134247828973315 
574	 0.134141800636861 
575	 0.134168149124916 
576	 0.134449716442253 
577	 0.135033902941767 
578	 0.13551802144701 
579	 0.135746327565304 
580	 0.135705607883791 
581	 0.135874956790994 
582	 0.136615890968886 
583	 0.13692275299213 
584	 0.136916917236303 
585	 0.137410680462494 
586	 0.137931304825318 
587	 0.138222625233735 
588	 0.137860237066193 
589	 0.137600980491706 
590	 0.138454034884087 
591	 0.138843660423235 
592	 0.138659697138172 
593	 0.138833797476674 
594	 0.139220088817038 
595	 0.139701355511752 
596	 0.139880295930213 
597	 0.140148676357581 
598	 0.141365295347673 
599	 0.141683934534475 
600	 0.140949744095411 
601	 0.141171998147762 
602	 0.141711275666313 
603	 0.141946598490734 
604	 0.142213708417856 
605	 0.142472753898963 
606	 0.142493452043204 
607	 0.142552329875893 
608	 0.142733849227129 
609	 0.142852898738845 
610	 0.142748479919352 
611	 0.142255238487093 
612	 0.142301035220846 
613	 0.142698822990779 
614	 0.141976899553132 
615	 0.141359288642562 
616	 0.141547954365033 
617	 0.141676303532651 
618	 0.141676812133206 
619	 0.141636505308131 
620	 0.141702806483313 
621	 0.141870253429766 
622	 0.14187619048223 
623	 0.141898911321355 
624	 0.142093845738878 
625	 0.142212005806919 
626	 0.142285252700402 
627	 0.142500406607154 
628	 0.142813754994548 
629	 0.143229664445239 
630	 0.143951955261873 
631	 0.144357925365449 
632	 0.143697803143924 
633	 0.143535917401506 
634	 0.143953964885609 
635	 0.143809541898746 
636	 0.143813661598274 
637	 0.14436126566632 
638	 0.145064272523988 
639	 0.145743573381043 
640	 0.146194649353975 
641	 0.146553241832475 
642	 0.146819287432924 
643	 0.146833235086084 
644	 0.146806444282415 
645	 0.146939362007446 
646	 0.147286470936484 
647	 0.147700122767939 
648	 0.14781082705642 
649	 0.147670511077939 
650	 0.14736429307473 
651	 0.147254958433707 
652	 0.147279249167193 
653	 0.147312760241431 
654	 0.146704089779487 
655	 0.145577413810248 
656	 0.145191279119896 
657	 0.144569580144949 
658	 0.143234707682476 
659	 0.14183120473728 
660	 0.140708793865426 
661	 0.140341778420795 
662	 0.139821866096308 
663	 0.138772316232714 
664	 0.136935437067156 
665	 0.13513659327066 
666	 0.134067401487318 
667	 0.133361171212378 
668	 0.132738286889684 
669	 0.131674529675603 
670	 0.130642802131146 
671	 0.129927977315252 
672	 0.130056152333289 
673	 0.130202473379955 
674	 0.12941816368032 
675	 0.1294060694301 
676	 0.130106593467249 
677	 0.130090879946428 
678	 0.130196920389849 
679	 0.130857494567597 
680	 0.131762612542007 
681	 0.13279892064596 
682	 0.133834294956959 
683	 0.135425082250369 
684	 0.13753960947912 
685	 0.139443979323425 
686	 0.141788683443358 
687	 0.145075093005323 
688	 0.148396858052207 
689	 0.151199595856945 
690	 0.153388826710602 
691	 0.156171075098838 
692	 0.159848941772788 
693	 0.163353057292911 
694	 0.167029259960154 
695	 0.171060340552996 
696	 0.173779853763504 
697	 0.175744697166977 
698	 0.17953975036737 
699	 0.182823592235499 
700	 0.184645602516058 
701	 0.186996690774598 
702	 0.189790677244144 
703	 0.192618863827707 
704	 0.194807759234211 
705	 0.196402749813055 
706	 0.198128256360736 
707	 0.199791583372391 
708	 0.201288262874154 
709	 0.20284537374858 
710	 0.2044044697602 
711	 0.205766121395675 
712	 0.207370942451678 
713	 0.20914279504452 
714	 0.210262966736807 
715	 0.210817247648916 
716	 0.210968179617547 
717	 0.211341207299486 
718	 0.212229149845167 
719	 0.213780829313178 
720	 0.215031769291986 
721	 0.215673877960939 
722	 0.216585008044399 
723	 0.217665594627635 
724	 0.21867999129443 
725	 0.219158806258485 
726	 0.219458683836246 
727	 0.221237830926157 
728	 0.222532712368065 
729	 0.222596049067904 
730	 0.223694432137265 
731	 0.225241733903097 
732	 0.226097230617255 
733	 0.226760863817719 
734	 0.227421908774461 
735	 0.228324573954092 
736	 0.229049996058329 
737	 0.229377967326246 
738	 0.230171945457117 
739	 0.231399523379559 
740	 0.232799604724118 
741	 0.233782783318318 
742	 0.234233387899517 
743	 0.234670569091006 
744	 0.235045651009242 
745	 0.235318359070851 
746	 0.235562560352408 
747	 0.236007014380889 
748	 0.237231378051618 
749	 0.238054937031326 
750	 0.238228899348534 
751	 0.239071993169625 
752	 0.240005726891334 
753	 0.240340605221186 
754	 0.240586524880528 
755	 0.240942164494325 
756	 0.24182445752735 
757	 0.241805479718776 
758	 0.240413935496363 
759	 0.239823942728517 
760	 0.240579895747759 
761	 0.242843485095134 
762	 0.243441775118324 
763	 0.242929718815975 
764	 0.244926248310015 
765	 0.246924166553513 
766	 0.24798288314033 
767	 0.248881352507437 
768	 0.249626249319975 
769	 0.250116120607295 
770	 0.250231219606409 
771	 0.25021256437136 
772	 0.251009784417214 
773	 0.251806226961922 
774	 0.252122876600973 
775	 0.252906611982167 
776	 0.253801027462027 
777	 0.253942939588422 
778	 0.254166618153002 
779	 0.25475779677353 
780	 0.255774304000154 
781	 0.256663751402941 
782	 0.25701878622755 
783	 0.257461812831062 
784	 0.257986347445296 
785	 0.2583507416488 
786	 0.258695850290451 
787	 0.258980608876106 
788	 0.25871623620109 
789	 0.258720528955286 
790	 0.259709064945484 
791	 0.260477880825382 
792	 0.261013166589954 
793	 0.261929350511013 
794	 0.262534678054333 
795	 0.262659703151296 
796	 0.262767632175737 
797	 0.262980832809037 
798	 0.26339565499571 
799	 0.264038002149606 
800	 0.264843130269564 
801	 0.265650500230353 
802	 0.26636350517781 
803	 0.266897340789824 
804	 0.267212672651806 
805	 0.267222287464165 
806	 0.266904296671203 
807	 0.267647605866337 
808	 0.269119121334238 
809	 0.269563055052794 
810	 0.269710590557633 
811	 0.269764757339233 
812	 0.269189149607323 
813	 0.268463468045155 
814	 0.268299892746978 
815	 0.269295553860642 
816	 0.271026079313711 
817	 0.271583300858551 
818	 0.27230276839586 
819	 0.273490027584725 
820	 0.273482531552005 
821	 0.273447926775686 
822	 0.274848034047607 
823	 0.276633641446031 
824	 0.277926760656401 
825	 0.277183601454071 
826	 0.276688160725699 
827	 0.277383087430012 
828	 0.278476934982855 
829	 0.279210907847066 
830	 0.278820300359395 
831	 0.27985930994015 
832	 0.281827775656359 
833	 0.281720616393348 
834	 0.28108426015747 
835	 0.280812255871223 
836	 0.281925763744087 
837	 0.283364044084815 
838	 0.283853857454166 
839	 0.28382821360953 
840	 0.283763158619013 
841	 0.284818534242096 
842	 0.285484451040413 
843	 0.285316602440783 
844	 0.285897265694992 
845	 0.286451879900083 
846	 0.286047404947769 
847	 0.286559928559062 
848	 0.287588768290961 
849	 0.286836536760777 
850	 0.285975351959975 
851	 0.285856805124401 
852	 0.286903350571489 
853	 0.288356970199648 
854	 0.289362258026279 
855	 0.290803390476868 
856	 0.291660927533698 
857	 0.288700321860802 
858	 0.28804729067412 
859	 0.290837034261496 
860	 0.29107359578092 
861	 0.290193691332202 
862	 0.289901427738533 
863	 0.290003175611004 
864	 0.290560631469437 
865	 0.291634133351418 
866	 0.293140440739656 
867	 0.294655541351937 
868	 0.294738099053004 
869	 0.294674446374525 
870	 0.295450980038908 
871	 0.295430145911805 
872	 0.294862925286396 
873	 0.294600366624576 
874	 0.295427865552421 
875	 0.297272735821019 
876	 0.298734441427827 
877	 0.299508216107549 
878	 0.299647430431543 
879	 0.301348415379125 
880	 0.303358335624672 
881	 0.303156896411219 
882	 0.304117413806691 
883	 0.306073900835686 
884	 0.305115244895112 
885	 0.304322812735259 
886	 0.305294228773931 
887	 0.305904609936594 
888	 0.306642066040388 
889	 0.308374053135149 
890	 0.307357724423766 
891	 0.304145815419882 
892	 0.303092058846953 
893	 0.303139040502196 
894	 0.303916135833252 
895	 0.305194753786981 
896	 0.306896210730348 
897	 0.308844480870627 
898	 0.309519095557139 
899	 0.309652592538583 
900	 0.312170215184206 
901	 0.31305306016446 
902	 0.311459474271927 
903	 0.309872445143209 
904	 0.309227745370733 
905	 0.310061853466346 
906	 0.310571866588231 
907	 0.311447981133636 
908	 0.31458248137502 
909	 0.313284817387982 
910	 0.308466909715145 
911	 0.311527797223082 
912	 0.314741706446238 
913	 0.313932708769854 
914	 0.313107284254176 
915	 0.314181006869554 
916	 0.318668764365917 
917	 0.318969215444629 
918	 0.315552183827554 
919	 0.313747577423478 
920	 0.31502519524973 
921	 0.318430639811593 
922	 0.315395064722595 
923	 0.312448538697426 
924	 0.315105920290414 
925	 0.314172681161837 
926	 0.310080116533139 
927	 0.307064086532632 
928	 0.306118730707357 
929	 0.307837109542151 
930	 0.312120907669523 
931	 0.31123612786029 
932	 0.301186524293206 
933	 0.311364937204451 
934	 0.323515303742209 
935	 0.30547630256916 
936	 0.303359794003617 
937	 0.31486314673124 
938	 0.303266176828085 
939	 0.299457530427244 
940	 0.309125944380729 
941	 0.315793089845747 
942	 0.318022954197782 
943	 0.315508253557269 
944	 0.312965489550417 
945	 0.311917991699591 
946	 0.313403657128926 
947	 0.314635690098185 
948	 0.315459056195394 
949	 0.319430741068181 
950	 0.316136549199556 
951	 0.304143494584579 
952	 0.301899049180618 
953	 0.303851319390544 
954	 0.303683994225156 
955	 0.30288183511442 
956	 0.30415810408089 
957	 0.312038896352857 
958	 0.319363179121863 
959	 0.322365780452691 
960	 0.315230848466189 
961	 0.314653364837472 
962	 0.324672685990748 
963	 0.319998963929089 
964	 0.312346411236196 
965	 0.313983778986095 
966	 0.312074424300245 
967	 0.307706691240175 
968	 0.306615278702823 
969	 0.310394535907184 
970	 0.31671899741325 
971	 0.315009219683416 
972	 0.314426894759912 
973	 0.319112679997259 
974	 0.320900682396251 
975	 0.320119792933135 
976	 0.318461247961709 
977	 0.323413733256406 
978	 0.329413985773454 
979	 0.321609701947711 
980	 0.317432554949358 
981	 0.320903279381259 
982	 0.325829091906066 
983	 0.327163421769048 
984	 0.323243224771783 
985	 0.322298978391542 
986	 0.324413880573934 
987	 0.32809468226424 
988	 0.322455546394461 
989	 0.314293027427726 
990	 0.320759479346305 
991	 0.327903702275597 
992	 0.331162051090536 
993	 0.329421462576735 
994	 0.327194827903386 
995	 0.326864143200807 
996	 0.327791355058614 
997	 0.324150290999599 
998	 0.311865598883642 
999	 0.310024801607807 
1000	 0.317160014344816 
1001	 0.324539614699902 
1002	 0.332628163510625 
1003	 0.337300002805015 
1004	 0.326655813348392 
1005	 0.322472488039802 
1006	 0.330936036146334 
1007	 0.332278235414368 
1008	 0.331873161328738 
1009	 0.333846173938278 
1010	 0.329668039099034 
1011	 0.32909531471219 
1012	 0.345643478855984 
1013	 0.346895726598569 
1014	 0.335651448485888 
1015	 0.337149333286924 
1016	 0.329621938438846 
1017	 0.314600005679213 
1018	 0.32348355859975 
1019	 0.337756263166494 
1020	 0.344993153497692 
1021	 0.341501140754418 
1022	 0.330726341095758 
1023	 0.318810722945239 
1024	 0.324042276885336 
1025	 0.337589838134012 
1026	 0.339974352228584 
1027	 0.335123033422605 
1028	 0.328063065000434 
1029	 0.332187662546832 
1030	 0.332588232524948 
1031	 0.328729760200459 
1032	 0.343568314109525 
1033	 0.352717001657491 
1034	 0.343021876011669 
1035	 0.340335962700367 
1036	 0.337498240948196 
1037	 0.325853626890484 
1038	 0.322147133651933 
1039	 0.328600878608899 
1040	 0.343046864598589 
1041	 0.334766908583925 
1042	 0.308593295190613 
1043	 0.298937158451973 
1044	 0.310116185073796 
1045	 0.336350527399873 
1046	 0.343983612473714 
1047	 0.333326514910846 
1048	 0.309523870963302 
1049	 0.296128745112924 
1050	 0.300111619248573 
1051	 0.320173615253833 
1052	 0.303999588636471 
1053	 0.286858349495389 
1054	 0.332670440925 
1055	 0.353863450033687 
1056	 0.341470607267007 
1057	 0.313281621884814 
1058	 0.315858952762857 
1059	 0.346575781357274 
1060	 0.340858889999767 
1061	 0.327100653938418 
1062	 0.318163108899615 
1063	 0.307095013053031 
1064	 0.304672056313429 
1065	 0.313619919234757 
1066	 0.295471433447123 
1067	 0.275361328338302 
1068	 0.282490586173651 
1069	 0.312251093619398 
1070	 0.335617441511662 
1071	 0.31529851068646 
1072	 0.303888810796228 
1073	 0.307016628153533 
1074	 0.297668400142946 
1075	 0.274130132400125 
