Wavelength	SHSI00244.asd
325	 0.108909333962413 
326	 0.108016354063845 
327	 9.80107492951054E-02 
328	 9.81352363492152E-02 
329	 9.83125508073744E-02 
330	 0.096052449014603 
331	 9.88335270281073E-02 
332	 0.102434988361153 
333	 0.102570068001576 
334	 0.097590204772275 
335	 9.20953380456395E-02 
336	 9.65402338332135E-02 
337	 0.101949886456734 
338	 0.104656828569014 
339	 0.102087772742233 
340	 9.92347680019092E-02 
341	 0.100056715558584 
342	 0.101720342789557 
343	 0.103551845522217 
344	 0.105188841048107 
345	 0.106218203786091 
346	 0.107168970233386 
347	 0.111216517900268 
348	 0.111815266416425 
349	 0.105854713609007 
350	 0.104378324029155 
351	 0.10647147253979 
352	 0.108591290309207 
353	 0.108881940381933 
354	 0.10760489363979 
355	 0.107740345011578 
356	 0.109287511988057 
357	 0.111914993520582 
358	 0.113315528537278 
359	 0.113911736645641 
360	 0.114885579144618 
361	 0.114822792375977 
362	 0.113660396728262 
363	 0.11197574435372 
364	 0.111295692503301 
365	 0.112378440089527 
366	 0.114358933653965 
367	 0.116338412809857 
368	 0.117268325284412 
369	 0.117412939845132 
370	 0.117288890557091 
371	 0.118145027878309 
372	 0.11998791452574 
373	 0.122291580498274 
374	 0.122094077152599 
375	 0.119955013026131 
376	 0.117171289659674 
377	 0.113768358651438 
378	 0.11154832228188 
379	 0.115942130449385 
380	 0.11933936096081 
381	 0.118145029532751 
382	 0.11816837849809 
383	 0.117803953884048 
384	 0.114318734159153 
385	 0.114260098226324 
386	 0.116771161656426 
387	 0.114564250114276 
388	 0.112580800831658 
389	 0.112787504106759 
390	 0.112641830178713 
391	 0.113659343267883 
392	 0.117702939143072 
393	 0.117874510692818 
394	 0.114515267555049 
395	 0.113212205987176 
396	 0.112273514641938 
397	 0.111126166445267 
398	 0.110091161168151 
399	 0.109850649741753 
400	 0.110964826696717 
401	 0.111896187693993 
402	 0.112631693797171 
403	 0.114086562382325 
404	 0.115033116475621 
405	 0.115056733970997 
406	 0.114971517387578 
407	 0.115174760793381 
408	 0.116014905813589 
409	 0.114939513943917 
410	 0.112812353093092 
411	 0.113642197755903 
412	 0.114701314973031 
413	 0.114735714533461 
414	 0.114645911599079 
415	 0.114596940230952 
416	 0.114700385178356 
417	 0.114279680886898 
418	 0.113792956714952 
419	 0.11526801255435 
420	 0.116187708938096 
421	 0.115377766240236 
422	 0.114923327989868 
423	 0.115034415843528 
424	 0.115655981914373 
425	 0.115644265873237 
426	 0.115089210563742 
427	 0.115539653180491 
428	 0.116000372787316 
429	 0.115815041682966 
430	 0.115441707717936 
431	 0.114828317780336 
432	 0.113754321777249 
433	 0.11354184631214 
434	 0.114185876241712 
435	 0.114246365199158 
436	 0.114605851212118 
437	 0.11573070600373 
438	 0.116224605615871 
439	 0.116046137914092 
440	 0.115410019346328 
441	 0.115703332809373 
442	 0.116839117458731 
443	 0.116317564898296 
444	 0.116139388243788 
445	 0.117786493919471 
446	 0.118198212171856 
447	 0.117752626241212 
448	 0.118469944471106 
449	 0.118902286501389 
450	 0.118889735316339 
451	 0.120023241869982 
452	 0.121169936105461 
453	 0.12118640214767 
454	 0.121635930207253 
455	 0.122486767312417 
456	 0.12283069682914 
457	 0.122954338695888 
458	 0.122992758499336 
459	 0.123097319099461 
460	 0.123281732700215 
461	 0.123531773671023 
462	 0.123410361625727 
463	 0.123230944934871 
464	 0.124318487122733 
465	 0.125135590665534 
466	 0.12501400039952 
467	 0.125462119892653 
468	 0.12604010789973 
469	 0.125882457526451 
470	 0.125523048362067 
471	 0.125337626843971 
472	 0.125993410812085 
473	 0.127039047166643 
474	 0.128037693610567 
475	 0.12810580397103 
476	 0.127687273563084 
477	 0.127779008882044 
478	 0.12770032276403 
479	 0.127510578813825 
480	 0.12816569448326 
481	 0.128880771785875 
482	 0.129061001635949 
483	 0.12973129842862 
484	 0.13064889904302 
485	 0.130904087971372 
486	 0.130567668512461 
487	 0.129819077745183 
488	 0.129459718524909 
489	 0.129344467963604 
490	 0.129288229587547 
491	 0.130115691282709 
492	 0.131285413183189 
493	 0.131030611729129 
494	 0.130485541512259 
495	 0.130264956420799 
496	 0.130744634643471 
497	 0.131731326011342 
498	 0.132918024200645 
499	 0.133773061332457 
500	 0.134236487996099 
501	 0.13478817157116 
502	 0.134968773333829 
503	 0.13463727460677 
504	 0.134794946347653 
505	 0.135438155770171 
506	 0.136311959679034 
507	 0.137406695866709 
508	 0.138549224037843 
509	 0.139160798074443 
510	 0.13988442802771 
511	 0.141174308911448 
512	 0.141983492576642 
513	 0.142465394061087 
514	 0.143386883737182 
515	 0.144262901103354 
516	 0.144950105660658 
517	 0.145658054490578 
518	 0.146218224603014 
519	 0.146456720381933 
520	 0.146676321534521 
521	 0.147147339699663 
522	 0.148344498350177 
523	 0.149764914325629 
524	 0.151115595928249 
525	 0.152202966616316 
526	 0.15308156556907 
527	 0.153876050684808 
528	 0.154119638746551 
529	 0.154057782188852 
530	 0.154778055618416 
531	 0.155991319054756 
532	 0.157402275302927 
533	 0.158240937757677 
534	 0.158647528658862 
535	 0.159135045424765 
536	 0.159722967776132 
537	 0.160470089925141 
538	 0.161422381790453 
539	 0.162474896811928 
540	 0.163485613592782 
541	 0.163871991762672 
542	 0.163894288536645 
543	 0.164488489942331 
544	 0.165383606004908 
545	 0.166400581561067 
546	 0.167078295481416 
547	 0.167642644883586 
548	 0.168446983175001 
549	 0.169031467235806 
550	 0.169318292115228 
551	 0.169399896533885 
552	 0.169614851174611 
553	 0.170221929236088 
554	 0.171408706962364 
555	 0.17260987862074 
556	 0.172737771589545 
557	 0.17316497245392 
558	 0.174037958985779 
559	 0.173839051070292 
560	 0.173665214121499 
561	 0.174527009238913 
562	 0.175349968598098 
563	 0.1760257980618 
564	 0.176902520859068 
565	 0.17740109705787 
566	 0.177377851251187 
567	 0.177556614750161 
568	 0.177879329414822 
569	 0.17818070391079 
570	 0.178314214706309 
571	 0.178332981674744 
572	 0.178540026412243 
573	 0.178875189212746 
574	 0.179281214882694 
575	 0.179561926093998 
576	 0.179807151067073 
577	 0.180251813728227 
578	 0.180465598519501 
579	 0.1804693742961 
580	 0.180968531980507 
581	 0.181548546736518 
582	 0.18183757738677 
583	 0.182245994060203 
584	 0.182707207713228 
585	 0.18284764017028 
586	 0.183105894649204 
587	 0.183545459074371 
588	 0.18338985052967 
589	 0.183083621782665 
590	 0.183294170172392 
591	 0.183400564547732 
592	 0.183378831838735 
593	 0.183649237301065 
594	 0.183888082762666 
595	 0.183914193614204 
596	 0.183837143558343 
597	 0.183985249640165 
598	 0.184962723361134 
599	 0.185150994423772 
600	 0.184466100393471 
601	 0.184968011263358 
602	 0.185552624822856 
603	 0.185276234869662 
604	 0.185804945909013 
605	 0.1867493843743 
606	 0.186379919709211 
607	 0.185941689631705 
608	 0.185903704457086 
609	 0.185952365357628 
610	 0.185873744509346 
611	 0.18543768514363 
612	 0.18528325121708 
613	 0.18523285808032 
614	 0.184034811101081 
615	 0.183321622656476 
616	 0.183938126247318 
617	 0.183930372467063 
618	 0.183491848650147 
619	 0.18341191928934 
620	 0.183711482242835 
621	 0.184124332122598 
622	 0.18337639706766 
623	 0.182651113620125 
624	 0.183021373043958 
625	 0.183611116666004 
626	 0.184053907685607 
627	 0.1838441179213 
628	 0.183773489593194 
629	 0.18413630022642 
630	 0.184598236457504 
631	 0.184790385901995 
632	 0.184317624191072 
633	 0.184305368786372 
634	 0.18473837730048 
635	 0.184569316881545 
636	 0.184463038131061 
637	 0.184799234898184 
638	 0.185236818644831 
639	 0.185761547500303 
640	 0.186469780793791 
641	 0.186765840426323 
642	 0.186520512311443 
643	 0.185992071893724 
644	 0.186034348291028 
645	 0.187259689468447 
646	 0.18754244949429 
647	 0.187008989504689 
648	 0.187112494143719 
649	 0.187359901056524 
650	 0.187460916546681 
651	 0.18673068365893 
652	 0.185922248478624 
653	 0.185972805567243 
654	 0.185611105488648 
655	 0.18458301370818 
656	 0.183344561080365 
657	 0.181880599534219 
658	 0.180314651538665 
659	 0.178864705012961 
660	 0.177683170925056 
661	 0.17706617967213 
662	 0.175703387096094 
663	 0.173489514297534 
664	 0.171757430232866 
665	 0.170330054755715 
666	 0.169016653849894 
667	 0.167857014374624 
668	 0.166688477716072 
669	 0.165023916124337 
670	 0.163837928975593 
671	 0.163457189594114 
672	 0.163434847439616 
673	 0.163250557937404 
674	 0.162391932126847 
675	 0.162285369864702 
676	 0.162848854242297 
677	 0.162732655983972 
678	 0.162853922163521 
679	 0.163670425796688 
680	 0.164674161078133 
681	 0.16586155822338 
682	 0.167328004335742 
683	 0.169046598663121 
684	 0.171092947266818 
685	 0.173952382828055 
686	 0.17708392034672 
687	 0.179973915861127 
688	 0.183446684352655 
689	 0.187106973918569 
690	 0.190480791292239 
691	 0.194375168885 
692	 0.198952315959135 
693	 0.203334002939026 
694	 0.207627975126293 
695	 0.211809770669798 
696	 0.216085097064872 
697	 0.220388044853843 
698	 0.22465608406641 
699	 0.228527102463962 
700	 0.231811347225864 
701	 0.235157260873893 
702	 0.238362912826082 
703	 0.241085557684657 
704	 0.243657943653079 
705	 0.246177236222326 
706	 0.248500904462119 
707	 0.250812186778168 
708	 0.253181010822672 
709	 0.25522455736449 
710	 0.257061693801792 
711	 0.258996529210385 
712	 0.260836604386448 
713	 0.262575559655122 
714	 0.26451314916089 
715	 0.266166349759053 
716	 0.267199798969141 
717	 0.268702747485759 
718	 0.270663751836525 
719	 0.271986585891251 
720	 0.272745693691162 
721	 0.273202010159282 
722	 0.274306722283912 
723	 0.275977813036618 
724	 0.278009129215185 
725	 0.279240595732066 
726	 0.27970125145702 
727	 0.280862466459369 
728	 0.281583550285835 
729	 0.281602728362857 
730	 0.283183901622287 
731	 0.285042378133355 
732	 0.285121348745296 
733	 0.285441831878644 
734	 0.286339393248104 
735	 0.287276579763516 
736	 0.288000685457059 
737	 0.288371517743556 
738	 0.288973585861859 
739	 0.29000043783812 
740	 0.29172371473292 
741	 0.292433135148525 
742	 0.292061090311148 
743	 0.292867203327169 
744	 0.293758206382622 
745	 0.293806777792929 
746	 0.294039991078979 
747	 0.294645508160305 
748	 0.295696836063137 
749	 0.296497879430623 
750	 0.296861200383836 
751	 0.297452791498377 
752	 0.298106562933924 
753	 0.298594359080322 
754	 0.298804423739309 
755	 0.298990672200619 
756	 0.300228718885487 
757	 0.299802034259882 
758	 0.296916126095474 
759	 0.296723350107004 
760	 0.299976919186851 
761	 0.303849822144318 
762	 0.305675764591591 
763	 0.305694303561716 
764	 0.306680659467339 
765	 0.307739220728679 
766	 0.30837905754522 
767	 0.307928047036253 
768	 0.307243873736865 
769	 0.307286639021098 
770	 0.307581896922767 
771	 0.30806124079518 
772	 0.308803010701942 
773	 0.309704671982175 
774	 0.310623490625246 
775	 0.311025675548797 
776	 0.311158277113416 
777	 0.311627931370701 
778	 0.311849894840016 
779	 0.31186464978552 
780	 0.312518920656311 
781	 0.313308787992211 
782	 0.313818239452155 
783	 0.314276095657049 
784	 0.31477372964197 
785	 0.315459629504341 
786	 0.315897470616358 
787	 0.316054009409862 
788	 0.316460132240552 
789	 0.31719347822528 
790	 0.318218160098626 
791	 0.318460179853551 
792	 0.318294973689138 
793	 0.319220841444144 
794	 0.319671559416282 
795	 0.31934548004103 
796	 0.319646171553007 
797	 0.320301458092442 
798	 0.32093598713203 
799	 0.321280259836492 
800	 0.321652588106453 
801	 0.323217572277151 
802	 0.32402670559075 
803	 0.323561102777194 
804	 0.323735889656388 
805	 0.324054288877765 
806	 0.323878657673302 
807	 0.324460125018952 
808	 0.325488195820236 
809	 0.325272867618769 
810	 0.325542864273308 
811	 0.326637700037644 
812	 0.325622503751277 
813	 0.324358705401296 
814	 0.325609594352266 
815	 0.328149327134981 
816	 0.330925988911057 
817	 0.331881160825327 
818	 0.332176920595235 
819	 0.332356141043741 
820	 0.332006551687611 
821	 0.332107772687244 
822	 0.333775576301249 
823	 0.335577940452588 
824	 0.33639002633161 
825	 0.334094114022392 
826	 0.333433433057965 
827	 0.335848296626636 
828	 0.336567722649188 
829	 0.336226917048081 
830	 0.336204187531766 
831	 0.337743360668204 
832	 0.340041453606476 
833	 0.340036903009712 
834	 0.339681563775529 
835	 0.339731752326651 
836	 0.339299477986004 
837	 0.33917752323503 
838	 0.340261153553079 
839	 0.341220424755025 
840	 0.341791311670131 
841	 0.342134839447604 
842	 0.342560313078099 
843	 0.343063454815428 
844	 0.342790594995067 
845	 0.342077945066033 
846	 0.34141200224547 
847	 0.341331681785664 
848	 0.34175631972365 
849	 0.342172764342775 
850	 0.341882921723493 
851	 0.341058176144612 
852	 0.342454814066134 
853	 0.344838809734955 
854	 0.346560104236533 
855	 0.347063708204592 
856	 0.346373536956396 
857	 0.344644291584121 
858	 0.344643721998597 
859	 0.346620655935349 
860	 0.346278075459819 
861	 0.345174096082187 
862	 0.345042656359508 
863	 0.345592326971472 
864	 0.346477001309436 
865	 0.346861187716301 
866	 0.347956336696249 
867	 0.349785409460419 
868	 0.350760091971047 
869	 0.35069425225993 
870	 0.349687194814798 
871	 0.349319367011371 
872	 0.34978033078697 
873	 0.350856788384402 
874	 0.351888117318095 
875	 0.352833397940167 
876	 0.354731929446745 
877	 0.355969726452265 
878	 0.355772339735738 
879	 0.357715220642284 
880	 0.360294719597935 
881	 0.360321222731475 
882	 0.360329320884545 
883	 0.360900626724191 
884	 0.361543466443732 
885	 0.362229760531498 
886	 0.362941050015871 
887	 0.363872263878047 
888	 0.364459882746525 
889	 0.363981426296131 
890	 0.363055973184401 
891	 0.36203152707223 
892	 0.361240239166132 
893	 0.36123944488958 
894	 0.362333174773098 
895	 0.364099011098823 
896	 0.366352841503482 
897	 0.368804527698973 
898	 0.3703861345054 
899	 0.371431356833191 
900	 0.373799341977121 
901	 0.373519471519726 
902	 0.370431107170539 
903	 0.369687333378905 
904	 0.369333415362856 
905	 0.368181537574161 
906	 0.370718998952003 
907	 0.374912672211554 
908	 0.376095191174497 
909	 0.374489851805487 
910	 0.371878558085972 
911	 0.375193685934858 
912	 0.376863960538405 
913	 0.373867420539385 
914	 0.377217207036605 
915	 0.38269760219542 
916	 0.383802326091532 
917	 0.382203206221143 
918	 0.379599026678798 
919	 0.379851091270103 
920	 0.378266216661794 
921	 0.374187107242122 
922	 0.372807512778489 
923	 0.372800925742205 
924	 0.372612337198283 
925	 0.370985432921207 
926	 0.36844688096691 
927	 0.366657127836806 
928	 0.366861008362167 
929	 0.369290751448233 
930	 0.371761705378202 
931	 0.373866537711777 
932	 0.375646925703704 
933	 0.382306758244002 
934	 0.387920223442957 
935	 0.383504237193461 
936	 0.382089798549181 
937	 0.383264904826545 
938	 0.377150895786496 
939	 0.370825446999397 
940	 0.368102015577229 
941	 0.375089511688198 
942	 0.381368288036949 
943	 0.379460338576399 
944	 0.375935650533208 
945	 0.374124034034804 
946	 0.377727768780397 
947	 0.377602120594449 
948	 0.373086251434904 
949	 0.370556157137081 
950	 0.367838138391916 
951	 0.365164074976455 
952	 0.367602790687099 
953	 0.374243792524671 
954	 0.3824604879691 
955	 0.373723957813483 
956	 0.361701390812878 
957	 0.375660402632081 
958	 0.384497869837763 
959	 0.382114721406545 
960	 0.376953887059404 
961	 0.375824560535108 
962	 0.380631445486568 
963	 0.381103169325531 
964	 0.380873089714807 
965	 0.383754909646713 
966	 0.383452007325986 
967	 0.378956600806131 
968	 0.369653032080028 
969	 0.370079472989865 
970	 0.379150385595681 
971	 0.376572237872972 
972	 0.373472199313059 
973	 0.376289001172616 
974	 0.38470015180364 
975	 0.390116584400921 
976	 0.38399214188962 
977	 0.382684401939213 
978	 0.384184108356953 
979	 0.376505866995711 
980	 0.377209435694537 
981	 0.386719053409157 
982	 0.386331467970631 
983	 0.386183674248915 
984	 0.389784986148475 
985	 0.382135384409566 
986	 0.376042619456635 
987	 0.385509901772877 
988	 0.392041035219951 
989	 0.391899062699548 
990	 0.384739685452743 
991	 0.384228044753192 
992	 0.39008022711737 
993	 0.38472884431138 
994	 0.38202144276698 
995	 0.386643807207712 
996	 0.382523736506256 
997	 0.376812809006189 
998	 0.377658350816216 
999	 0.383322468939546 
1000	 0.386938734628396 
1001	 0.377729523470372 
1002	 0.379337781064955 
1003	 0.391058194253888 
1004	 0.389604015654704 
1005	 0.386094174845152 
1006	 0.384320975410893 
1007	 0.379465699602741 
1008	 0.377427802980224 
1009	 0.381780007493319 
1010	 0.380422702180429 
1011	 0.380033312772345 
1012	 0.391173880533207 
1013	 0.392969895790637 
1014	 0.38772677028223 
1015	 0.392826085833989 
1016	 0.389756821798704 
1017	 0.378833096467788 
1018	 0.38414020305538 
1019	 0.390850424085293 
1020	 0.391037417798533 
1021	 0.392810771987205 
1022	 0.390627352521992 
1023	 0.380210001779676 
1024	 0.380404222146689 
1025	 0.385522131962728 
1026	 0.381041880590409 
1027	 0.389426809762474 
1028	 0.403990006312372 
1029	 0.388367244091361 
1030	 0.370489674866074 
1031	 0.363921157414835 
1032	 0.383356173265914 
1033	 0.401528948216787 
1034	 0.400440266349601 
1035	 0.391957907350046 
1036	 0.384175016562757 
1037	 0.385225479463163 
1038	 0.393578481880337 
1039	 0.401474928649404 
1040	 0.396860115368208 
1041	 0.397108149307149 
1042	 0.401434262553425 
1043	 0.395688482618645 
1044	 0.383050128836765 
1045	 0.371074048256184 
1046	 0.387004498101765 
1047	 0.398512860310144 
1048	 0.385379034977258 
1049	 0.357713301729421 
1050	 0.344281877539593 
1051	 0.368189986875858 
1052	 0.375683564426175 
1053	 0.367948490725596 
1054	 0.360855520751762 
1055	 0.37208282938154 
1056	 0.38729647533306 
1057	 0.358504993774801 
1058	 0.360058369400124 
1059	 0.394463043980616 
1060	 0.386902741286707 
1061	 0.391740513146316 
1062	 0.415287813611473 
1063	 0.354325535438351 
1064	 0.287729071013668 
1065	 0.27994790856196 
1066	 0.347372452685658 
1067	 0.395519690659399 
1068	 0.33759482042482 
1069	 0.33251142422672 
1070	 0.359707485864976 
1071	 0.334991006059894 
1072	 0.37127705365024 
1073	 0.429058305850795 
1074	 0.374600010730033 
1075	 0.337885421483307 
