Wavelength	SHSI00384.asd
325	 5.77392652629419E-02 
326	 6.22807689574288E-02 
327	 7.76515779760525E-02 
328	 8.64876835054541E-02 
329	 8.87407606043551E-02 
330	 8.54473508252067E-02 
331	 8.15158306642606E-02 
332	 7.83589202611815E-02 
333	 7.67863216248988E-02 
334	 7.53913733939236E-02 
335	 7.39464410735923E-02 
336	 7.24120066709793E-02 
337	 7.17955303991493E-02 
338	 7.19830714068788E-02 
339	 0.071126464657591 
340	 6.97824258231731E-02 
341	 6.86459285522057E-02 
342	 6.93448562989953E-02 
343	 7.06417999510758E-02 
344	 0.069776781514289 
345	 6.91422032748372E-02 
346	 6.98408324218212E-02 
347	 7.36749027378797E-02 
348	 7.61418564228523E-02 
349	 7.47060545154979E-02 
350	 7.47092862049726E-02 
351	 7.45322953911148E-02 
352	 7.03700655042293E-02 
353	 6.83432567732469E-02 
354	 6.98268354311735E-02 
355	 0.074097522733512 
356	 7.59907768942807E-02 
357	 7.30560123658799E-02 
358	 7.14614430577538E-02 
359	 7.13123162223973E-02 
360	 7.15019815816905E-02 
361	 7.12815468516557E-02 
362	 7.06714834418418E-02 
363	 7.04759079557174E-02 
364	 7.08007071526255E-02 
365	 7.15088757439277E-02 
366	 0.071635160193403 
367	 7.08069374452806E-02 
368	 6.86709311466355E-02 
369	 6.82581294891036E-02 
370	 6.94501144653574E-02 
371	 6.91977600686323E-02 
372	 6.94615257612464E-02 
373	 7.08699908538812E-02 
374	 7.04607546333899E-02 
375	 6.89311052092614E-02 
376	 6.76682654467755E-02 
377	 6.64344745967918E-02 
378	 6.58001716365481E-02 
379	 6.75824608251154E-02 
380	 6.89238523357233E-02 
381	 6.85509074914344E-02 
382	 6.87490957897203E-02 
383	 6.87527075555148E-02 
384	 6.73265781886357E-02 
385	 6.81451678335554E-02 
386	 7.04227060872124E-02 
387	 6.90667145440443E-02 
388	 6.76198925248174E-02 
389	 6.76578735759732E-02 
390	 6.83414497725551E-02 
391	 0.06864870605781 
392	 6.75500068115297E-02 
393	 6.73832846766071E-02 
394	 6.84074891847135E-02 
395	 7.02655155405831E-02 
396	 6.97251906717176E-02 
397	 6.63065711589064E-02 
398	 6.51153362946988E-02 
399	 0.065224049404925 
400	 6.51562833619454E-02 
401	 6.55647455405495E-02 
402	 6.63490884855143E-02 
403	 0.067405048361555 
404	 6.72373988716202E-02 
405	 6.57193545463354E-02 
406	 6.61288666183224E-02 
407	 6.74268245316842E-02 
408	 6.79697047243825E-02 
409	 6.76536469697341E-02 
410	 0.066800727848775 
411	 6.64370299959731E-02 
412	 6.61236397106377E-02 
413	 6.57794359767359E-02 
414	 6.61106534056529E-02 
415	 6.68417944294833E-02 
416	 6.75549986120224E-02 
417	 6.76804229253409E-02 
418	 6.73456395192678E-02 
419	 0.06741991727474 
420	 6.75013347168176E-02 
421	 6.74393444483515E-02 
422	 6.77807588603138E-02 
423	 6.80889472870516E-02 
424	 6.76595538680648E-02 
425	 6.75290541722811E-02 
426	 6.78925161895399E-02 
427	 6.84749433657249E-02 
428	 6.87306965665173E-02 
429	 6.83743249798301E-02 
430	 0.06822118411951 
431	 6.82946193231017E-02 
432	 6.84431410037865E-02 
433	 6.83500193207073E-02 
434	 6.80364061386655E-02 
435	 6.78203939027681E-02 
436	 6.80669069069555E-02 
437	 6.88831587938544E-02 
438	 6.89957180232772E-02 
439	 6.86627934804102E-02 
440	 6.86998294952753E-02 
441	 0.068790861045328 
442	 6.88768037865837E-02 
443	 6.90426021175783E-02 
444	 6.91467941905689E-02 
445	 6.91051143973115E-02 
446	 6.92977521128888E-02 
447	 6.96609851014521E-02 
448	 6.99699616325161E-02 
449	 6.98773596724774E-02 
450	 0.069481108044034 
451	 6.98956775667974E-02 
452	 0.070535376833235 
453	 7.07507335866154E-02 
454	 7.05581309539861E-02 
455	 7.02032407412862E-02 
456	 7.03531094263734E-02 
457	 7.05187932696948E-02 
458	 7.05486807136281E-02 
459	 7.07937493405566E-02 
460	 7.10026588288184E-02 
461	 7.08632415193373E-02 
462	 7.08398095808337E-02 
463	 7.09706147035374E-02 
464	 0.070967881671693 
465	 7.12390823292458E-02 
466	 7.18684376118419E-02 
467	 7.19446681588011E-02 
468	 7.16401942953327E-02 
469	 7.13572675598272E-02 
470	 7.15926748978333E-02 
471	 7.22116864461146E-02 
472	 7.22421174791072E-02 
473	 0.072086900346563 
474	 7.20163590959298E-02 
475	 7.19663013069278E-02 
476	 7.20452492597364E-02 
477	 7.24682969295524E-02 
478	 7.25117268337549E-02 
479	 7.21505583805895E-02 
480	 7.22477239814105E-02 
481	 7.24433519786575E-02 
482	 7.24465153050914E-02 
483	 7.26017084803979E-02 
484	 0.072823702068251 
485	 7.27591307049764E-02 
486	 7.28481800264625E-02 
487	 7.31436551921371E-02 
488	 7.30678606047739E-02 
489	 7.27860765913145E-02 
490	 7.25347378893944E-02 
491	 7.28421863875885E-02 
492	 7.34409754963935E-02 
493	 7.33221823930856E-02 
494	 7.32579130780967E-02 
495	 7.35233877070405E-02 
496	 7.35869303200386E-02 
497	 7.37598835147658E-02 
498	 7.44991995657987E-02 
499	 7.45589324634254E-02 
500	 7.39950525049149E-02 
501	 0.074044917068259 
502	 0.074448017923875 
503	 7.49876781323038E-02 
504	 7.52482163161051E-02 
505	 7.53895007633138E-02 
506	 7.57964956727235E-02 
507	 0.076019052957228 
508	 7.60190730374368E-02 
509	 7.61077369324281E-02 
510	 7.64399671120345E-02 
511	 7.71128987329383E-02 
512	 7.78602494830374E-02 
513	 7.85873802041616E-02 
514	 7.92627860903571E-02 
515	 7.96567879887355E-02 
516	 7.97399750979264E-02 
517	 7.98886819304523E-02 
518	 8.00793704375324E-02 
519	 8.02596450841534E-02 
520	 8.06635335498291E-02 
521	 8.12480870151885E-02 
522	 8.17635331170629E-02 
523	 8.24607642584951E-02 
524	 8.33467158333942E-02 
525	 8.37285111113976E-02 
526	 8.38449616972579E-02 
527	 8.41355728496953E-02 
528	 8.42915500919436E-02 
529	 8.43892655311774E-02 
530	 8.49108152863896E-02 
531	 8.54826366379585E-02 
532	 8.58648052909356E-02 
533	 8.62477154047849E-02 
534	 8.67082045956805E-02 
535	 8.73960447767586E-02 
536	 8.76466067260221E-02 
537	 8.74638831569306E-02 
538	 8.79419173105158E-02 
539	 8.85105247066336E-02 
540	 8.85860237113308E-02 
541	 8.86947995465247E-02 
542	 8.89287686093866E-02 
543	 8.92532871531445E-02 
544	 8.95606923181905E-02 
545	 8.98255715708224E-02 
546	 9.02356957805413E-02 
547	 9.06175523843722E-02 
548	 9.07289242324964E-02 
549	 9.10064363974661E-02 
550	 9.13930884823557E-02 
551	 9.12936996895155E-02 
552	 9.12429609541583E-02 
553	 9.15645823098571E-02 
554	 9.19183519328804E-02 
555	 9.22226149097563E-02 
556	 0.092431910336681 
557	 9.25297242984085E-02 
558	 9.25195958956076E-02 
559	 9.24122142029709E-02 
560	 9.24334478426513E-02 
561	 9.27707890721459E-02 
562	 9.31824970214098E-02 
563	 0.093426222957795 
564	 9.29585522419647E-02 
565	 0.09279821171528 
566	 9.32467054245423E-02 
567	 9.32691402205652E-02 
568	 9.30688430551408E-02 
569	 9.30243866718967E-02 
570	 9.29488828989225E-02 
571	 9.28498922734599E-02 
572	 9.29046698533879E-02 
573	 9.28176391662692E-02 
574	 9.24460408843334E-02 
575	 9.21826444210099E-02 
576	 9.21192375072008E-02 
577	 9.23392328160606E-02 
578	 9.22417492712083E-02 
579	 9.18267536495847E-02 
580	 0.092042686504418 
581	 9.23166778552002E-02 
582	 9.21328504481277E-02 
583	 9.19366706558973E-02 
584	 9.18406729488498E-02 
585	 9.19651037920339E-02 
586	 9.18413151702041E-02 
587	 9.14142763158604E-02 
588	 9.16365835241594E-02 
589	 9.21129348908589E-02 
590	 9.22037215792449E-02 
591	 9.19160388386933E-02 
592	 9.14499169192912E-02 
593	 9.14201629124286E-02 
594	 9.14341079813859E-02 
595	 9.12944995845895E-02 
596	 9.13812467128115E-02 
597	 9.15004352631237E-02 
598	 9.12162898699352E-02 
599	 9.11733109513499E-02 
600	 0.091425825491709 
601	 0.091269020190609 
602	 9.11040536810293E-02 
603	 0.091286699137812 
604	 9.14400737469306E-02 
605	 0.091478025498568 
606	 9.13705903865818E-02 
607	 9.12121519759358E-02 
608	 9.10466044811744E-02 
609	 9.08407670247813E-02 
610	 9.06889035524778E-02 
611	 9.07039178289869E-02 
612	 9.03569545355028E-02 
613	 8.98170848069785E-02 
614	 9.00933099574851E-02 
615	 9.03874868399604E-02 
616	 9.02199658079036E-02 
617	 8.99738921213282E-02 
618	 8.97553610836937E-02 
619	 8.96428986717011E-02 
620	 8.96550548552476E-02 
621	 8.97536733463924E-02 
622	 8.97891073571614E-02 
623	 0.089662332725654 
624	 8.93323764834747E-02 
625	 8.94501354217833E-02 
626	 8.97906741527581E-02 
627	 8.94835742098917E-02 
628	 8.89141182232154E-02 
629	 0.088384849410763 
630	 0.088679324633655 
631	 8.92999142751831E-02 
632	 0.089543125693575 
633	 8.95721254611827E-02 
634	 8.93862059619292E-02 
635	 8.88422806958822E-02 
636	 8.86106931291219E-02 
637	 8.90100370050802E-02 
638	 8.91277718454046E-02 
639	 8.88268579621938E-02 
640	 8.80523506689038E-02 
641	 0.087798132933393 
642	 8.81710386432078E-02 
643	 8.80427193715837E-02 
644	 8.78159020987594E-02 
645	 8.78624804311418E-02 
646	 8.79198368622879E-02 
647	 8.77791806858995E-02 
648	 8.69849956111477E-02 
649	 0.086327895098284 
650	 8.61715875244204E-02 
651	 0.086428452083368 
652	 8.66522692155196E-02 
653	 8.63367823767006E-02 
654	 0.085951016937543 
655	 8.57030459785087E-02 
656	 8.60406474748942E-02 
657	 8.58615008449299E-02 
658	 8.46991740326507E-02 
659	 8.40435980631346E-02 
660	 8.38215542070054E-02 
661	 8.36469954460027E-02 
662	 8.35469168775786E-02 
663	 8.33510367035347E-02 
664	 8.24334677055584E-02 
665	 0.081582401528805 
666	 8.14376488527447E-02 
667	 8.12575659630224E-02 
668	 8.09065106674011E-02 
669	 8.03625768377877E-02 
670	 7.99255008733676E-02 
671	 7.97074962594228E-02 
672	 0.079532926386996 
673	 7.94993716390145E-02 
674	 7.97180700544894E-02 
675	 0.079660592283054 
676	 7.94496282029545E-02 
677	 0.079851606041541 
678	 8.03063116615393E-02 
679	 8.05089185893253E-02 
680	 8.06254678832602E-02 
681	 8.06992277054811E-02 
682	 8.07283334486636E-02 
683	 8.15870077757514E-02 
684	 0.083085477621221 
685	 8.34554509030188E-02 
686	 8.37921970614555E-02 
687	 8.50373465610379E-02 
688	 8.61170489147509E-02 
689	 8.70611610895039E-02 
690	 8.85810078553561E-02 
691	 0.090212905228439 
692	 9.17581328929875E-02 
693	 9.28209485163892E-02 
694	 9.40018287807822E-02 
695	 9.58617401798368E-02 
696	 0.097640650969735 
697	 9.92562532387848E-02 
698	 0.101050684032956 
699	 0.102575747295272 
700	 0.103724180686121 
701	 0.105489349556107 
702	 0.107336290063743 
703	 0.108410458006741 
704	 0.109324515024224 
705	 0.110269320802573 
706	 0.111266122695554 
707	 0.112333658303396 
708	 0.113435107832475 
709	 0.114191258280994 
710	 0.114819555610544 
711	 0.115801767054243 
712	 0.116971520433626 
713	 0.11808584928121 
714	 0.118347948277978 
715	 0.11849504364817 
716	 0.119244068236433 
717	 0.119921779708498 
718	 0.120485605493602 
719	 0.121169749020746 
720	 0.121701352736336 
721	 0.122046234274697 
722	 0.122652940953107 
723	 0.123256096303499 
724	 0.123483963199602 
725	 0.123427233482606 
726	 0.123329637502702 
727	 0.123837966119528 
728	 0.124340808936452 
729	 0.124583050426876 
730	 0.125129635822154 
731	 0.125707250057131 
732	 0.125883791873833 
733	 0.125753106377927 
734	 0.125605581848358 
735	 0.126321436491778 
736	 0.126970008973176 
737	 0.126940103783054 
738	 0.126867117833759 
739	 0.126962440100199 
740	 0.12743923158015 
741	 0.127906323080981 
742	 0.128182357436613 
743	 0.128135320658702 
744	 0.128062520070904 
745	 0.128223847081521 
746	 0.12856021784475 
747	 0.12892660230156 
748	 0.129015382854493 
749	 0.129069499016678 
750	 0.129179258339392 
751	 0.129338229193785 
752	 0.129454257973099 
753	 0.129434869444443 
754	 0.129366571811452 
755	 0.129330198909945 
756	 0.129536567214279 
757	 0.129485227090942 
758	 0.129007834486856 
759	 0.12889279454416 
760	 0.129239705541732 
761	 0.129740834293261 
762	 0.129975268938126 
763	 0.130045725995231 
764	 0.130507927151577 
765	 0.1311249738055 
766	 0.13162750304571 
767	 0.131287417408477 
768	 0.13071875511004 
769	 0.130630353561693 
770	 0.130991457596408 
771	 0.131543119800257 
772	 0.131350632084974 
773	 0.131041454081012 
774	 0.131055404132011 
775	 0.13129418226415 
776	 0.131570053111769 
777	 0.131572867885436 
778	 0.131542359238159 
779	 0.131551785184672 
780	 0.131571039234696 
781	 0.131647999253019 
782	 0.131813723242865 
783	 0.131957558971238 
784	 0.132151200575855 
785	 0.132610911468547 
786	 0.132917534120125 
787	 0.132928193345385 
788	 0.132724640823741 
789	 0.132586587397135 
790	 0.132750255604444 
791	 0.132804010404895 
792	 0.132704725740228 
793	 0.13247201147855 
794	 0.132720547532977 
795	 0.133443990869925 
796	 0.133396266010461 
797	 0.132998428705006 
798	 0.132769710430401 
799	 0.132883918304263 
800	 0.133228963262661 
801	 0.133344582379671 
802	 0.133627466943868 
803	 0.134083224579538 
804	 0.133917942119053 
805	 0.13372034851835 
806	 0.13414317492804 
807	 0.134082854538488 
808	 0.133779171777842 
809	 0.134632329405882 
810	 0.135214744754446 
811	 0.134979270359913 
812	 0.134833106582494 
813	 0.134578115612929 
814	 0.133901676394653 
815	 0.13413373947566 
816	 0.135003580680833 
817	 0.134422942738868 
818	 0.134336863778774 
819	 0.135319307864741 
820	 0.135547069692614 
821	 0.135510086189856 
822	 0.135919291412933 
823	 0.135940831149807 
824	 0.135689440038749 
825	 0.136026801418159 
826	 0.136241128411092 
827	 0.136080771678639 
828	 0.135947676478456 
829	 0.135860833388821 
830	 0.135804675646395 
831	 0.13595462146216 
832	 0.136194476640489 
833	 0.136006542491284 
834	 0.136361774179471 
835	 0.137330197011494 
836	 0.136771223626947 
837	 0.135941615851588 
838	 0.136426341703161 
839	 0.137169984647385 
840	 0.137629780732875 
841	 0.136879155900674 
842	 0.136452944526214 
843	 0.136821705339778 
844	 0.136324893368228 
845	 0.135942324696873 
846	 0.136821834579165 
847	 0.136538328847207 
848	 0.13551099736104 
849	 0.136492400338419 
850	 0.13724776017017 
851	 0.136952757746232 
852	 0.136485531348744 
853	 0.136327110947235 
854	 0.136862599218127 
855	 0.137036969475068 
856	 0.136795231894741 
857	 0.136534323096211 
858	 0.136485423673858 
859	 0.136729492610573 
860	 0.137095522097623 
861	 0.137405409044305 
862	 0.137533785007357 
863	 0.138170646986066 
864	 0.138736504715104 
865	 0.137482038681344 
866	 0.136999003141356 
867	 0.137949633331173 
868	 0.138935338488052 
869	 0.138805204702329 
870	 0.137016454253815 
871	 0.137320488232131 
872	 0.13866083315225 
873	 0.137790782209467 
874	 0.137430578539381 
875	 0.138204448133978 
876	 0.139386441571985 
877	 0.139492326352884 
878	 0.137885854346674 
879	 0.13854381672342 
880	 0.140026420287863 
881	 0.139133851707925 
882	 0.138175296471622 
883	 0.137825570110053 
884	 0.138122719465859 
885	 0.138674535956333 
886	 0.139183600439187 
887	 0.139575394447229 
888	 0.139536338360347 
889	 0.13872117342109 
890	 0.138846532271541 
891	 0.139780026458346 
892	 0.139731808779992 
893	 0.139428275477241 
894	 0.139268734508482 
895	 0.139703768145455 
896	 0.140205668038457 
897	 0.140089543484204 
898	 0.139483255859418 
899	 0.138979782979817 
900	 0.139863888293662 
901	 0.141151093872343 
902	 0.142154314984248 
903	 0.141783712086689 
904	 0.140833992107978 
905	 0.13998870964789 
906	 0.138989519280105 
907	 0.13874634611658 
908	 0.140909446688868 
909	 0.141160237804925 
910	 0.139455761635986 
911	 0.1408149239382 
912	 0.142903141599122 
913	 0.144121757281192 
914	 0.143863936622297 
915	 0.143015864463105 
916	 0.142710210073132 
917	 0.140483803072336 
918	 0.137885722318981 
919	 0.140365497324479 
920	 0.142114479784838 
921	 0.141473783767214 
922	 0.14182758741521 
923	 0.141250829007157 
924	 0.138362123900973 
925	 0.139482825024376 
926	 0.142472504263944 
927	 0.140273910387186 
928	 0.137861163976471 
929	 0.136990427554666 
930	 0.137261169614007 
931	 0.137515657642807 
932	 0.136821679767219 
933	 0.136433444527641 
934	 0.136686293205852 
935	 0.13775567727952 
936	 0.141495741294775 
937	 0.144775255459962 
938	 0.138205884148358 
939	 0.137737265884124 
940	 0.145149130221138 
941	 0.145492067182907 
942	 0.143098530824036 
943	 0.141581747706058 
944	 0.140488306587595 
945	 0.138855973652623 
946	 0.135146870040462 
947	 0.13722710895319 
948	 0.143541300673151 
949	 0.142635076494041 
950	 0.140994931996508 
951	 0.141353757086418 
952	 0.142772779594805 
953	 0.142902386490239 
954	 0.14012384725075 
955	 0.140158496364973 
956	 0.142981761314245 
957	 0.147054146113719 
958	 0.14652281068846 
959	 0.143587996443414 
960	 0.151823313769667 
961	 0.154652989513236 
962	 0.14661919519681 
963	 0.145095896565594 
964	 0.146221826401477 
965	 0.1450513882442 
966	 0.144716715857782 
967	 0.145115540738523 
968	 0.145267907595147 
969	 0.144928351046605 
970	 0.143920981619527 
971	 0.141539298445624 
972	 0.141136043752895 
973	 0.143763154871974 
974	 0.142813729500734 
975	 0.140868594961366 
976	 0.141323756222062 
977	 0.138935134189681 
978	 0.13686794806487 
979	 0.144328015843799 
980	 0.145343991250432 
981	 0.138805226176655 
982	 0.139183205891746 
983	 0.141191134705262 
984	 0.142271509112011 
985	 0.145586773766561 
986	 0.148276946970721 
987	 0.147536346194769 
988	 0.149026482726175 
989	 0.150594729399492 
990	 0.145934822244279 
991	 0.140426528233434 
992	 0.137276835515738 
993	 0.141280350177249 
994	 0.146515131238373 
995	 0.149383273309686 
996	 0.149972486749795 
997	 0.148108046445747 
998	 0.144180741315528 
999	 0.142655377392916 
1000	 0.14294029205123 
1001	 0.142506196193009 
1002	 0.142208402428148 
1003	 0.142089779898914 
1004	 0.141630894115663 
1005	 0.142187711667842 
1006	 0.144275804928671 
1007	 0.147961301596597 
1008	 0.148559452935714 
1009	 0.143725251228284 
1010	 0.144989818521645 
1011	 0.147032263734133 
1012	 0.140968209602746 
1013	 0.142870715206113 
1014	 0.149882955375752 
1015	 0.145965639087258 
1016	 0.146730491142456 
1017	 0.152480009889855 
1018	 0.143594712529593 
1019	 0.140988788166159 
1020	 0.152685715637567 
1021	 0.149787500771053 
1022	 0.140937634863177 
1023	 0.137968931218532 
1024	 0.143267562285153 
1025	 0.152384143576299 
1026	 0.157067669910617 
1027	 0.159661265660279 
1028	 0.16017459070213 
1029	 0.15803672324026 
1030	 0.151854076254676 
1031	 0.143052112151811 
1032	 0.138204549184165 
1033	 0.13629877888619 
1034	 0.137665767375103 
1035	 0.150316137662401 
1036	 0.160418632751083 
1037	 0.154938936533481 
1038	 0.161403404887988 
1039	 0.165089642144114 
1040	 0.133498569147815 
1041	 0.129502359533812 
1042	 0.151336437747344 
1043	 0.147271651301174 
1044	 0.149365176739139 
1045	 0.160185198359581 
1046	 0.144549719918216 
1047	 0.131178195137015 
1048	 0.136028467816467 
1049	 0.134750445600089 
1050	 0.130386853544371 
1051	 0.128954297219585 
1052	 0.146834848280699 
1053	 0.160824785140006 
1054	 0.137815964057406 
1055	 0.129859131297615 
1056	 0.140323689860811 
1057	 0.14890261014279 
1058	 0.139213592056607 
1059	 0.119268523349857 
1060	 0.14160881738888 
1061	 0.161343285434673 
1062	 0.159039716445847 
1063	 0.150768793728158 
1064	 0.155770333277054 
1065	 0.179733497274306 
1066	 0.157679078823964 
1067	 0.126351465094713 
1068	 0.128845616033974 
1069	 0.135192200449974 
1070	 0.15046452153071 
1071	 0.186481362641023 
1072	 0.186762454219863 
1073	 0.163728677018035 
1074	 0.180196759808549 
1075	 0.198756035462499 
