Wavelength	SHSI00223.asd
325	 8.65137906965998E-02 
326	 8.66757445398181E-02 
327	 8.70540230503793E-02 
328	 0.091283970416342 
329	 0.089928490218596 
330	 8.18479578342281E-02 
331	 0.08081213632495 
332	 8.09435953076127E-02 
333	 7.61206415626354E-02 
334	 7.48043931251665E-02 
335	 7.80114371937995E-02 
336	 8.56477381466389E-02 
337	 8.78815692551794E-02 
338	 8.38289272001854E-02 
339	 8.50148017113228E-02 
340	 8.70315249754993E-02 
341	 8.60789761891894E-02 
342	 8.52560256112323E-02 
343	 8.57001300435472E-02 
344	 8.88520614891808E-02 
345	 9.01793254352998E-02 
346	 8.90100515193123E-02 
347	 8.75978789765005E-02 
348	 0.087722221382364 
349	 9.00832794367265E-02 
350	 0.090874005965056 
351	 9.10865653299369E-02 
352	 9.31296557782661E-02 
353	 9.39622608494187E-02 
354	 9.35431571428756E-02 
355	 9.45562308367047E-02 
356	 9.54232058214077E-02 
357	 9.53497018608225E-02 
358	 9.63387885945672E-02 
359	 9.73794356295329E-02 
360	 9.66644711451524E-02 
361	 9.65189936466473E-02 
362	 9.68497486673742E-02 
363	 0.09543660121479 
364	 9.36670807974281E-02 
365	 9.27384155210531E-02 
366	 9.48245263637894E-02 
367	 9.80755969842911E-02 
368	 9.97354858546641E-02 
369	 0.100400395006697 
370	 0.100458285668188 
371	 0.100647319039702 
372	 0.101849973625911 
373	 0.103981599196418 
374	 0.103289203184231 
375	 0.100635829842044 
376	 9.78223928998057E-02 
377	 9.63789800111557E-02 
378	 9.64912390562867E-02 
379	 9.72298471621708E-02 
380	 9.79055289686607E-02 
381	 9.82867290498037E-02 
382	 0.100324969852925 
383	 0.101288562256054 
384	 9.75433373188976E-02 
385	 9.48393393000014E-02 
386	 9.42290592781913E-02 
387	 9.38276595923152E-02 
388	 9.43230263061462E-02 
389	 9.56283889654015E-02 
390	 0.095689404232291 
391	 9.60684935012447E-02 
392	 0.098715519116725 
393	 9.84532507116151E-02 
394	 9.57265813442469E-02 
395	 9.52727724623783E-02 
396	 9.45305258222427E-02 
397	 9.27486116051805E-02 
398	 9.13989603340145E-02 
399	 9.07898971325877E-02 
400	 9.10322224485733E-02 
401	 9.12281498903878E-02 
402	 9.17574167064413E-02 
403	 0.094421889958098 
404	 0.095835733369694 
405	 9.49407573071522E-02 
406	 0.094833546101346 
407	 9.51970381078155E-02 
408	 9.52776348477661E-02 
409	 9.52867578780546E-02 
410	 9.53009550666733E-02 
411	 9.54440953796267E-02 
412	 9.56252327215419E-02 
413	 9.57183618296672E-02 
414	 9.51908408093993E-02 
415	 9.47405649796435E-02 
416	 9.53016359572025E-02 
417	 9.55771720132992E-02 
418	 9.54805542608747E-02 
419	 9.58154486279564E-02 
420	 9.58642376348364E-02 
421	 9.54232909375333E-02 
422	 9.59524454540849E-02 
423	 9.67422159483119E-02 
424	 9.65510311332877E-02 
425	 9.61865293795845E-02 
426	 9.61194363520734E-02 
427	 9.72900825586723E-02 
428	 9.82765354353801E-02 
429	 0.098149802308398 
430	 9.78092172524692E-02 
431	 9.72421330641659E-02 
432	 9.61977994575128E-02 
433	 9.57752917512088E-02 
434	 9.60128098679097E-02 
435	 9.57498491580655E-02 
436	 0.096100438209295 
437	 9.76121008677523E-02 
438	 9.80952772749712E-02 
439	 0.097875478612563 
440	 9.81480632807342E-02 
441	 9.84175519028706E-02 
442	 9.86550340554589E-02 
443	 9.92402926897787E-02 
444	 9.97992782042054E-02 
445	 0.100031240599888 
446	 0.100247788651408 
447	 0.100319298936949 
448	 9.97072378346169E-02 
449	 9.99008965220399E-02 
450	 0.101135894043052 
451	 0.101726847383677 
452	 0.102294610086399 
453	 0.10349858094565 
454	 0.104267048456751 
455	 0.104439753306421 
456	 0.104152225888277 
457	 0.104041449866434 
458	 0.10436157402494 
459	 0.104571003592656 
460	 0.10499190509622 
461	 0.106019072982003 
462	 0.106225229906856 
463	 0.10574079109219 
464	 0.105984673125778 
465	 0.106502763328124 
466	 0.107054292418451 
467	 0.107651799009877 
468	 0.10784363115059 
469	 0.10700917922266 
470	 0.106714910723907 
471	 0.107245499197622 
472	 0.107888491603465 
473	 0.108736614160373 
474	 0.109700031331877 
475	 0.10974624608979 
476	 0.109328984771839 
477	 0.109474583409543 
478	 0.109583372156351 
479	 0.109620259813717 
480	 0.110086797378947 
481	 0.11056044230776 
482	 0.11073669882557 
483	 0.111313138080016 
484	 0.112142716164119 
485	 0.112668587281859 
486	 0.112637577249949 
487	 0.112093305579397 
488	 0.11191244235101 
489	 0.111759250603688 
490	 0.111289540670038 
491	 0.111851678797804 
492	 0.112921420785614 
493	 0.112356531033044 
494	 0.112011287660841 
495	 0.112650505712432 
496	 0.113657224719858 
497	 0.114496634229059 
498	 0.11456806292109 
499	 0.11524193912067 
500	 0.116504022215393 
501	 0.117140151761039 
502	 0.117435977308975 
503	 0.117591540443279 
504	 0.117803052637768 
505	 0.118013312077901 
506	 0.118000426360817 
507	 0.118812553360488 
508	 0.120404065014144 
509	 0.121292340940187 
510	 0.122143309781733 
511	 0.123447916296783 
512	 0.124144911540476 
513	 0.124555658057541 
514	 0.12583061996497 
515	 0.127082862863113 
516	 0.127959913169734 
517	 0.128494632586087 
518	 0.128763025440794 
519	 0.128870176504484 
520	 0.128932243635046 
521	 0.129290350450059 
522	 0.130763050216603 
523	 0.132108886758663 
524	 0.132885849192467 
525	 0.134412456455626 
526	 0.135918873992705 
527	 0.136142929251654 
528	 0.136192626508624 
529	 0.13657021834753 
530	 0.137836472515159 
531	 0.139307213620468 
532	 0.140464060411051 
533	 0.141139052846753 
534	 0.141504748523287 
535	 0.141914880954089 
536	 0.142602651841964 
537	 0.143653168563687 
538	 0.144983987755972 
539	 0.146121346277154 
540	 0.146622005338366 
541	 0.146754348929057 
542	 0.146868496727022 
543	 0.147640097012734 
544	 0.14867379169241 
545	 0.149713100836178 
546	 0.150325860385386 
547	 0.150771821771261 
548	 0.151443670363733 
549	 0.151967587437085 
550	 0.15235538149423 
551	 0.152940380631334 
552	 0.153507121961807 
553	 0.153986808221711 
554	 0.155028277257192 
555	 0.156228751986955 
556	 0.156696299699456 
557	 0.157153340327899 
558	 0.157701892017753 
559	 0.157714045130008 
560	 0.1577681460407 
561	 0.158386992237011 
562	 0.15893465641842 
563	 0.159441803220462 
564	 0.160390995131114 
565	 0.160981221643559 
566	 0.160957249932748 
567	 0.160976800178258 
568	 0.161288531436413 
569	 0.162113330766606 
570	 0.162248836031358 
571	 0.161784383305704 
572	 0.162111395678991 
573	 0.162604568956008 
574	 0.162883289854366 
575	 0.163063278846271 
576	 0.163218813665775 
577	 0.163443512485292 
578	 0.16395474376082 
579	 0.164688158644595 
580	 0.165006289873679 
581	 0.165465260237594 
582	 0.166492768240872 
583	 0.166802044235501 
584	 0.166556122094548 
585	 0.166714502454036 
586	 0.167227770106534 
587	 0.167987629207974 
588	 0.168245024628852 
589	 0.1681489492289 
590	 0.168003243401486 
591	 0.168057873039397 
592	 0.16826488777189 
593	 0.168177970222459 
594	 0.168199027202423 
595	 0.168560671399485 
596	 0.169028724361253 
597	 0.169690235490498 
598	 0.170842564847402 
599	 0.17105338856074 
600	 0.170250213581087 
601	 0.170233619017869 
602	 0.170542110968083 
603	 0.170714183174244 
604	 0.170972381576485 
605	 0.171279979106037 
606	 0.171492219062902 
607	 0.171669972351173 
608	 0.171819228871483 
609	 0.171885139051554 
610	 0.171832390167948 
611	 0.171628436847776 
612	 0.17163582161783 
613	 0.171709555746676 
614	 0.170953757809606 
615	 0.170662649420768 
616	 0.171393391511975 
617	 0.170671268918081 
618	 0.169510528940862 
619	 0.170220110874542 
620	 0.171038563381986 
621	 0.171365884036671 
622	 0.171016012669727 
623	 0.170750393092907 
624	 0.171214245743709 
625	 0.171339786760656 
626	 0.171283415529336 
627	 0.171983109636802 
628	 0.172721047207073 
629	 0.173186074123683 
630	 0.173474722675912 
631	 0.173508233327722 
632	 0.173198264065041 
633	 0.172905241833836 
634	 0.172875762795507 
635	 0.173519859968912 
636	 0.174213797961378 
637	 0.174549991220305 
638	 0.174597536715923 
639	 0.17460342421079 
640	 0.174972568300731 
641	 0.175551455688468 
642	 0.176102997892679 
643	 0.175873957320519 
644	 0.175593471590339 
645	 0.175908291678297 
646	 0.176306942856387 
647	 0.1766057019004 
648	 0.176613144674999 
649	 0.176431265798791 
650	 0.176152608974902 
651	 0.176009486562343 
652	 0.175898110862098 
653	 0.175668383425642 
654	 0.175766083055021 
655	 0.175848777779196 
656	 0.17448447112574 
657	 0.172603884034469 
658	 0.170995997790455 
659	 0.170110210269477 
660	 0.16961858880216 
661	 0.168999834401021 
662	 0.16786245472564 
663	 0.16615475181098 
664	 0.164291204096856 
665	 0.162620075646132 
666	 0.161428370694532 
667	 0.160776085805765 
668	 0.160213415884631 
669	 0.158510234309439 
670	 0.157567562089872 
671	 0.157857518330245 
672	 0.157677915700801 
673	 0.157295833309102 
674	 0.157172587732211 
675	 0.157149369838823 
676	 0.15733588512277 
677	 0.158153160007266 
678	 0.158944233738887 
679	 0.159422849645146 
680	 0.160305177506597 
681	 0.161529634932999 
682	 0.16284226209305 
683	 0.164769891906753 
684	 0.167325537939433 
685	 0.170089271512978 
686	 0.173213043826609 
687	 0.176784503639083 
688	 0.180837773158471 
689	 0.1848923116618 
690	 0.188762274133082 
691	 0.193159288704815 
692	 0.198213251882842 
693	 0.202970515632578 
694	 0.207600089703004 
695	 0.212126543041479 
696	 0.216694008022578 
697	 0.221217153419186 
698	 0.225554238331748 
699	 0.229741036193665 
700	 0.233754243639237 
701	 0.237874467877084 
702	 0.241801058138484 
703	 0.245129106726802 
704	 0.248329309978826 
705	 0.251498740133886 
706	 0.254329651041826 
707	 0.257187516066124 
708	 0.26021710331685 
709	 0.26256042805243 
710	 0.264723182981998 
711	 0.267846473667434 
712	 0.270781854123963 
713	 0.273192708209214 
714	 0.275410387233487 
715	 0.277356465896837 
716	 0.279084921057704 
717	 0.281157853275093 
718	 0.283699859532402 
719	 0.286376329044577 
720	 0.287874483618786 
721	 0.288136090340702 
722	 0.289203973539899 
723	 0.2910596536758 
724	 0.293506449441045 
725	 0.29523288207768 
726	 0.296271901469998 
727	 0.298388451367295 
728	 0.299963097874076 
729	 0.300471568592624 
730	 0.30234421735845 
731	 0.304338483535682 
732	 0.304435185521365 
733	 0.304723691981239 
734	 0.305746656460931 
735	 0.307619814768543 
736	 0.309038109887764 
737	 0.309243948092998 
738	 0.310351108688434 
739	 0.312012437759691 
740	 0.313022160433364 
741	 0.313781735203169 
742	 0.314478252354076 
743	 0.315458980199937 
744	 0.316471921521359 
745	 0.317300469350985 
746	 0.317994777384841 
747	 0.318839810132823 
748	 0.32065485715939 
749	 0.321595847493214 
750	 0.321371318857355 
751	 0.322398641292336 
752	 0.32393601411148 
753	 0.325006016416022 
754	 0.325699879990077 
755	 0.326278635527197 
756	 0.327804186314815 
757	 0.327482740959903 
758	 0.324610204612616 
759	 0.325200723726069 
760	 0.330804339312043 
761	 0.33790441357151 
762	 0.339573011610756 
763	 0.337389775823536 
764	 0.339399221023481 
765	 0.340939571987417 
766	 0.340593976492884 
767	 0.340026195584307 
768	 0.339899664639965 
769	 0.340877715781783 
770	 0.341623942492016 
771	 0.341921441076895 
772	 0.342176501638481 
773	 0.343069845980001 
774	 0.344897007267289 
775	 0.345987958811061 
776	 0.346521330359175 
777	 0.347314498230934 
778	 0.347955748833996 
779	 0.348479864757537 
780	 0.349452887143101 
781	 0.350375154054324 
782	 0.35088793114744 
783	 0.351687018160327 
784	 0.352730656649669 
785	 0.353696332282431 
786	 0.354494683595043 
787	 0.355194649436791 
788	 0.356246791783148 
789	 0.357622113269595 
790	 0.359181853043667 
791	 0.359931742076313 
792	 0.360155210015011 
793	 0.360992503389947 
794	 0.361973973527566 
795	 0.362941566116228 
796	 0.363883147356127 
797	 0.364551778603978 
798	 0.364761834379379 
799	 0.365275458437539 
800	 0.366346567443824 
801	 0.368339383883999 
802	 0.369483133532483 
803	 0.369357277509026 
804	 0.370151305675021 
805	 0.371282931417451 
806	 0.371968006994351 
807	 0.372690997386649 
808	 0.373481796080424 
809	 0.374146306461985 
810	 0.374888628627801 
811	 0.375732030848777 
812	 0.37627879582887 
813	 0.376538826167253 
814	 0.376623912669401 
815	 0.378611984254566 
816	 0.382184110378794 
817	 0.384734149560848 
818	 0.385873463821165 
819	 0.385553351400345 
820	 0.38449305125522 
821	 0.384562540895257 
822	 0.3877585106073 
823	 0.390598784530877 
824	 0.391732585707355 
825	 0.390213900453014 
826	 0.389387728769006 
827	 0.390551145802896 
828	 0.391675286245196 
829	 0.392617613416159 
830	 0.393435675123226 
831	 0.394884976948314 
832	 0.396579689915761 
833	 0.396910169175363 
834	 0.397598898042428 
835	 0.399094359233123 
836	 0.399349669024398 
837	 0.399330599907345 
838	 0.400278437751333 
839	 0.401142042663432 
840	 0.401652533292184 
841	 0.401632500794545 
842	 0.401948042198353 
843	 0.402801567088431 
844	 0.403010470020122 
845	 0.402574019248551 
846	 0.401701979868108 
847	 0.402470624936709 
848	 0.404415421717039 
849	 0.40493673371566 
850	 0.404906879173324 
851	 0.404959376705028 
852	 0.406682836495259 
853	 0.408998542936018 
854	 0.410568563239505 
855	 0.411488560863776 
856	 0.41169135387361 
857	 0.410904831770132 
858	 0.411004623672741 
859	 0.412200896122582 
860	 0.411776726877571 
861	 0.410988833024981 
862	 0.411150265307735 
863	 0.411187859001732 
864	 0.411773806375707 
865	 0.414975599643914 
866	 0.417619229585592 
867	 0.418342700444867 
868	 0.416754747181913 
869	 0.416588061443415 
870	 0.420279995356403 
871	 0.42053160332366 
872	 0.41881995661827 
873	 0.420126566579217 
874	 0.422565711308582 
875	 0.425098281098999 
876	 0.425660287375494 
877	 0.426101313179636 
878	 0.427797895519956 
879	 0.430285476339494 
880	 0.432758374065779 
881	 0.434072961481935 
882	 0.434968680824661 
883	 0.435660303698482 
884	 0.436039627727731 
885	 0.436919211216861 
886	 0.43861368460201 
887	 0.43990874314918 
888	 0.440565584854611 
889	 0.440504035772929 
890	 0.440373600415587 
891	 0.440329956901865 
892	 0.440204889495963 
893	 0.439942336967171 
894	 0.440087792349847 
895	 0.443746142959512 
896	 0.448551979211323 
897	 0.45128478864762 
898	 0.452705764143036 
899	 0.453737507676481 
900	 0.4566170987873 
901	 0.457851945958128 
902	 0.456847155982682 
903	 0.456518878027662 
904	 0.455835740817546 
905	 0.454518398941498 
906	 0.45798297685494 
907	 0.463784322576552 
908	 0.466321188910878 
909	 0.463133528456465 
910	 0.456822457738221 
911	 0.46029518614187 
912	 0.464566591712809 
913	 0.464776332068231 
914	 0.466108036164085 
915	 0.468473813012473 
916	 0.471069465647583 
917	 0.471595643433561 
918	 0.470135781313966 
919	 0.468260618648847 
920	 0.46662357073331 
921	 0.465604990915913 
922	 0.465248032198386 
923	 0.464566618449037 
924	 0.462723513598969 
925	 0.460812080831763 
926	 0.458714461001424 
927	 0.455585796145438 
928	 0.456188047363634 
929	 0.461266894105721 
930	 0.464359676880565 
931	 0.46687934111665 
932	 0.470808949632738 
933	 0.48440894614106 
934	 0.494991669588373 
935	 0.48403234335283 
936	 0.481847898049687 
937	 0.485061550347835 
938	 0.463030158553676 
939	 0.454611603602015 
940	 0.466064578723098 
941	 0.470083846316501 
942	 0.471208901688641 
943	 0.473248451906987 
944	 0.474573131983885 
945	 0.476836936260823 
946	 0.482911206011377 
947	 0.479671666384466 
948	 0.469698112498994 
949	 0.473151639661116 
950	 0.472997586797273 
951	 0.465039694320462 
952	 0.468848569981292 
953	 0.474524641329408 
954	 0.472761436251687 
955	 0.472501825175954 
956	 0.475004276273788 
957	 0.479947710428285 
958	 0.484560312441359 
959	 0.487000879967867 
960	 0.484986656035005 
961	 0.481043109778667 
962	 0.47742315812927 
963	 0.477053722071926 
964	 0.47733863405899 
965	 0.47578614785209 
966	 0.476745011862551 
967	 0.476922835674244 
968	 0.467888530770655 
969	 0.469362339675584 
970	 0.480374963043556 
971	 0.476227860452041 
972	 0.470776881864965 
973	 0.472044552537074 
974	 0.478630137775486 
975	 0.485095863451734 
976	 0.485712835015014 
977	 0.484789988277782 
978	 0.483620757248371 
979	 0.483165179227437 
980	 0.480775048601666 
981	 0.477554120919123 
982	 0.479941690969011 
983	 0.482612696318996 
984	 0.482707923119616 
985	 0.482375836821597 
986	 0.482604327879229 
987	 0.48412236226828 
988	 0.484620061825231 
989	 0.484422229707434 
990	 0.484681012278315 
991	 0.491804493976728 
992	 0.501030288679315 
993	 0.488156712176852 
994	 0.478228892753305 
995	 0.482237061094713 
996	 0.482970529549555 
997	 0.482328695760438 
998	 0.483304490907543 
999	 0.484323698970432 
1000	 0.486403653438007 
1001	 0.491810066172142 
1002	 0.491709534705412 
1003	 0.48751239456477 
1004	 0.492007875883293 
1005	 0.495305630375397 
1006	 0.493766553529013 
1007	 0.490830241905788 
1008	 0.489939093620221 
1009	 0.492975056136287 
1010	 0.493015795639491 
1011	 0.491156879618212 
1012	 0.490579412982582 
1013	 0.499845809193537 
1014	 0.511477917221912 
1015	 0.502022142107048 
1016	 0.496848581298762 
1017	 0.498860285203724 
1018	 0.484376340309552 
1019	 0.480450228768315 
1020	 0.497531995902694 
1021	 0.500311351700623 
1022	 0.497063608419536 
1023	 0.498692674875848 
1024	 0.497105540736253 
1025	 0.494975381952769 
1026	 0.498293104130972 
1027	 0.498698012608351 
1028	 0.49364011135117 
1029	 0.480516586406141 
1030	 0.480783407032068 
1031	 0.498831782834285 
1032	 0.516656737713314 
1033	 0.524252821256098 
1034	 0.516262748874181 
1035	 0.499807510565565 
1036	 0.490390438347804 
1037	 0.502114098041601 
1038	 0.503550102986047 
1039	 0.497013325320139 
1040	 0.496437198231709 
1041	 0.49532171253591 
1042	 0.494220376309895 
1043	 0.498550305177753 
1044	 0.503596905201716 
1045	 0.506329148372935 
1046	 0.502899067919119 
1047	 0.49798390379178 
1048	 0.494000003440612 
1049	 0.484208811945956 
1050	 0.478421514702869 
1051	 0.484230522579491 
1052	 0.469629680654805 
1053	 0.454198167906461 
1054	 0.475017679350519 
1055	 0.476245099153361 
1056	 0.465108162838828 
1057	 0.48923089659199 
1058	 0.481804283624932 
1059	 0.447355436205948 
1060	 0.472944616243112 
1061	 0.498767095444825 
1062	 0.49718568778937 
1063	 0.489669973777997 
1064	 0.482701086309327 
1065	 0.480301455337401 
1066	 0.479012222104054 
1067	 0.478333686799687 
1068	 0.478384581334853 
1069	 0.488257390016399 
1070	 0.493231087576451 
1071	 0.468871117961443 
1072	 0.45791683509944 
1073	 0.464217860462475 
1074	 0.462787244354684 
1075	 0.451969521319726 
