Wavelength	SHSI00347.asd
325	 7.23841836180361E-02 
326	 7.62503852844216E-02 
327	 7.62682774628128E-02 
328	 7.51032093193616E-02 
329	 7.72012017255707E-02 
330	 8.24208499428183E-02 
331	 8.21284968537643E-02 
332	 7.75548560822407E-02 
333	 0.070841119405226 
334	 6.87120236688604E-02 
335	 6.97190852390092E-02 
336	 6.68307662072862E-02 
337	 6.83607623201477E-02 
338	 7.40767595171829E-02 
339	 7.18836544711375E-02 
340	 0.068867829585552 
341	 7.06503757477325E-02 
342	 6.80107976079212E-02 
343	 6.41798356414986E-02 
344	 6.76651085643638E-02 
345	 7.01078158927541E-02 
346	 7.02906749769269E-02 
347	 7.32002739672588E-02 
348	 7.45934917274936E-02 
349	 7.20365745332015E-02 
350	 0.07005181071547 
351	 6.86599165310755E-02 
352	 6.66978838090712E-02 
353	 6.61388524395087E-02 
354	 6.71841621201529E-02 
355	 6.89875650826086E-02 
356	 6.94533813554707E-02 
357	 6.78485240669073E-02 
358	 6.86866289065262E-02 
359	 7.04732625037408E-02 
360	 7.02557265264249E-02 
361	 6.83728331457504E-02 
362	 6.61637204657906E-02 
363	 6.75262943727247E-02 
364	 6.89027636620936E-02 
365	 6.85472786499668E-02 
366	 6.86027173652052E-02 
367	 6.87450183535159E-02 
368	 6.82724912719952E-02 
369	 6.80480301458671E-02 
370	 6.80369759330003E-02 
371	 6.72625183477323E-02 
372	 6.73001148987644E-02 
373	 6.87725884139497E-02 
374	 6.99767903855518E-02 
375	 6.95750818217875E-02 
376	 6.61777588880813E-02 
377	 6.45899729474009E-02 
378	 6.54415916506767E-02 
379	 6.66692854383547E-02 
380	 6.67723586815635E-02 
381	 6.54875244731655E-02 
382	 6.71829966697399E-02 
383	 6.85777551288887E-02 
384	 6.49738942516405E-02 
385	 6.41327036223989E-02 
386	 6.62096520607572E-02 
387	 6.54742455981776E-02 
388	 6.51930248382009E-02 
389	 6.63516172190627E-02 
390	 6.60116312540305E-02 
391	 6.49611933273116E-02 
392	 6.43916096589808E-02 
393	 6.37908599792693E-02 
394	 6.36768297877555E-02 
395	 6.61273116136942E-02 
396	 6.63329758055032E-02 
397	 6.30190013416978E-02 
398	 6.07643379331261E-02 
399	 6.03850460502461E-02 
400	 6.19961355048146E-02 
401	 6.28853430251783E-02 
402	 6.27810700773139E-02 
403	 0.062379421987792 
404	 6.22305777750743E-02 
405	 6.25387021032037E-02 
406	 6.27617491842653E-02 
407	 6.31847017894239E-02 
408	 6.41908920762167E-02 
409	 6.38348416653209E-02 
410	 6.25319901622993E-02 
411	 6.27588241353799E-02 
412	 6.27524319699178E-02 
413	 6.19377083674546E-02 
414	 6.22533788866273E-02 
415	 6.27568449182253E-02 
416	 6.20440966789482E-02 
417	 6.14243378889906E-02 
418	 6.13396180169375E-02 
419	 6.22526186119037E-02 
420	 6.26568937956997E-02 
421	 6.19590768967345E-02 
422	 6.23284968224467E-02 
423	 6.30167224175823E-02 
424	 6.26066472566175E-02 
425	 6.21932605132469E-02 
426	 6.22337686535893E-02 
427	 6.34069548967617E-02 
428	 6.41145400362472E-02 
429	 0.063390765079855 
430	 6.25279558785668E-02 
431	 6.19201585085212E-02 
432	 6.18741625390626E-02 
433	 6.19867511680547E-02 
434	 6.20928900645482E-02 
435	 6.20908994082504E-02 
436	 6.21459336302134E-02 
437	 6.23601315168487E-02 
438	 6.26396994580761E-02 
439	 0.062805375598593 
440	 6.25406427938067E-02 
441	 6.24427310524194E-02 
442	 6.26499148723544E-02 
443	 6.28966415626158E-02 
444	 6.30310064848996E-02 
445	 6.29655519392008E-02 
446	 6.30575023188084E-02 
447	 6.32676059102104E-02 
448	 6.33846921434024E-02 
449	 6.33776151007923E-02 
450	 6.33224547379921E-02 
451	 6.36678855443089E-02 
452	 6.40651431117326E-02 
453	 6.41494395062043E-02 
454	 6.40848670637179E-02 
455	 6.40140734923846E-02 
456	 6.42543109285384E-02 
457	 0.06435965933161 
458	 6.42181648909767E-02 
459	 6.43542282768154E-02 
460	 6.45208558814612E-02 
461	 6.43847380402228E-02 
462	 6.41820653196554E-02 
463	 0.064086354897506 
464	 6.44552001088447E-02 
465	 6.47619042930809E-02 
466	 6.47490569792111E-02 
467	 6.48075345853764E-02 
468	 6.47620481073226E-02 
469	 6.42976309526868E-02 
470	 6.42306767851176E-02 
471	 6.46430769108214E-02 
472	 6.50488850778361E-02 
473	 6.51630420605585E-02 
474	 6.48653379003654E-02 
475	 0.064776291304561 
476	 6.49832222179723E-02 
477	 6.55019209706382E-02 
478	 6.56295930098873E-02 
479	 6.52919639561593E-02 
480	 6.51893381819048E-02 
481	 6.51185397934594E-02 
482	 6.49249474914251E-02 
483	 6.48821840021194E-02 
484	 6.51171154910333E-02 
485	 6.58870549216234E-02 
486	 6.62656339147369E-02 
487	 6.60098257497841E-02 
488	 6.59579014689934E-02 
489	 6.60628217961561E-02 
490	 6.62060777613013E-02 
491	 6.62016971646574E-02 
492	 0.066105449903843 
493	 6.61858699134112E-02 
494	 6.62187479894292E-02 
495	 6.61542543428117E-02 
496	 6.62899825011458E-02 
497	 6.65289517159098E-02 
498	 6.67117714866167E-02 
499	 0.066884766877021 
500	 6.71310665105049E-02 
501	 0.06777178717091 
502	 0.068073681686221 
503	 6.77156663830146E-02 
504	 6.79330860915497E-02 
505	 6.84368120553095E-02 
506	 6.84788405424542E-02 
507	 6.85044548144976E-02 
508	 6.87137900076173E-02 
509	 6.93570024221734E-02 
510	 7.01544475458835E-02 
511	 0.070853777039737 
512	 7.13108431143671E-02 
513	 7.16798507979644E-02 
514	 0.072415392299669 
515	 7.29958418061717E-02 
516	 7.32474058344769E-02 
517	 7.33141943855405E-02 
518	 7.35556988528003E-02 
519	 7.43030001369041E-02 
520	 7.46791748559615E-02 
521	 7.48625171187128E-02 
522	 7.58804277940879E-02 
523	 7.67674399584112E-02 
524	 7.71533983029642E-02 
525	 7.77725245005686E-02 
526	 7.83712106159045E-02 
527	 7.84812673366215E-02 
528	 7.87397642525126E-02 
529	 7.92079914332057E-02 
530	 7.94378300174722E-02 
531	 7.98661639074832E-02 
532	 8.07141051797473E-02 
533	 8.11604217077233E-02 
534	 8.13688074752639E-02 
535	 8.19081939412626E-02 
536	 8.24389591564625E-02 
537	 8.28408912457821E-02 
538	 8.30380582455391E-02 
539	 8.32465820863376E-02 
540	 8.36699556854307E-02 
541	 8.41131971322095E-02 
542	 8.45297319628797E-02 
543	 8.49212539387433E-02 
544	 8.52762024654174E-02 
545	 8.55795418201242E-02 
546	 8.57809275403791E-02 
547	 8.58985144459308E-02 
548	 8.59580818241966E-02 
549	 8.63907257438148E-02 
550	 8.70425685095692E-02 
551	 8.69965604928964E-02 
552	 8.70207372628752E-02 
553	 8.75397696539683E-02 
554	 8.77494411794675E-02 
555	 0.08779053072514 
556	 8.81380059953392E-02 
557	 8.84113639585275E-02 
558	 8.85044706951455E-02 
559	 0.088462917253925 
560	 8.86180298552688E-02 
561	 8.92169264741966E-02 
562	 8.94216143826749E-02 
563	 8.92580638238999E-02 
564	 8.92146799907461E-02 
565	 8.92241676142434E-02 
566	 8.92567179190856E-02 
567	 8.91620982137519E-02 
568	 8.90515671014013E-02 
569	 8.90823844199328E-02 
570	 8.90975173721654E-02 
571	 8.90662299239869E-02 
572	 8.90508484491797E-02 
573	 0.088908181178791 
574	 8.86108218898228E-02 
575	 8.87019678897207E-02 
576	 8.89278466257816E-02 
577	 8.86896287917242E-02 
578	 8.84522746416416E-02 
579	 8.83719522582307E-02 
580	 8.84330657913486E-02 
581	 8.85604659980892E-02 
582	 8.86680424278948E-02 
583	 8.85581639846813E-02 
584	 8.82997400067309E-02 
585	 8.81531886486129E-02 
586	 8.80359315784122E-02 
587	 8.79654878846066E-02 
588	 8.81773725509984E-02 
589	 8.84350612643059E-02 
590	 8.84036087493311E-02 
591	 8.83405065232708E-02 
592	 8.82832608226893E-02 
593	 0.088125692185639 
594	 8.80185803896406E-02 
595	 8.80289586774567E-02 
596	 0.087900819773074 
597	 8.77652387799453E-02 
598	 8.79116380137212E-02 
599	 8.80739500556229E-02 
600	 8.80912139577676E-02 
601	 8.76153904655537E-02 
602	 8.73955863466663E-02 
603	 8.80081931563227E-02 
604	 8.79267840136746E-02 
605	 8.73811313861508E-02 
606	 0.087730531704581 
607	 8.78077632914272E-02 
608	 0.087292626287897 
609	 8.71929109619147E-02 
610	 8.72693178330264E-02 
611	 8.71092135268601E-02 
612	 8.63661934075623E-02 
613	 8.54283471201595E-02 
614	 8.58911563275189E-02 
615	 8.62528303617487E-02 
616	 8.56938128148201E-02 
617	 8.56119399696108E-02 
618	 8.57808791981273E-02 
619	 8.54753415185283E-02 
620	 0.085277839744316 
621	 8.53159891415412E-02 
622	 8.54051444292527E-02 
623	 8.53473816910822E-02 
624	 8.50091985064542E-02 
625	 8.50122798881501E-02 
626	 8.52752077727666E-02 
627	 8.53077951636633E-02 
628	 8.51064516781302E-02 
629	 0.084781842606875 
630	 8.50906485290089E-02 
631	 8.55165234108231E-02 
632	 8.53496486409938E-02 
633	 8.51878584712835E-02 
634	 8.50528459089167E-02 
635	 8.44529687228708E-02 
636	 8.42422064228138E-02 
637	 8.48017678367548E-02 
638	 8.47822944964367E-02 
639	 8.44084783668901E-02 
640	 8.44150711176012E-02 
641	 8.43516115533801E-02 
642	 8.41006927648903E-02 
643	 8.37320878651965E-02 
644	 8.33331898484317E-02 
645	 8.29911472297049E-02 
646	 8.28461691046759E-02 
647	 8.28144222894279E-02 
648	 8.26622295131236E-02 
649	 0.082182490715245 
650	 8.14886626565648E-02 
651	 8.17548769291876E-02 
652	 0.082124755276727 
653	 8.14842296946735E-02 
654	 8.10367485202446E-02 
655	 8.08963054289796E-02 
656	 8.04955096894658E-02 
657	 7.98886162236723E-02 
658	 7.91992300672989E-02 
659	 7.88319928728422E-02 
660	 7.86172728814163E-02 
661	 7.82362947629324E-02 
662	 7.77513223041259E-02 
663	 7.71153491321073E-02 
664	 7.60529356916571E-02 
665	 0.075225252731442 
666	 7.51260601219866E-02 
667	 7.46989051094891E-02 
668	 7.39742043424122E-02 
669	 7.34772678607187E-02 
670	 7.31031528551296E-02 
671	 7.28308321129641E-02 
672	 7.25866025285364E-02 
673	 7.25628017002804E-02 
674	 7.29639242167691E-02 
675	 7.30399260972987E-02 
676	 7.28635037785065E-02 
677	 0.073244372954216 
678	 7.35926721897269E-02 
679	 7.36331201129129E-02 
680	 7.37991381587494E-02 
681	 7.40956423310867E-02 
682	 7.44208981437773E-02 
683	 0.075288625135243 
684	 7.65915331720793E-02 
685	 7.73238752128991E-02 
686	 7.82701557850187E-02 
687	 8.00728249510163E-02 
688	 8.15868328084386E-02 
689	 8.28534424538223E-02 
690	 0.084784657150575 
691	 8.66186250173217E-02 
692	 8.83042271902691E-02 
693	 9.05919459236046E-02 
694	 9.30067208459566E-02 
695	 9.49299522837533E-02 
696	 9.66950590047245E-02 
697	 9.86021434226333E-02 
698	 0.101411452220644 
699	 0.103907275299715 
700	 0.105584446416797 
701	 0.107694792727977 
702	 0.109759496944681 
703	 0.110960600434258 
704	 0.112697200868282 
705	 0.11497794371654 
706	 0.116531986914236 
707	 0.117931701383217 
708	 0.119497052555927 
709	 0.120713167190908 
710	 0.121707241109123 
711	 0.122799803347599 
712	 0.124201922820208 
713	 0.125721265811405 
714	 0.12621783623187 
715	 0.126449295330938 
716	 0.127201406121555 
717	 0.12844964453547 
718	 0.129928950324421 
719	 0.130496471189439 
720	 0.131181432065232 
721	 0.132167113294173 
722	 0.132563097408368 
723	 0.132958784032184 
724	 0.133993796500917 
725	 0.134184333080593 
726	 0.133759514961194 
727	 0.134576901033717 
728	 0.135503533557705 
729	 0.135966743809294 
730	 0.136156009938964 
731	 0.136453709165532 
732	 0.137356545085181 
733	 0.137500697430873 
734	 0.137034408663844 
735	 0.137514244176451 
736	 0.138184297779139 
737	 0.138534606027806 
738	 0.138922548813192 
739	 0.139290455350594 
740	 0.139432950108077 
741	 0.139773119100578 
742	 0.140318222060149 
743	 0.140523847213805 
744	 0.140611953208309 
745	 0.140769161223944 
746	 0.140597187005859 
747	 0.14047400724234 
748	 0.141550475107711 
749	 0.142049203329899 
750	 0.141558366006885 
751	 0.141716636103299 
752	 0.142151622593025 
753	 0.142347860258684 
754	 0.14246055441636 
755	 0.142496521632445 
756	 0.142398310282956 
757	 0.142356595409312 
758	 0.14247187236352 
759	 0.14274218212628 
760	 0.143132174161426 
761	 0.143098357478767 
762	 0.143253207373393 
763	 0.143732855606982 
764	 0.144419299541394 
765	 0.144970207602567 
766	 0.145240771403893 
767	 0.145329613616437 
768	 0.145176230997053 
769	 0.144620504990144 
770	 0.144786044037029 
771	 0.145603996440008 
772	 0.145773449390513 
773	 0.14561088415023 
774	 0.145393445564423 
775	 0.145582604060047 
776	 0.145986652204572 
777	 0.146124978561311 
778	 0.146284695493705 
779	 0.146530125004954 
780	 0.146805309479054 
781	 0.14703418291547 
782	 0.147145755348873 
783	 0.146970259618735 
784	 0.146915068640142 
785	 0.147969716382738 
786	 0.148284906791675 
787	 0.147601127403421 
788	 0.147923331073179 
789	 0.148527990956946 
790	 0.148652209562241 
791	 0.148576239159161 
792	 0.148456540611204 
793	 0.148573799374541 
794	 0.148635011071743 
795	 0.148571002196743 
796	 0.148628016132997 
797	 0.148564292965235 
798	 0.148169537620186 
799	 0.14821605326105 
800	 0.148627589385514 
801	 0.148727404456898 
802	 0.149100944982894 
803	 0.149768568820399 
804	 0.149636906234417 
805	 0.149358463179126 
806	 0.149686721022641 
807	 0.149652372146241 
808	 0.149385332129976 
809	 0.14981633177323 
810	 0.150282889757476 
811	 0.150503388512775 
812	 0.150700332099759 
813	 0.150688321213568 
814	 0.150233555809865 
815	 0.150362359453188 
816	 0.1510434763265 
817	 0.151227992090849 
818	 0.151462932639485 
819	 0.151873019043079 
820	 0.15182600889531 
821	 0.15179614976423 
822	 0.152372831982232 
823	 0.152985527686828 
824	 0.153284532223375 
825	 0.152764195052806 
826	 0.152248871081054 
827	 0.152170932598189 
828	 0.152716612053992 
829	 0.153414745785806 
830	 0.153660045001843 
831	 0.1536197688596 
832	 0.153444931984544 
833	 0.153339334717427 
834	 0.153907616520082 
835	 0.155062532863683 
836	 0.154698695144811 
837	 0.15407622940801 
838	 0.154764801139052 
839	 0.154990808245166 
840	 0.15466596390354 
841	 0.154554782897687 
842	 0.154846255672236 
843	 0.155421303445298 
844	 0.154883301743939 
845	 0.154428257345266 
846	 0.155427985645451 
847	 0.155457885708099 
848	 0.154577168462979 
849	 0.154535848006288 
850	 0.154118353941282 
851	 0.153153016660383 
852	 0.153349905725733 
853	 0.154285603639623 
854	 0.155272014066094 
855	 0.15534906204925 
856	 0.154885327133454 
857	 0.155362253793047 
858	 0.155851853438457 
859	 0.155929862828577 
860	 0.155019274222096 
861	 0.154317455451281 
862	 0.154953602122228 
863	 0.156081139277384 
864	 0.156759605794905 
865	 0.155080030126086 
866	 0.154535315651989 
867	 0.155813082104209 
868	 0.155804098689603 
869	 0.155452450050422 
870	 0.155674513293213 
871	 0.156731144058185 
872	 0.157916546652227 
873	 0.157802891556356 
874	 0.15763348511316 
875	 0.157885841697248 
876	 0.158985275803549 
877	 0.159191081657095 
878	 0.157677445869531 
879	 0.158403718037307 
880	 0.16022303359258 
881	 0.1604009964564 
882	 0.160615868042854 
883	 0.16103320679352 
884	 0.160786461744962 
885	 0.160326319137617 
886	 0.160046036818843 
887	 0.160692270584332 
888	 0.161291934530088 
889	 0.160504091434925 
890	 0.16063222173323 
891	 0.161521075238131 
892	 0.160815037295015 
893	 0.160525526998778 
894	 0.161306924503493 
895	 0.160946708899633 
896	 0.16034082234407 
897	 0.160761869374551 
898	 0.161728315096802 
899	 0.162968814275221 
900	 0.164234860584702 
901	 0.164201999022693 
902	 0.16298737694628 
903	 0.163299481787584 
904	 0.16335172176222 
905	 0.161927910601274 
906	 0.161656771270554 
907	 0.162558202848869 
908	 0.163987315520056 
909	 0.164460829660748 
910	 0.163897388808791 
911	 0.163771592050662 
912	 0.165400404115697 
913	 0.168660075660519 
914	 0.167660264958327 
915	 0.165008163033231 
916	 0.164613617322929 
917	 0.164467746801027 
918	 0.16442607330579 
919	 0.165096312051452 
920	 0.165764566211755 
921	 0.166084394692985 
922	 0.166123820594103 
923	 0.164975138292086 
924	 0.162236825092292 
925	 0.163437842205706 
926	 0.165882285981996 
927	 0.161459818416431 
928	 0.159148963768505 
929	 0.16175956647384 
930	 0.165839362245329 
931	 0.16751944772314 
932	 0.1637263820685 
933	 0.159674812673524 
934	 0.159392913745623 
935	 0.16647944460672 
936	 0.165978468095025 
937	 0.16037030262609 
938	 0.165907085898675 
939	 0.171753780468957 
940	 0.173219014016832 
941	 0.16662318163877 
942	 0.161064762905569 
943	 0.163185643746377 
944	 0.165091992153295 
945	 0.165935934182817 
946	 0.166046506589246 
947	 0.169115799319776 
948	 0.173154977567157 
949	 0.168960318560819 
950	 0.164582617242193 
951	 0.163464516133256 
952	 0.163459170153076 
953	 0.163063113413688 
954	 0.161163493059329 
955	 0.160088603782062 
956	 0.159169665931895 
957	 0.156107506556556 
958	 0.159637275270278 
959	 0.168887874414632 
960	 0.175049280467073 
961	 0.175808929413128 
962	 0.170776421325485 
963	 0.163729284641675 
964	 0.161997833178373 
965	 0.170839187054445 
966	 0.16933400342068 
967	 0.16093507644213 
968	 0.159060329067642 
969	 0.1623988931016 
970	 0.168199111947048 
971	 0.168188862953463 
972	 0.167672814438404 
973	 0.168990579453404 
974	 0.16664060895368 
975	 0.164892094153799 
976	 0.168444877496942 
977	 0.166711203277961 
978	 0.161955836131353 
979	 0.163266023019336 
980	 0.165991549310258 
981	 0.168377536342626 
982	 0.169802134736834 
983	 0.167892232310633 
984	 0.163615124303692 
985	 0.171366253975103 
986	 0.179423803748822 
987	 0.175034796027907 
988	 0.170991082566318 
989	 0.169717308387825 
990	 0.171343471588514 
991	 0.168700064464717 
992	 0.162619580034057 
993	 0.164308580551597 
994	 0.165391291015994 
995	 0.163058734823475 
996	 0.168141762356742 
997	 0.171825634636386 
998	 0.166137006535936 
999	 0.167076935005741 
1000	 0.171654988833981 
1001	 0.170129147183255 
1002	 0.169108307684811 
1003	 0.16908329683851 
1004	 0.165588523402896 
1005	 0.16573414456852 
1006	 0.170612942176482 
1007	 0.170468889461188 
1008	 0.167893258567817 
1009	 0.16579628500723 
1010	 0.167144355800733 
1011	 0.16833712627412 
1012	 0.164243310286164 
1013	 0.16766885637056 
1014	 0.175272355779037 
1015	 0.171916439358369 
1016	 0.17074791287752 
1017	 0.17396880367407 
1018	 0.173080332126718 
1019	 0.174608170869052 
1020	 0.179383411936106 
1021	 0.169716507772531 
1022	 0.15692401062972 
1023	 0.154635902123168 
1024	 0.163680108917414 
1025	 0.174540800017347 
1026	 0.171716651860935 
1027	 0.175537904917808 
1028	 0.182935427273608 
1029	 0.169983091540938 
1030	 0.15667501848337 
1031	 0.152608773686105 
1032	 0.161538020109194 
1033	 0.171308895699023 
1034	 0.17381766960665 
1035	 0.170779531884073 
1036	 0.17078922174837 
1037	 0.180952245129162 
1038	 0.181649720719499 
1039	 0.173682545082392 
1040	 0.164980691026298 
1041	 0.164590863435413 
1042	 0.172875744372729 
1043	 0.184823529594659 
1044	 0.187898218622659 
1045	 0.180490418302471 
1046	 0.181180107484085 
1047	 0.178286689273107 
1048	 0.167428810916672 
1049	 0.167400362352083 
1050	 0.167753223779536 
1051	 0.159321360511235 
1052	 0.173047756254124 
1053	 0.191146035486554 
1054	 0.183082501927186 
1055	 0.173813883790191 
1056	 0.172411422958046 
1057	 0.188379326156468 
1058	 0.179231540371464 
1059	 0.146804885207409 
1060	 0.15105170070998 
1061	 0.158921601735326 
1062	 0.156689456800999 
1063	 0.15530285434548 
1064	 0.163796590232309 
1065	 0.183498061872125 
1066	 0.179158617430823 
1067	 0.158121051182225 
1068	 0.133447615101766 
1069	 0.134001609797237 
1070	 0.159407878019221 
1071	 0.190468958963029 
1072	 0.193530904397719 
1073	 0.175186073330155 
1074	 0.171561053721369 
1075	 0.174779292850325 
